OxySoft export of:	C:\Users\TO3 TechSupport\Documents\Train2Adapt\Post_tests\T2A_69_POST_NIRS
Export date:	2022/12/13 02:44:08
Start of measurement:	2022-12-13 01:38:16.028

Datafile sample rate:	10.00	Hz
Datafile duration:	3339.700	s
Datafile total number of samples:	33397

Description:	

Optode-template:	PortaMon TSI Fit Factor
Optode distance (mm):	 35.00
Optode gradients (mm):	 5.00
DPF:	6.06

Device id:	334
# Receivers:	1
# Light sources:	6
# ADC:	2

Light source wavelengths:
device	index	wavelength
1	1	849	nm
1	2	759	nm
1	3	846	nm
1	4	757	nm
1	5	848	nm
1	6	757	nm

Export sample rate:	10.00	Hz
Selected time span:	0	3339.700
Selected time span (sample numbers):	0	33397


Legend:
Column	Trace (Measurement)
1	(Sample number)
2	Rx1-Tx1 O2Hb (T2A_69_POST_NIRS)
3	Rx1-Tx1 HHb (T2A_69_POST_NIRS)
4	Rx1-Tx1 tHb (T2A_69_POST_NIRS)
5	Rx1-Tx2 O2Hb (T2A_69_POST_NIRS)
6	Rx1-Tx2 HHb (T2A_69_POST_NIRS)
7	Rx1-Tx2 tHb (T2A_69_POST_NIRS)
8	Rx1-Tx3 O2Hb (T2A_69_POST_NIRS)
9	Rx1-Tx3 HHb (T2A_69_POST_NIRS)
10	Rx1-Tx3 tHb (T2A_69_POST_NIRS)
11	Rx1-Tx1,Tx2,Tx3 TSI% (T2A_69_POST_NIRS)
12	Rx1-Tx1,Tx2,Tx3 TSI Fit Factor (T2A_69_POST_NIRS)
13	(Event)


1	2	3	4	5	6	7	8	9	10	11	12	13
     0	139.0324	73.5440	212.5763	114.9649	62.6055	177.5705	95.9727	56.4189	152.3916	11.5652	98.7634	
     1	 0.5101	 0.1605	 0.6705	 0.5000	 0.1755	 0.6756	 0.4720	 0.2153	 0.6874	55.7327	99.8956	
     2	 0.4618	 0.1615	 0.6232	 0.4646	 0.1669	 0.6315	 0.4358	 0.2158	 0.6516	55.7327	99.8946	
     3	 0.4471	 0.1831	 0.6301	 0.4599	 0.2038	 0.6637	 0.4631	 0.2678	 0.7309	55.7104	99.8925	
     4	 0.4733	 0.2146	 0.6878	 0.4753	 0.2265	 0.7019	 0.4702	 0.2838	 0.7540	55.7015	99.8924	
     5	 0.4649	 0.2095	 0.6743	 0.4607	 0.2175	 0.6784	 0.4812	 0.2676	 0.7488	55.8129	99.8903	
     6	 0.4555	 0.1883	 0.6437	 0.4727	 0.1851	 0.6579	 0.5034	 0.2351	 0.7385	55.9820	99.8898	
     7	 0.3957	 0.1362	 0.5317	 0.4056	 0.1173	 0.5229	 0.4385	 0.1594	 0.5979	56.0673	99.8884	
     8	 0.1848	-0.0090	 0.1757	 0.1431	-0.0577	 0.0855	 0.1489	-0.0342	 0.1148	55.9759	99.8860	
     9	-0.0188	-0.0423	-0.0612	-0.0599	-0.0634	-0.1232	-0.0676	-0.0193	-0.0869	55.5795	99.8876	
    10	-0.0136	 0.0376	 0.0239	-0.0547	 0.0193	-0.0354	-0.0082	 0.0645	 0.0563	55.6699	99.8833	
    11	 0.0944	 0.0888	 0.1832	 0.0962	 0.0857	 0.1820	 0.1717	 0.1427	 0.3144	55.8399	99.8841	
    12	 0.2361	 0.1607	 0.3967	 0.2453	 0.1246	 0.3700	 0.3103	 0.1369	 0.4472	56.2110	99.8875	
    13	 0.1648	 0.0554	 0.2201	 0.1265	 0.0116	 0.1382	 0.1219	 0.0185	 0.1405	55.9175	99.8897	
    14	 0.0346	 0.0367	 0.0712	-0.0154	-0.0228	-0.0381	-0.0558	-0.0235	-0.0792	55.7600	99.8911	
    15	-0.0388	 0.0221	-0.0168	-0.0992	-0.0214	-0.1205	-0.1345	-0.0265	-0.1610	55.6423	99.8921	
    16	-0.0703	 0.0334	-0.0370	-0.1329	-0.0024	-0.1352	-0.1448	 0.0018	-0.1430	55.6017	99.8897	
    17	-0.1039	 0.0128	-0.0912	-0.1483	-0.0251	-0.1734	-0.1400	-0.0184	-0.1584	55.7238	99.8888	
    18	-0.1217	-0.0136	-0.1354	-0.1573	-0.0572	-0.2144	-0.1540	-0.0504	-0.2044	55.7735	99.8892	
    19	-0.1133	-0.0084	-0.1218	-0.1210	-0.0348	-0.1557	-0.1164	-0.0267	-0.1431	55.7960	99.8926	
    20	 0.0000	 0.0000	-0.0000	-0.0000	-0.0001	 0.0000	-0.0000	-0.0000	-0.0000	55.8183	99.8970	
    21	 0.0547	-0.0277	 0.0268	 0.0401	-0.0283	 0.0119	 0.0222	-0.0325	-0.0103	55.8049	99.8978	
    22	 0.0610	-0.0545	 0.0063	 0.0239	-0.0648	-0.0409	-0.0044	-0.0724	-0.0768	55.7825	99.8965	
    23	 0.0274	-0.0752	-0.0479	-0.0197	-0.0917	-0.1113	-0.0365	-0.1042	-0.1407	55.8278	99.8949	
    24	 0.0516	-0.0757	-0.0242	 0.0076	-0.1014	-0.0937	-0.0066	-0.1086	-0.1152	55.8865	99.8933	
    25	 0.0820	-0.1030	-0.0211	 0.0332	-0.1386	-0.1053	 0.0086	-0.1572	-0.1485	55.9817	99.8941	
    26	 0.0800	-0.1350	-0.0551	 0.0106	-0.1658	-0.1551	-0.0054	-0.1892	-0.1946	55.9728	99.8930	
    27	 0.0548	-0.1505	-0.0958	 0.0088	-0.1934	-0.1844	-0.0124	-0.2052	-0.2176	56.0316	99.8925	
    28	 0.0537	-0.1664	-0.1128	 0.0152	-0.2027	-0.1873	 0.0112	-0.2136	-0.2023	56.0990	99.8921	
    29	 0.0863	-0.1618	-0.0756	 0.0571	-0.2034	-0.1462	 0.0656	-0.2143	-0.1487	56.2204	99.8912	
    30	 0.1272	-0.1519	-0.0248	 0.1071	-0.1858	-0.0786	 0.1025	-0.2027	-0.1002	56.2247	99.8944	
    31	 0.1262	-0.1679	-0.0418	 0.0990	-0.2041	-0.1050	 0.0955	-0.2187	-0.1232	56.2204	99.8933	
    32	 0.1251	-0.1839	-0.0588	 0.0845	-0.2131	-0.1285	 0.0948	-0.2307	-0.1360	56.2204	99.8923	
    33	 0.1178	-0.1731	-0.0554	 0.0781	-0.2037	-0.1256	 0.0774	-0.2184	-0.1411	56.1619	99.8927	
    34	 0.1104	-0.1622	-0.0519	 0.0781	-0.2037	-0.1256	 0.0837	-0.2145	-0.1308	56.2204	99.8912	
    35	 0.1031	-0.1514	-0.0485	 0.0652	-0.1851	-0.1198	 0.0899	-0.2105	-0.1206	56.2789	99.8918	
    36	 0.1199	-0.1411	-0.0213	 0.0862	-0.1855	-0.0992	 0.0969	-0.1945	-0.0976	56.2247	99.8903	
    37	 0.1356	-0.1467	-0.0112	 0.1071	-0.1858	-0.0786	 0.1206	-0.2029	-0.0823	56.2831	99.8918	
    38	 0.1272	-0.1519	-0.0248	 0.0990	-0.2041	-0.1050	 0.1073	-0.2229	-0.1155	56.3288	99.8912	
    39	 0.1346	-0.1627	-0.0282	 0.1191	-0.2182	-0.0991	 0.1247	-0.2352	-0.1105	56.3872	99.8917	
    40	 0.1661	-0.1740	-0.0080	 0.1400	-0.2186	-0.0785	 0.1602	-0.2477	-0.0875	56.4456	99.8923	
    41	 0.1661	-0.1740	-0.0080	 0.1464	-0.2279	-0.0814	 0.1532	-0.2637	-0.1105	56.4914	99.8936	
    42	 0.1567	-0.1952	-0.0386	 0.1383	-0.2462	-0.1078	 0.1469	-0.2676	-0.1208	56.4414	99.8922	
    43	 0.1409	-0.1895	-0.0487	 0.1383	-0.2462	-0.1078	 0.1532	-0.2637	-0.1105	56.5039	99.8918	
    44	 0.1567	-0.1952	-0.0386	 0.1528	-0.2372	-0.0843	 0.1838	-0.2560	-0.0722	56.5164	99.8920	
    45	 0.1567	-0.1952	-0.0386	 0.1601	-0.2327	-0.0725	 0.1957	-0.2602	-0.0646	56.5746	99.8935	
    46	 0.1724	-0.2008	-0.0285	 0.1738	-0.2376	-0.0637	 0.2082	-0.2523	-0.0441	56.5247	99.8921	
    47	 0.1734	-0.1848	-0.0115	 0.1883	-0.2286	-0.0402	 0.2208	-0.2444	-0.0237	56.5828	99.8926	
    48	 0.1892	-0.1905	-0.0014	 0.1956	-0.2241	-0.0285	 0.2451	-0.2407	 0.0044	56.5911	99.8917	
    49	 0.1892	-0.1905	-0.0014	 0.2028	-0.2196	-0.0167	 0.2514	-0.2368	 0.0146	56.5952	99.8928	
    50	 0.1892	-0.1905	-0.0014	 0.2028	-0.2196	-0.0167	 0.2633	-0.2410	 0.0223	56.6532	99.8923	
    51	 0.1808	-0.1957	-0.0150	 0.2092	-0.2290	-0.0196	 0.2633	-0.2410	 0.0223	56.6573	99.8924	
    52	 0.1892	-0.1905	-0.0014	 0.2165	-0.2245	-0.0079	 0.2758	-0.2331	 0.0427	56.6614	99.8914	
    53	 0.1902	-0.1745	 0.0156	 0.2246	-0.2062	 0.0185	 0.2954	-0.2092	 0.0862	56.6736	99.8906	
    54	 0.2080	-0.1482	 0.0598	 0.2409	-0.1697	 0.0713	 0.3338	-0.1734	 0.1603	56.6898	99.8898	
    55	 0.2416	-0.1275	 0.1140	 0.2836	-0.1566	 0.1271	 0.3840	-0.1419	 0.2421	56.7060	99.8869	
    56	 0.2594	-0.1012	 0.1581	 0.3200	-0.1342	 0.1858	 0.4398	-0.1184	 0.3214	56.8332	99.8861	
    57	 0.2752	-0.1068	 0.1683	 0.3264	-0.1435	 0.1829	 0.4815	-0.1270	 0.3545	56.9519	99.8820	
    58	 0.2396	-0.1595	 0.0800	 0.2729	-0.2162	 0.0568	 0.3922	-0.2064	 0.1858	56.9126	99.8824	
    59	-0.0323	-0.2501	-0.2824	-0.0536	-0.2981	-0.3516	 0.0375	-0.2783	-0.2408	56.4125	99.8804	
    60	-0.1573	-0.1889	-0.3462	-0.1630	-0.2595	-0.4223	-0.0515	-0.2530	-0.3046	56.5164	99.8792	
    61	-0.1069	-0.1579	-0.2649	-0.1040	-0.2099	-0.3138	 0.0482	-0.2020	-0.1538	56.6075	99.8781	
    62	 0.0495	-0.1077	-0.0583	 0.0806	-0.1624	-0.0817	 0.2503	-0.1562	 0.0940	56.8629	99.8787	
    63	 0.1209	-0.1251	-0.0043	 0.1426	-0.1772	-0.0345	 0.3101	-0.1651	 0.1451	56.8668	99.8777	
    64	 0.1282	-0.1359	-0.0078	 0.1627	-0.1914	-0.0286	 0.3519	-0.1737	 0.1782	56.9897	99.8757	
    65	 0.0621	-0.1613	-0.0992	 0.0891	-0.2499	-0.1607	 0.2019	-0.2563	-0.0544	56.9267	99.8812	
    66	-0.0900	-0.2703	-0.3603	-0.1071	-0.3708	-0.4778	 0.0003	-0.3946	-0.3943	56.8709	99.8791	
    67	-0.1928	-0.3642	-0.5571	-0.1597	-0.4297	-0.5893	-0.0256	-0.4224	-0.4480	56.8529	99.8803	
    68	-0.2274	-0.4009	-0.6284	-0.1768	-0.4800	-0.6567	-0.0724	-0.4983	-0.5708	56.9912	99.8857	
    69	-0.4446	-0.5193	-0.9639	-0.4794	-0.6267	-1.1060	-0.4817	-0.6743	-1.1559	56.5248	99.8890	
    70	-0.5821	-0.5272	-1.1094	-0.4969	-0.5712	-1.0680	-0.3580	-0.5269	-0.8849	56.6245	99.8813	
    71	-0.5087	-0.3899	-0.8988	-0.3891	-0.4120	-0.8010	-0.1597	-0.3442	-0.5040	56.7677	99.8757	
    72	-0.2392	-0.0859	-0.3252	 0.0055	-0.0231	-0.0175	 0.3728	 0.0717	 0.4444	57.0724	99.8791	
    73	 0.3399	 0.2706	 0.6105	 0.6697	 0.3198	 0.9896	 0.9774	 0.3819	 1.3593	57.4667	99.8928	
    74	 0.5509	 0.2931	 0.8439	 0.7988	 0.3728	 1.1717	 1.0882	 0.4168	 1.5050	57.2441	99.8937	
    75	 0.4375	 0.2847	 0.7221	 0.7069	 0.3560	 1.0630	 1.0262	 0.3894	 1.4155	57.4039	99.8931	
    76	 0.5026	 0.2941	 0.7966	 0.7706	 0.3687	 1.1394	 1.1215	 0.3680	 1.4895	57.6745	99.8946	
    77	 0.3515	 0.2011	 0.5525	 0.6154	 0.2333	 0.8489	 0.9150	 0.2499	 1.1649	57.5729	99.8924	
    78	 0.2791	 0.2025	 0.4815	 0.5389	 0.2392	 0.7783	 0.8050	 0.2271	 1.0321	57.4918	99.8984	
    79	 0.2466	 0.1978	 0.4443	 0.4543	 0.2268	 0.6813	 0.6439	 0.1608	 0.8047	57.3132	99.9060	
    80	 0.2234	 0.2143	 0.4376	 0.3761	 0.2052	 0.5814	 0.4633	 0.0705	 0.5338	57.2153	99.9140	
    81	 0.0336	 0.0207	 0.0542	 0.1085	-0.0525	 0.0561	 0.0726	-0.1982	-0.1257	56.9091	99.9137	
    82	-0.2917	-0.1489	-0.4406	-0.2433	-0.2029	-0.4461	-0.1978	-0.2753	-0.4731	56.5874	99.8995	
    83	-0.4176	-0.2264	-0.6440	-0.3587	-0.2608	-0.6194	-0.2536	-0.2987	-0.5523	56.5622	99.8933	
    84	-0.3010	-0.2927	-0.5938	-0.3318	-0.3900	-0.7217	-0.3119	-0.4630	-0.7749	56.5669	99.8917	
    85	-0.2515	-0.4004	-0.6520	-0.3777	-0.5640	-0.9416	-0.3431	-0.6801	-1.0232	56.9321	99.8817	
    86	-0.2158	-0.4705	-0.6863	-0.2619	-0.6119	-0.8737	-0.2249	-0.7218	-0.9467	57.1962	99.8888	
    87	-0.2146	-0.5772	-0.7919	-0.2606	-0.7040	-0.9645	-0.2920	-0.8337	-1.1257	57.1016	99.8981	
    88	-0.3049	-0.6021	-0.9070	-0.3397	-0.7394	-1.0790	-0.3715	-0.8488	-1.2203	57.0424	99.8955	
    89	-0.3301	-0.6176	-0.9477	-0.3389	-0.7256	-1.0644	-0.3290	-0.8453	-1.1743	57.1844	99.8979	
    90	-0.3479	-0.6439	-0.9919	-0.3269	-0.7580	-1.0848	-0.3046	-0.8416	-1.1462	57.2080	99.8942	
    91	-0.4130	-0.6533	-1.0663	-0.3632	-0.7804	-1.1436	-0.2872	-0.8539	-1.1411	57.4540	99.8893	
    92	-0.4623	-0.6683	-1.1307	-0.4124	-0.7842	-1.1965	-0.2865	-0.8418	-1.1283	57.4767	99.8844	
    93	-0.4875	-0.6838	-1.1713	-0.4551	-0.7973	-1.2523	-0.3241	-0.8655	-1.1897	57.4654	99.8842	
    94	-0.7749	-0.8914	-1.6664	-0.7903	-1.0170	-1.8071	-0.6743	-1.0623	-1.7366	57.1765	99.8776	
    95	-0.8831	-0.8199	-1.7031	-0.7761	-0.9022	-1.6782	-0.5813	-0.9226	-1.5039	57.3867	99.8815	
    96	-0.6134	-0.7613	-1.3748	-0.4868	-0.8565	-1.3432	-0.2510	-0.8544	-1.1054	57.7174	99.8754	
    97	-0.4938	-0.6570	-1.1509	-0.4243	-0.7518	-1.1760	-0.2655	-0.7938	-1.0592	57.4524	99.8833	
    98	-0.3867	-0.6218	-1.0086	-0.2534	-0.6995	-0.9528	-0.0549	-0.7079	-0.7628	57.6313	99.8824	
    99	-0.4402	-0.7007	-1.1410	-0.2996	-0.7677	-1.0672	-0.1332	-0.8036	-0.9367	57.6597	99.8899	
   100	-0.4561	-0.5724	-1.0286	-0.2058	-0.4979	-0.7037	 0.1367	-0.4366	-0.3000	57.4226	99.8861	
   101	 0.0433	-0.2036	-0.1604	 0.3392	-0.1622	 0.1771	 0.5573	-0.1723	 0.3850	57.6484	99.9043	
   102	 0.1031	-0.1514	-0.0485	 0.4508	-0.0537	 0.3972	 0.7701	-0.0502	 0.7198	57.8412	99.9036	
   103	 0.3518	-0.0444	 0.3073	 0.6863	 0.0251	 0.7115	 1.0091	 0.0071	 1.0162	58.1157	99.9022	
   104	 0.5217	 0.0910	 0.6126	 0.8970	 0.1550	 1.0521	 1.2274	 0.1211	 1.3484	58.3599	99.9056	
   105	 0.5102	 0.0378	 0.5480	 0.8119	 0.0230	 0.8350	 1.0346	-0.0697	 0.9649	58.4136	99.9081	
   106	 0.2510	-0.1064	 0.1446	 0.4811	-0.1278	 0.3534	 0.6922	-0.2384	 0.4538	58.1857	99.9056	
   107	 0.0926	-0.1886	-0.0960	 0.2810	-0.1980	 0.0832	 0.4580	-0.3159	 0.1421	57.8712	99.9074	
   108	 0.1230	-0.0931	 0.0297	 0.3499	-0.1025	 0.2474	 0.5049	-0.2401	 0.2648	57.9351	99.9136	
   109	 0.1796	-0.0889	 0.0906	 0.3392	-0.1622	 0.1771	 0.3849	-0.3271	 0.0578	57.7930	99.9147	
   110	-0.0155	-0.2397	-0.2553	 0.1130	-0.3147	-0.2016	 0.1596	-0.4570	-0.2975	57.5945	99.9101	
   111	-0.2599	-0.4056	-0.6656	-0.0994	-0.4721	-0.5714	 0.0333	-0.5480	-0.5147	57.6276	99.8989	
   112	-0.3196	-0.5804	-0.9001	-0.1589	-0.6413	-0.8001	-0.0494	-0.7161	-0.7654	57.6560	99.9010	
   113	-0.2470	-0.7046	-0.9517	-0.2082	-0.8704	-1.0785	-0.1511	-1.0006	-1.1517	57.9761	99.8927	
   114	-0.2039	-0.7855	-0.9895	-0.1869	-0.9766	-1.1633	-0.0672	-1.1104	-1.1776	58.3671	99.8836	
   115	-0.1514	-0.8452	-0.9967	-0.0839	-1.0059	-1.0897	 0.0289	-1.1197	-1.0908	58.3976	99.8885	
   116	-0.0306	-0.8476	-0.8784	 0.1135	-0.9770	-0.8634	 0.2303	-1.0860	-0.8558	58.6107	99.8961	
   117	 0.1331	-0.8082	-0.6752	 0.3118	-0.9344	-0.6225	 0.4212	-1.0241	-0.6029	58.6972	99.8972	
   118	 0.1898	-0.8040	-0.6143	 0.3755	-0.9217	-0.5461	 0.4999	-1.0211	-0.5211	58.8180	99.8984	
   119	 0.2066	-0.7937	-0.5872	 0.4037	-0.9176	-0.5137	 0.5369	-1.0095	-0.4726	58.8813	99.8970	
   120	 0.2381	-0.8050	-0.5670	 0.4311	-0.9272	-0.4960	 0.5731	-1.0099	-0.4369	58.8875	99.8951	
   121	 0.2297	-0.8101	-0.5806	 0.4238	-0.9317	-0.5078	 0.5849	-1.0141	-0.4292	58.9475	99.8936	
   122	 0.2287	-0.8261	-0.5976	 0.4075	-0.9682	-0.5606	 0.5702	-1.0582	-0.4881	59.0430	99.8913	
   123	 0.1028	-0.9036	-0.8010	 0.2340	-1.0619	-0.8278	 0.3833	-1.1524	-0.7692	58.8948	99.8874	
   124	-0.2237	-0.9665	-1.1903	-0.1254	-1.1110	-1.2363	 0.0253	-1.1800	-1.1548	58.4245	99.8837	
   125	-0.5008	-1.0143	-1.5152	-0.3519	-1.1578	-1.5096	-0.1406	-1.2262	-1.3668	58.6010	99.8822	
   126	-0.4693	-1.0256	-1.4950	-0.1946	-1.1006	-1.2951	 0.0799	-1.0761	-0.9962	58.5496	99.8819	
   127	-0.1977	-0.6896	-0.8874	 0.2034	-0.6566	-0.4531	 0.6419	-0.5720	 0.0699	58.6312	99.8817	
   128	 0.3184	-0.3104	 0.0079	 0.8121	-0.3081	 0.5041	 1.0854	-0.3281	 0.7574	59.0058	99.9099	
   129	 0.5346	-0.2081	 0.3264	 0.9891	-0.1593	 0.8299	 1.2996	-0.1818	 1.1178	58.8823	99.9092	
   130	 0.5829	-0.2090	 0.3738	 1.0173	-0.1552	 0.8622	 1.3735	-0.1586	 1.2149	58.9002	99.9029	
   131	 0.7119	-0.0836	 0.6282	 1.1862	-0.0247	 1.1616	 1.6044	-0.0368	 1.5676	59.2077	99.9022	
   132	 0.7885	-0.0211	 0.7673	 1.2353	-0.0209	 1.2145	 1.5833	-0.0848	 1.4985	59.3694	99.9060	
   133	 0.6122	-0.1296	 0.4825	 0.9827	-0.1500	 0.8328	 1.2779	-0.2420	 1.0359	59.1421	99.9062	
   134	 0.5219	-0.1545	 0.3674	 0.8690	-0.1803	 0.6888	 1.1468	-0.3127	 0.8340	59.1625	99.9098	
   135	 0.4800	-0.1803	 0.2996	 0.8019	-0.2482	 0.5538	 1.0016	-0.4156	 0.5861	59.1597	99.9139	
   136	 0.4087	-0.2856	 0.1230	 0.6168	-0.4152	 0.2017	 0.6995	-0.6170	 0.0825	58.8875	99.9135	
   137	 0.0813	-0.4871	-0.4058	 0.2197	-0.6201	-0.4003	 0.3405	-0.7613	-0.4209	58.4711	99.8991	
   138	-0.1169	-0.6859	-0.8028	 0.0820	-0.8109	-0.7288	 0.3151	-0.8818	-0.5667	58.7387	99.8866	
   139	-0.0810	-0.8786	-0.9597	 0.1110	-1.0184	-0.9073	 0.3193	-1.1113	-0.7920	59.0339	99.8890	
   140	 0.0577	-0.9774	-0.9198	 0.1562	-1.1893	-1.0331	 0.3487	-1.3251	-0.9765	59.4108	99.8810	
   141	 0.1522	-1.0113	-0.8592	 0.3019	-1.2056	-0.9036	 0.4447	-1.3344	-0.8897	59.4225	99.8899	
   142	 0.2897	-1.0034	-0.7138	 0.5074	-1.1585	-0.6509	 0.6767	-1.2931	-0.6164	59.6873	99.8970	
   143	 0.3748	-1.0585	-0.6837	 0.5813	-1.2057	-0.6243	 0.7525	-1.3384	-0.5858	59.7440	99.8965	
   144	 0.3465	-1.1219	-0.7755	 0.5424	-1.2695	-0.7269	 0.7127	-1.3982	-0.6856	59.7358	99.8953	
   145	 0.2720	-1.1524	-0.8805	 0.5052	-1.3056	-0.8003	 0.6986	-1.4303	-0.7316	59.9085	99.8949	
   146	 0.2374	-1.1891	-0.9518	 0.4680	-1.3418	-0.8737	 0.6602	-1.4660	-0.8058	59.9032	99.8948	
   147	 0.1870	-1.2201	-1.0331	 0.4372	-1.3873	-0.9499	 0.6156	-1.5057	-0.8901	59.9519	99.8952	
   148	 0.1273	-1.2722	-1.1451	 0.3428	-1.4455	-1.1026	 0.5026	-1.5767	-1.0742	59.8709	99.8951	
   149	-0.0123	-1.3121	-1.3246	 0.2137	-1.4985	-1.2847	 0.3799	-1.6074	-1.2274	59.8112	99.8914	
   150	-0.1267	-1.3365	-1.4634	 0.0855	-1.5377	-1.4521	 0.2990	-1.6466	-1.3476	59.9171	99.8849	
   151	-0.2348	-1.3877	-1.6226	-0.0372	-1.6000	-1.6371	 0.2244	-1.6818	-1.4574	59.9198	99.8751	
   152	-0.3009	-1.4131	-1.7141	-0.0599	-1.6272	-1.6870	 0.2543	-1.6863	-1.4319	60.1088	99.8707	
   153	-0.2526	-1.4140	-1.6668	 0.0419	-1.5646	-1.5226	 0.4002	-1.5714	-1.1712	59.9483	99.8712	
   154	-0.1804	-1.1701	-1.3506	 0.2390	-1.2045	-0.9654	 0.7140	-1.1768	-0.4628	59.8542	99.8790	
   155	 0.3041	-0.6569	-0.3529	 0.8470	-0.6445	 0.2026	 1.3373	-0.6574	 0.6799	60.1097	99.8963	
   156	 0.7436	-0.3403	 0.4033	 1.3001	-0.3256	 0.9747	 1.6855	-0.3922	 1.2934	60.0679	99.9113	
   157	 0.8706	-0.2468	 0.6237	 1.4109	-0.2309	 1.1801	 1.8362	-0.2975	 1.5388	60.1391	99.9075	
   158	 0.9965	-0.1693	 0.8271	 1.5399	-0.1779	 1.3622	 1.9603	-0.2427	 1.7176	60.2492	99.9058	
   159	 0.9954	-0.1853	 0.8101	 1.5027	-0.2140	 1.2888	 1.8954	-0.3184	 1.5770	60.3237	99.9079	
   160	 0.8958	-0.2313	 0.6644	 1.3583	-0.2898	 1.0686	 1.6841	-0.4163	 1.2678	60.1716	99.9097	
   161	 0.8129	-0.2670	 0.5458	 1.2493	-0.3569	 0.8924	 1.5327	-0.5230	 1.0096	60.2369	99.9125	
   162	 0.7919	-0.3412	 0.4506	 1.1449	-0.4609	 0.6841	 1.3672	-0.6618	 0.7054	60.1270	99.9128	
   163	 0.6136	-0.4817	 0.1318	 0.9235	-0.6504	 0.2732	 1.1412	-0.8039	 0.3373	59.9875	99.9007	
   164	 0.3640	-0.7275	-0.3636	 0.7195	-0.8953	-0.1757	 1.0697	-0.9881	 0.0815	60.3388	99.8860	
   165	 0.3223	-0.9987	-0.6766	 0.6959	-1.1617	-0.4657	 1.0418	-1.2495	-0.2077	60.5943	99.8872	
   166	 0.4558	-1.1774	-0.7218	 0.6868	-1.4191	-0.7322	 0.9588	-1.5222	-0.5634	60.6286	99.8764	
   167	 0.3593	-1.2982	-0.9390	 0.5662	-1.5596	-0.9933	 0.8407	-1.6777	-0.8370	60.7670	99.8739	
   168	 0.2533	-1.3174	-1.0643	 0.4670	-1.5809	-1.1138	 0.7055	-1.7162	-1.0107	60.6944	99.8795	
   169	 0.2365	-1.3278	-1.0914	 0.5034	-1.5586	-1.0551	 0.8163	-1.6814	-0.8651	60.8952	99.8789	
   170	 0.3005	-1.3344	-1.0339	 0.5671	-1.5458	-0.9787	 0.8603	-1.6538	-0.7935	60.7385	99.8808	
   171	 0.2355	-1.3438	-1.1084	 0.5243	-1.5589	-1.0345	 0.8178	-1.6573	-0.8395	60.7408	99.8808	
   172	 0.2187	-1.3541	-1.1355	 0.5307	-1.5682	-1.0374	 0.8477	-1.6617	-0.8140	60.8594	99.8800	
   173	 0.2260	-1.3649	-1.1390	 0.5299	-1.5820	-1.0520	 0.8407	-1.6777	-0.8370	60.8550	99.8799	
   174	 0.1851	-1.3748	-1.1898	 0.4871	-1.5951	-1.1079	 0.8030	-1.7014	-0.8983	60.9042	99.8803	
   175	 0.1757	-1.3959	-1.2203	 0.4918	-1.6319	-1.1401	 0.7898	-1.7213	-0.9316	60.9019	99.8791	
   176	 0.1914	-1.4016	-1.2102	 0.5264	-1.6371	-1.1106	 0.8496	-1.7302	-0.8805	61.0739	99.8788	
   177	 0.2303	-1.4237	-1.1935	 0.5538	-1.6468	-1.0929	 0.8914	-1.7388	-0.8474	61.0782	99.8778	
   178	 0.2376	-1.4345	-1.1969	 0.5738	-1.6609	-1.0870	 0.9088	-1.7511	-0.8423	61.1339	99.8784	
   179	 0.2524	-1.4561	-1.2039	 0.5930	-1.6889	-1.0957	 0.9372	-1.7796	-0.8424	61.2431	99.8773	
   180	 0.2671	-1.4778	-1.2108	 0.6396	-1.7264	-1.0867	 1.0067	-1.8288	-0.8221	61.5721	99.8774	
   181	 0.2808	-1.5154	-1.2347	 0.6289	-1.7860	-1.1571	 0.9961	-1.9052	-0.9091	61.7213	99.8752	
   182	 0.3501	-1.5648	-1.2148	 0.7310	-1.8292	-1.0981	 1.1380	-1.9553	-0.8173	62.0584	99.8756	
   183	 0.4194	-1.6142	-1.1948	 0.8301	-1.8078	-0.9776	 1.2469	-1.8520	-0.6051	61.6103	99.8744	
   184	 0.4506	-1.2574	-0.8069	 1.0278	-1.3282	-0.3003	 1.6189	-1.2932	 0.3258	61.4126	99.8756	
   185	 1.0243	-0.7353	 0.2889	 1.6986	-0.7693	 0.9294	 2.2526	-0.8021	 1.4506	61.6225	99.8975	
   186	 1.5279	-0.4253	 1.1025	 2.1936	-0.4511	 1.7426	 2.7276	-0.5384	 2.1892	61.7981	99.9053	
   187	 1.6885	-0.3111	 1.3772	 2.3526	-0.3664	 1.9863	 2.8602	-0.4435	 2.4167	61.8016	99.9036	
   188	 1.8144	-0.2336	 1.5806	 2.4599	-0.3268	 2.1332	 2.9444	-0.4486	 2.4958	62.0454	99.9055	
   189	 1.6989	-0.2740	 1.4248	 2.3163	-0.3887	 1.9276	 2.7889	-0.5231	 2.2658	62.0275	99.9039	
   190	 1.6338	-0.2834	 1.3504	 2.2099	-0.4145	 1.7954	 2.6279	-0.5895	 2.0384	61.9479	99.9082	
   191	 1.5804	-0.3623	 1.2179	 2.0709	-0.5134	 1.5576	 2.4074	-0.7397	 1.6678	61.7977	99.9125	
   192	 1.4020	-0.5028	 0.8991	 1.8567	-0.6983	 1.1585	 2.1478	-0.9376	 1.2102	61.8126	99.9109	
   193	 1.0569	-0.7306	 0.3261	 1.4571	-0.9446	 0.5126	 1.8213	-1.1428	 0.6785	61.7420	99.8954	
   194	 0.7800	-1.0239	-0.2440	 1.2569	-1.2401	 0.0169	 1.7476	-1.3633	 0.3843	62.1357	99.8810	
   195	 0.9345	-1.2510	-0.3166	 1.4354	-1.5145	-0.0790	 1.8380	-1.6664	 0.1716	62.6409	99.8882	
   196	 1.0429	-1.4452	-0.4025	 1.3643	-1.7571	-0.3927	 1.7162	-1.8822	-0.1661	62.3335	99.8707	
   197	 0.8896	-1.4475	-0.5580	 1.2631	-1.7002	-0.4370	 1.6718	-1.8173	-0.1454	62.2481	99.8751	
   198	 0.8655	-1.4470	-0.5817	 1.2404	-1.7274	-0.4869	 1.5462	-1.8962	-0.3499	62.2721	99.8874	
   199	 0.8120	-1.5260	-0.7141	 1.1797	-1.8046	-0.6248	 1.4994	-1.9721	-0.4727	62.3223	99.8856	
   200	 0.8099	-1.5580	-0.7481	 1.1852	-1.8276	-0.6423	 1.5097	-2.0004	-0.4906	62.3773	99.8873	
   201	 0.8666	-1.5538	-0.6873	 1.2617	-1.8335	-0.5717	 1.5703	-1.9971	-0.4268	62.4339	99.8879	
   202	 0.8887	-1.5862	-0.6976	 1.2865	-1.8845	-0.5980	 1.5785	-2.0616	-0.4831	62.5881	99.8891	
   203	 0.7450	-1.6900	-0.9452	 1.1257	-1.9968	-0.8710	 1.4271	-2.1684	-0.7413	62.5776	99.8854	
   204	 0.5298	-1.7764	-1.2467	 0.8885	-2.1032	-1.2146	 1.2221	-2.2624	-1.0403	62.5671	99.8773	
   205	 0.3976	-1.8271	-1.4296	 0.7193	-2.1279	-1.4085	 1.1072	-2.2649	-1.1578	62.3535	99.8697	
   206	 0.3724	-1.8426	-1.4703	 0.7966	-2.1200	-1.3233	 1.2327	-2.1860	-0.9533	62.3899	99.8668	
   207	 0.3754	-1.6720	-1.2967	 0.9438	-1.7776	-0.8336	 1.5306	-1.7550	-0.2244	61.9555	99.8725	
   208	 0.9364	-0.9736	-0.0374	 1.6339	-1.0211	 0.6129	 2.2853	-1.0602	 1.2252	62.2427	99.8905	
   209	 1.4043	-0.7162	 0.6880	 2.1028	-0.7853	 1.3176	 2.6048	-0.8710	 1.7338	62.1854	99.9054	
   210	 1.6015	-0.5335	 1.0680	 2.3115	-0.5772	 1.7343	 2.8463	-0.6728	 2.1735	62.2089	99.9072	
   211	 1.7285	-0.4400	 1.2884	 2.4277	-0.5056	 1.9222	 2.9641	-0.6220	 2.3421	62.3625	99.9067	
   212	 1.7778	-0.4250	 1.3527	 2.4059	-0.5190	 1.8870	 2.8762	-0.6772	 2.1990	62.2829	99.9090	
   213	 1.6204	-0.4912	 1.1291	 2.2097	-0.6399	 1.5699	 2.6133	-0.8309	 1.7824	62.2972	99.9100	
   214	 1.5375	-0.5268	 1.0105	 2.0879	-0.6884	 1.3996	 2.4522	-0.8973	 1.5550	62.1715	99.9112	
   215	 1.5354	-0.5588	 0.9765	 2.0063	-0.7653	 1.2411	 2.2883	-1.0119	 1.2764	62.0783	99.9123	
   216	 1.2564	-0.7613	 0.4950	 1.6194	-1.0301	 0.5894	 1.9422	-1.2410	 0.7013	61.9900	99.8921	
   217	 1.0120	-1.0498	-0.0379	 1.4620	-1.3126	 0.1495	 1.9708	-1.4668	 0.5040	62.6581	99.8763	
   218	 1.1436	-1.3832	-0.2397	 1.6182	-1.7200	-0.1017	 2.0532	-1.9027	 0.1505	63.4268	99.8795	
   219	 1.1879	-1.5709	-0.3831	 1.5159	-1.9022	-0.3862	 1.9413	-2.0542	-0.1129	63.0356	99.8657	
   220	 1.1889	-1.5549	-0.3661	 1.5377	-1.8888	-0.3509	 1.8911	-2.0858	-0.1947	63.0773	99.8790	
   221	 1.0882	-1.6169	-0.5288	 1.4078	-1.9556	-0.5477	 1.7315	-2.1280	-0.3965	62.7979	99.8758	
   222	 0.9748	-1.6253	-0.6506	 1.3313	-1.9497	-0.6183	 1.6968	-2.1034	-0.4067	62.8091	99.8741	
   223	 0.9275	-1.6083	-0.6809	 1.3048	-1.9263	-0.6213	 1.6606	-2.1030	-0.4424	62.8611	99.8801	
   224	 0.8856	-1.6342	-0.7487	 1.2458	-1.9758	-0.7299	 1.5601	-2.1661	-0.6060	62.8459	99.8815	
   225	 0.7670	-1.7225	-0.9556	 1.1005	-2.0654	-0.9648	 1.4770	-2.2415	-0.7645	62.8996	99.8720	
   226	 0.6180	-1.7835	-1.1656	 0.9415	-2.1501	-1.2085	 1.2993	-2.2835	-0.9842	62.6747	99.8647	
   227	 0.4459	-1.8281	-1.3823	 0.8231	-2.1435	-1.3203	 1.2598	-2.2387	-0.9790	62.5911	99.8626	
   228	 0.3493	-1.8262	-1.4770	 0.7928	-2.0694	-1.2765	 1.2504	-2.0937	-0.8432	62.1404	99.8649	
   229	 0.2943	-1.4303	-1.1361	 0.8491	-1.5046	-0.6554	 1.4388	-1.4760	-0.0373	61.4433	99.8743	
   230	 0.8198	-0.9073	-0.0876	 1.3934	-0.9573	 0.4362	 1.9276	-0.9831	 0.9445	61.3230	99.8898	
   231	 1.1764	-0.6263	 0.5500	 1.7619	-0.6507	 1.1113	 2.2167	-0.6969	 1.5198	61.0820	99.9018	
   232	 1.3800	-0.4704	 0.9095	 1.9825	-0.4751	 1.5075	 2.4790	-0.5554	 1.9236	61.3145	99.9053	
   233	 1.4848	-0.3444	 1.1403	 2.1159	-0.3532	 1.7628	 2.6340	-0.3883	 2.2458	61.2399	99.9004	
   234	 1.5792	-0.2556	 1.3235	 2.1685	-0.2943	 1.8743	 2.6529	-0.3764	 2.2764	61.3222	99.9027	
   235	 1.5152	-0.2490	 1.2661	 2.0556	-0.3107	 1.7450	 2.4800	-0.4386	 2.0414	61.2339	99.9069	
   236	 1.3850	-0.2677	 1.1172	 1.8783	-0.3537	 1.5246	 2.2277	-0.5159	 1.7118	61.0345	99.9109	
   237	 1.2706	-0.2921	 0.9784	 1.7073	-0.4060	 1.3014	 1.9920	-0.6175	 1.3745	60.9338	99.9148	
   238	 1.1447	-0.3696	 0.7750	 1.5030	-0.5452	 0.9579	 1.7298	-0.7591	 0.9707	60.7737	99.9090	
   239	 0.7869	-0.5439	 0.2429	 1.1268	-0.7504	 0.3765	 1.4465	-0.9487	 0.4978	60.9722	99.8959	
   240	 0.5247	-0.8587	-0.3341	 0.9523	-1.0832	-0.1308	 1.4604	-1.2187	 0.2417	61.7529	99.8768	
   241	 0.7161	-1.1400	-0.4240	 1.2120	-1.4003	-0.1883	 1.6893	-1.5276	 0.1617	62.4394	99.8792	
   242	 0.9398	-1.2938	-0.3541	 1.2965	-1.6133	-0.3168	 1.7179	-1.7534	-0.0355	62.5086	99.8685	
   243	 0.9703	-1.3211	-0.3509	 1.3157	-1.6413	-0.3255	 1.7353	-1.7657	-0.0304	62.4555	99.8657	
   244	 0.9304	-1.3150	-0.3847	 1.2674	-1.6313	-0.3638	 1.6692	-1.7609	-0.0917	62.3430	99.8678	
   245	 0.8412	-1.3239	-0.4828	 1.1636	-1.6157	-0.4520	 1.5299	-1.7671	-0.2372	62.1169	99.8752	
   246	 0.7771	-1.3172	-0.5402	 1.1281	-1.6243	-0.4961	 1.5055	-1.7708	-0.2653	62.2269	99.8742	
   247	 0.7436	-1.3379	-0.5944	 1.0781	-1.6419	-0.5637	 1.4623	-1.7864	-0.3241	62.1702	99.8724	
   248	 0.6113	-1.3886	-0.7774	 0.9281	-1.6945	-0.7664	 1.2650	-1.8523	-0.5873	61.9876	99.8766	
   249	 0.3805	-1.4694	-1.0890	 0.6716	-1.7730	-1.1012	 0.9891	-1.9212	-0.9321	61.6968	99.8754	
   250	 0.2188	-1.4768	-1.2581	 0.4968	-1.7746	-1.2777	 0.7962	-1.9147	-1.1185	61.4133	99.8756	
   251	 0.0225	-1.5209	-1.4985	 0.2849	-1.8124	-1.5275	 0.5704	-1.9520	-1.3816	61.1779	99.8762	
   252	-0.1265	-1.5819	-1.7085	 0.1712	-1.8427	-1.6714	 0.5113	-1.9311	-1.4198	61.0393	99.8709	
   253	-0.2189	-1.5161	-1.7351	 0.0879	-1.7217	-1.6337	 0.4107	-1.7970	-1.3863	60.5606	99.8777	
   254	-0.3022	-1.1836	-1.4859	 0.1134	-1.2024	-1.0889	 0.5916	-1.1028	-0.5112	59.3898	99.8713	
   255	 0.3657	-0.3274	 0.0382	 0.9340	-0.2596	 0.6745	 1.4471	-0.2401	 1.2070	59.5946	99.8983	
   256	 0.9071	-0.0554	 0.8516	 1.4110	-0.0055	 1.4056	 1.8315	 0.0247	 1.8562	59.2927	99.8986	
   257	 1.1819	 0.2058	 1.3876	 1.7013	 0.2794	 1.9807	 2.1728	 0.2739	 2.4467	59.4974	99.9019	
   258	 1.2113	 0.2852	 1.4964	 1.7039	 0.3207	 2.0247	 2.1255	 0.2907	 2.4161	59.4679	99.9032	
   259	 1.0748	 0.2933	 1.3680	 1.5291	 0.3191	 1.8483	 1.9304	 0.2610	 2.1914	59.3300	99.9044	
   260	 0.9645	 0.3329	 1.2973	 1.3688	 0.3264	 1.6953	 1.6866	 0.2238	 1.9104	59.1104	99.9094	
   261	 0.8112	 0.3306	 1.1417	 1.1505	 0.2979	 1.4484	 1.4147	 0.1227	 1.5374	59.0374	99.9145	
   262	 0.5719	 0.2447	 0.8165	 0.8850	 0.1874	 1.0725	 1.0981	-0.0182	 1.0799	58.9220	99.9176	
   263	 0.2540	 0.0643	 0.3182	 0.5426	-0.0368	 0.5059	 0.7960	-0.2196	 0.5764	58.9916	99.9068	
   264	-0.0838	-0.1744	-0.2582	 0.2733	-0.3220	-0.0486	 0.6861	-0.4397	 0.2464	59.6114	99.8868	
   265	-0.1276	-0.4776	-0.6053	 0.3308	-0.6312	-0.3003	 0.8559	-0.7277	 0.1282	60.4991	99.8811	
   266	 0.1907	-0.6653	-0.4747	 0.5465	-0.8694	-0.3228	 0.9492	-0.9826	-0.0334	60.5459	99.8804	
   267	 0.2706	-0.8003	-0.5298	 0.5071	-1.0527	-0.5455	 0.8769	-1.1789	-0.3020	60.5473	99.8705	
   268	 0.2623	-0.9282	-0.6659	 0.4830	-1.2133	-0.7301	 0.8549	-1.3437	-0.4888	60.7990	99.8658	
   269	 0.2257	-0.9968	-0.7712	 0.4287	-1.2997	-0.8709	 0.7655	-1.4231	-0.6576	60.7246	99.8646	
   270	 0.1113	-1.0212	-0.9100	 0.3223	-1.3255	-1.0031	 0.6673	-1.4500	-0.7827	60.7200	99.8644	
   271	 0.0619	-1.0362	-0.9744	 0.2659	-1.3338	-1.0678	 0.6011	-1.4451	-0.8440	60.5534	99.8638	
   272	-0.0189	-1.0399	-1.0589	 0.1894	-1.3279	-1.1384	 0.5161	-1.4521	-0.9359	60.4922	99.8677	
   273	-0.0829	-1.0333	-1.1163	 0.1275	-1.3130	-1.1855	 0.3957	-1.4465	-1.0508	60.2558	99.8752	
   274	-0.1134	-1.0060	-1.1195	 0.1100	-1.2575	-1.1475	 0.3868	-1.3941	-1.0073	60.1577	99.8789	
   275	-0.0956	-0.9797	-1.0754	 0.1399	-1.2259	-1.0859	 0.4182	-1.3743	-0.9562	60.2169	99.8817	
   276	-0.1439	-0.9787	-1.1227	 0.0972	-1.2389	-1.1417	 0.3757	-1.3778	-1.0021	60.2144	99.8794	
   277	-0.2257	-0.9984	-1.2243	 0.0326	-1.2654	-1.2327	 0.3457	-1.3734	-1.0276	60.2271	99.8731	
   278	-0.2573	-0.9871	-1.2445	 0.0279	-1.2286	-1.2005	 0.4233	-1.2898	-0.8666	60.2162	99.8648	
   279	-0.2038	-0.9082	-1.1121	 0.1323	-1.1245	-0.9922	 0.5691	-1.1750	-0.6058	60.3094	99.8665	
   280	-0.1188	-0.8405	-0.9594	 0.2131	-1.0615	-0.8484	 0.6445	-1.1276	-0.4831	60.3651	99.8683	
   281	-0.1104	-0.8354	-0.9459	 0.1913	-1.0749	-0.8836	 0.5957	-1.1350	-0.5393	60.2413	99.8655	
   282	-0.1399	-0.7921	-0.9321	 0.1828	-0.9874	-0.8046	 0.6267	-1.0227	-0.3960	60.0587	99.8655	
   283	-0.1273	-0.7230	-0.8504	 0.2097	-0.8913	-0.6814	 0.6499	-0.9385	-0.2886	59.9630	99.8715	
   284	-0.1924	-0.7324	-0.9249	 0.1469	-0.8902	-0.7432	 0.5775	-0.9375	-0.3601	59.8517	99.8736	
   285	-0.3142	-0.7459	-1.0602	 0.0495	-0.8840	-0.8344	 0.5205	-0.8804	-0.3599	59.6642	99.8677	
   286	-0.4318	-0.6956	-1.1275	-0.0035	-0.8371	-0.8405	 0.4991	-0.8359	-0.3368	59.8437	99.8699	
   287	-0.4066	-0.6801	-1.0868	-0.0099	-0.8278	-0.8376	 0.4858	-0.8558	-0.3700	59.8807	99.8711	
   288	-0.4675	-0.7482	-1.2158	-0.1351	-0.9314	-1.0665	 0.2660	-0.9939	-0.7279	59.7051	99.8749	
   289	-0.6679	-0.8562	-1.5242	-0.3360	-1.0154	-1.3514	 0.0758	-1.0438	-0.9680	59.4326	99.8721	
   290	-0.5472	-0.7359	-1.2833	-0.1855	-0.8432	-1.0286	 0.2818	-0.8331	-0.5513	59.2831	99.8705	
   291	-0.3679	-0.5795	-0.9475	 0.0124	-0.6948	-0.6823	 0.4890	-0.7029	-0.2139	59.4669	99.8727	
   292	-0.3396	-0.5160	-0.8557	 0.0449	-0.6217	-0.5767	 0.5192	-0.6026	-0.0834	59.2706	99.8710	
   293	-0.2956	-0.4582	-0.7539	 0.1467	-0.5591	-0.4123	 0.6481	-0.5680	 0.0801	59.6132	99.8770	
   294	-0.1476	-0.4132	-0.5608	 0.2257	-0.5236	-0.2978	 0.6817	-0.5121	 0.1696	59.2791	99.8723	
   295	-0.1172	-0.3177	-0.4351	 0.2664	-0.4323	-0.1658	 0.7168	-0.4320	 0.2847	59.2849	99.8747	
   296	 0.0654	-0.2360	-0.1708	 0.4198	-0.3245	 0.0954	 0.8061	-0.3526	 0.4535	59.0633	99.8842	
   297	 0.0621	-0.1613	-0.0992	 0.4186	-0.2325	 0.1862	 0.8120	-0.2561	 0.5559	58.9177	99.8851	
   298	-0.0009	-0.1387	-0.1396	 0.3575	-0.2039	 0.1538	 0.7465	-0.2391	 0.5074	58.8592	99.8876	
   299	-0.0796	-0.1104	-0.1902	 0.2546	-0.1745	 0.0801	 0.6527	-0.1936	 0.4590	58.6430	99.8834	
   300	-0.1017	-0.0780	-0.1798	 0.2362	-0.1328	 0.1035	 0.6430	-0.1533	 0.4898	58.5968	99.8841	
   301	-0.1238	-0.0455	-0.1694	 0.1888	-0.1090	 0.0799	 0.5839	-0.1324	 0.4515	58.4759	99.8828	
   302	-0.1794	-0.0337	-0.2133	 0.1324	-0.1173	 0.0152	 0.5177	-0.1275	 0.3903	58.4136	99.8800	
   303	-0.2120	-0.0384	-0.2505	 0.0760	-0.1255	-0.0495	 0.4801	-0.1512	 0.3289	58.4566	99.8781	
   304	-0.2456	-0.0591	-0.3048	 0.0195	-0.1338	-0.1141	 0.4077	-0.1502	 0.2574	58.2325	99.8779	
   305	-0.2855	-0.0530	-0.3385	-0.0151	-0.1286	-0.1435	 0.3722	-0.1377	 0.2345	58.1797	99.8774	
   306	-0.3243	-0.0308	-0.3553	-0.0488	-0.1096	-0.1583	 0.3374	-0.1131	 0.2243	58.1269	99.8769	
   307	-0.3307	-0.0040	-0.3348	-0.0680	-0.0817	-0.1496	 0.3152	-0.0806	 0.2346	58.0180	99.8758	
   308	-0.3527	 0.0284	-0.3244	-0.0800	-0.0493	-0.1292	 0.3174	-0.0444	 0.2730	58.0282	99.8750	
   309	-0.3108	 0.0542	-0.2566	-0.0556	 0.0055	-0.0500	 0.3684	-0.0007	 0.3676	57.9891	99.8758	
   310	-0.2835	 0.1017	-0.1819	-0.0120	 0.0323	 0.0205	 0.3831	 0.0434	 0.4265	57.9365	99.8753	
   311	-0.2814	 0.1337	-0.1479	-0.0167	 0.0692	 0.0527	 0.3798	 0.0877	 0.4675	57.8347	99.8744	
   312	-0.2962	 0.1553	-0.1409	-0.0431	 0.0927	 0.0496	 0.3450	 0.1123	 0.4573	57.7224	99.8743	
   313	-0.3350	 0.1774	-0.1577	-0.0906	 0.1165	 0.0260	 0.3158	 0.1288	 0.4446	57.7224	99.8732	
   314	-0.3508	 0.1831	-0.1678	-0.0978	 0.1120	 0.0143	 0.2977	 0.1290	 0.4267	57.7189	99.8731	
   315	-0.3015	 0.1981	-0.1035	-0.0269	 0.1292	 0.1024	 0.3653	 0.1483	 0.5136	57.7856	99.8750	
   316	-0.2353	 0.2235	-0.0120	 0.0240	 0.1605	 0.1846	 0.4211	 0.1717	 0.5928	57.7891	99.8751	
   317	-0.2353	 0.2235	-0.0120	 0.0103	 0.1654	 0.1758	 0.3974	 0.1801	 0.5775	57.6769	99.8750	
   318	-0.2752	 0.2296	-0.0458	-0.0444	 0.1847	 0.1404	 0.3509	 0.2088	 0.5597	57.5191	99.8735	
   319	-0.3204	 0.2785	-0.0420	-0.0773	 0.2174	 0.1403	 0.3168	 0.2455	 0.5624	57.5191	99.8724	
   320	-0.3425	 0.3110	-0.0317	-0.1238	 0.2550	 0.1313	 0.2710	 0.2864	 0.5574	57.3539	99.8707	
   321	-0.3898	 0.3279	-0.0620	-0.1785	 0.2743	 0.0959	 0.2237	 0.3031	 0.5268	57.2976	99.8701	
   322	-0.3898	 0.3279	-0.0620	-0.1785	 0.2743	 0.0959	 0.2300	 0.3070	 0.5370	57.3013	99.8690	
   323	-0.3971	 0.3387	-0.0585	-0.2123	 0.2933	 0.0811	 0.1882	 0.3156	 0.5038	57.1810	99.8699	
   324	-0.4444	 0.3557	-0.0888	-0.2678	 0.2988	 0.0311	 0.1283	 0.3244	 0.4528	57.1169	99.8680	
   325	-0.4843	 0.3618	-0.1226	-0.3097	 0.2995	-0.0100	 0.0803	 0.3291	 0.4094	57.0565	99.8674	
   326	-0.5158	 0.3731	-0.1428	-0.3507	 0.3140	-0.0366	 0.0448	 0.3416	 0.3864	56.9998	99.8667	
   327	-0.5557	 0.3792	-0.1766	-0.3853	 0.3192	-0.0660	 0.0031	 0.3502	 0.3533	56.9431	99.8673	
   328	-0.5630	 0.3901	-0.1731	-0.3844	 0.3330	-0.0513	 0.0156	 0.3581	 0.3737	57.0037	99.8680	
   329	-0.5630	 0.3901	-0.1731	-0.3917	 0.3285	-0.0631	-0.0143	 0.3625	 0.3482	56.8863	99.8678	
   330	-0.5946	 0.4014	-0.1933	-0.4327	 0.3430	-0.0896	-0.0498	 0.3751	 0.3253	56.8295	99.8672	
   331	-0.6261	 0.4126	-0.2135	-0.4601	 0.3527	-0.1073	-0.0845	 0.3997	 0.3151	56.7237	99.8662	
   332	-0.6240	 0.4446	-0.1795	-0.4712	 0.3989	-0.0722	-0.0886	 0.4319	 0.3433	56.6708	99.8679	
   333	-0.6471	 0.4611	-0.1861	-0.4985	 0.4085	-0.0899	-0.1241	 0.4445	 0.3203	56.6099	99.8672	
   334	-0.6629	 0.4667	-0.1962	-0.5186	 0.4227	-0.0958	-0.1352	 0.4607	 0.3255	56.5610	99.8667	
   335	-0.6618	 0.4827	-0.1792	-0.5177	 0.4364	-0.0812	-0.1463	 0.4770	 0.3306	56.5041	99.8673	
   336	-0.6849	 0.4992	-0.1858	-0.5515	 0.4554	-0.0960	-0.1811	 0.5016	 0.3205	56.3941	99.8661	
   337	-0.7238	 0.5213	-0.2026	-0.5715	 0.4695	-0.1019	-0.2158	 0.5262	 0.3104	56.3412	99.8668	
   338	-0.7543	 0.5486	-0.2058	-0.5980	 0.4930	-0.1049	-0.2387	 0.5466	 0.3079	56.3412	99.8668	
   339	-0.7774	 0.5651	-0.2124	-0.6382	 0.5213	-0.1168	-0.2735	 0.5712	 0.2977	56.2311	99.8668	
   340	-0.7921	 0.5867	-0.2055	-0.6373	 0.5350	-0.1022	-0.2720	 0.5953	 0.3233	56.2395	99.8658	
   341	-0.7197	 0.5852	-0.1345	-0.5279	 0.4964	-0.0314	-0.1615	 0.5255	 0.3640	56.7198	99.8684	
   342	-0.6997	 0.5208	-0.1789	-0.6006	 0.4516	-0.1489	-0.3015	 0.5071	 0.2056	56.0741	99.8660	
   343	-0.8709	 0.6149	-0.2560	-0.8232	 0.5796	-0.2435	-0.5359	 0.6269	 0.0911	55.5058	99.8680	
   344	-0.8301	 0.7475	-0.0827	-0.8282	 0.7223	-0.1059	-0.5515	 0.7680	 0.2166	55.1763	99.8669	
   345	-0.7976	 0.8749	 0.0772	-0.9286	 0.7929	-0.1356	-0.6642	 0.8017	 0.1375	54.9741	99.8560	
   346	-0.8165	 0.8326	 0.0160	-1.0030	 0.7206	-0.2823	-0.7606	 0.7063	-0.0543	54.9604	99.8530	
   347	-0.9560	 0.6700	-0.2861	-1.2116	 0.5126	-0.6990	-1.0286	 0.4682	-0.5605	54.8827	99.8513	
   348	-1.2812	 0.5004	-0.7809	-1.5506	 0.3435	-1.2070	-1.3703	 0.3115	-1.0588	54.6526	99.8484	
   349	-1.5121	 0.4197	-1.0925	-1.7570	 0.2826	-1.4743	-1.5369	 0.2533	-1.2836	54.6576	99.8485	
   350	-1.6339	 0.4061	-1.2279	-1.8216	 0.2561	-1.5654	-1.5975	 0.2500	-1.3474	54.7329	99.8483	
   351	-1.5919	 0.4319	-1.1601	-1.7562	 0.2964	-1.4597	-1.4852	 0.3090	-1.1762	54.8477	99.8450	
   352	-1.4953	 0.4300	-1.0654	-1.6233	 0.2987	-1.3244	-1.3082	 0.3389	-0.9693	55.0798	99.8405	
   353	-1.6369	 0.2355	-1.4015	-1.7298	 0.0476	-1.6821	-1.4554	 0.0026	-1.4528	55.7558	99.8519	
   354	-2.0880	-0.0116	-2.0998	-2.2363	-0.1186	-2.3548	-1.9974	-0.0709	-2.0683	54.5320	99.8473	
   355	-1.9370	 0.0814	-1.8557	-2.0273	-0.0164	-2.0435	-1.7540	 0.0588	-1.6952	54.7382	99.8464	
   356	-1.9601	 0.0979	-1.8623	-2.0546	-0.0067	-2.0612	-1.8124	 0.0918	-1.7207	54.5041	99.8452	
   357	-2.1554	 0.1925	-1.9631	-2.1772	 0.1563	-2.0207	-1.7017	 0.3239	-1.3779	54.7098	99.8272	
   358	-1.8722	 0.4589	-1.4135	-1.7894	 0.4349	-1.3544	-1.3214	 0.6209	-0.7005	54.8896	99.8368	
   359	-1.5680	 0.6769	-0.8912	-1.5479	 0.6102	-0.9376	-1.1526	 0.7154	-0.4372	54.9923	99.8448	
   360	-1.4682	 0.6002	-0.8681	-1.5676	 0.5186	-1.0489	-1.1333	 0.6346	-0.4987	54.9003	99.8270	
   361	-1.1734	 0.7970	-0.3765	-1.1868	 0.6869	-0.4998	-0.8788	 0.7481	-0.1307	55.1735	99.8513	
   362	-1.3413	 0.6937	-0.6477	-1.4159	 0.5988	-0.8170	-1.0983	 0.7147	-0.3836	54.6560	99.8395	
   363	-1.5848	 0.6665	-0.9183	-1.5988	 0.5789	-1.0198	-1.2328	 0.6882	-0.5445	54.8418	99.8417	
   364	-1.5953	 0.6294	-0.9659	-1.7142	 0.5210	-1.1930	-1.4015	 0.5938	-0.8078	54.5662	99.8403	
   365	-1.6540	 0.5932	-1.0609	-1.8086	 0.4629	-1.3457	-1.4998	 0.5669	-0.9330	54.3728	99.8304	
   366	-1.6466	 0.5824	-1.0643	-1.8095	 0.4491	-1.3603	-1.5194	 0.5430	-0.9764	54.3523	99.8326	
   367	-1.6425	 0.6464	-0.9963	-1.7988	 0.5087	-1.2900	-1.5165	 0.5912	-0.9252	54.3523	99.8351	
   368	-1.5502	 0.7032	-0.8471	-1.6616	 0.5800	-1.0815	-1.3853	 0.6620	-0.7233	54.4526	99.8416	
   369	-1.5397	 0.7403	-0.7995	-1.6363	 0.6485	-0.9877	-1.3385	 0.7379	-0.6006	54.3850	99.8436	
   370	-1.6384	 0.7103	-0.9282	-1.7090	 0.6038	-1.1051	-1.3880	 0.7184	-0.6696	54.4543	99.8383	
   371	-1.7013	 0.6102	-1.0912	-1.7496	 0.5124	-1.2371	-1.3624	 0.6416	-0.7208	54.7098	99.8325	
   372	-1.7621	 0.5420	-1.2201	-1.7804	 0.4670	-1.3134	-1.3820	 0.6177	-0.7643	54.6807	99.8337	
   373	-1.7611	 0.5580	-1.2031	-1.7578	 0.4942	-1.2635	-1.3506	 0.6374	-0.7132	54.7539	99.8371	
   374	-1.6949	 0.5834	-1.1117	-1.7159	 0.4935	-1.2223	-1.3521	 0.6133	-0.7388	54.7636	99.8394	
   375	-1.7988	 0.4734	-1.3254	-1.9048	 0.3771	-1.5276	-1.5592	 0.4831	-1.0762	54.5119	99.8347	
   376	-1.8460	 0.4904	-1.3558	-1.9240	 0.4050	-1.5189	-1.5744	 0.5316	-1.0428	54.4289	99.8353	
   377	-1.8114	 0.5270	-1.2845	-1.8651	 0.4546	-1.4103	-1.4873	 0.5747	-0.9125	54.5772	99.8371	
   378	-1.6960	 0.5674	-1.1287	-1.7514	 0.4849	-1.2664	-1.4001	 0.6179	-0.7822	54.5283	99.8367	
   379	-1.6131	 0.6031	-1.0101	-1.6668	 0.4973	-1.1694	-1.3450	 0.6293	-0.7158	54.5723	99.8372	
   380	-1.5795	 0.6238	-0.9558	-1.6650	 0.5248	-1.1401	-1.3491	 0.6615	-0.6876	54.4003	99.8352	
   381	-1.5533	 0.6552	-0.8981	-1.6479	 0.5751	-1.0727	-1.3337	 0.7177	-0.6159	54.2486	99.8361	
   382	-1.5428	 0.6924	-0.8505	-1.6188	 0.5930	-1.0257	-1.3141	 0.7416	-0.5725	54.3077	99.8356	
   383	-1.5334	 0.7135	-0.8200	-1.6098	 0.6251	-0.9847	-1.2875	 0.7815	-0.5060	54.2743	99.8341	
   384	-1.4904	 0.7554	-0.7351	-1.5444	 0.6654	-0.8790	-1.2129	 0.8168	-0.3961	54.4072	99.8357	
   385	-1.4400	 0.7864	-0.6538	-1.4936	 0.6967	-0.7968	-1.1634	 0.8363	-0.3271	54.4659	99.8377	
   386	-1.3991	 0.7962	-0.6030	-1.4782	 0.7194	-0.7586	-1.1564	 0.8523	-0.3041	54.3484	99.8388	
   387	-1.3981	 0.8122	-0.5860	-1.4773	 0.7332	-0.7440	-1.1619	 0.8604	-0.3015	54.3433	99.8399	
   388	-1.3813	 0.8225	-0.5589	-1.4547	 0.7604	-0.6941	-1.1306	 0.8802	-0.2504	54.3586	99.8426	
   389	-1.3141	 0.8639	-0.4504	-1.3820	 0.8052	-0.5767	-1.0678	 0.9196	-0.1481	54.3687	99.8453	
   390	-1.2480	 0.8892	-0.3589	-1.3166	 0.8455	-0.4710	-0.9987	 0.9630	-0.0357	54.3354	99.8463	
   391	-1.1903	 0.9094	-0.2810	-1.2247	 0.8623	-0.3623	-0.8886	 0.9858	 0.0971	54.5358	99.8462	
   392	-1.1578	 0.9141	-0.2438	-1.1892	 0.8709	-0.3182	-0.8517	 0.9974	 0.1457	54.5457	99.8464	
   393	-1.1735	 0.9197	-0.2539	-1.2029	 0.8758	-0.3270	-0.8328	 1.0092	 0.1764	54.6187	99.8424	
   394	-1.1903	 0.9094	-0.2810	-1.2110	 0.8575	-0.3534	-0.8454	 1.0013	 0.1559	54.6187	99.8412	
   395	-1.2312	 0.8996	-0.3318	-1.2529	 0.8582	-0.3946	-0.8628	 1.0136	 0.1508	54.5802	99.8384	
   396	-1.2302	 0.9155	-0.3148	-1.2238	 0.8761	-0.3476	-0.8188	 1.0412	 0.2224	54.6627	99.8383	
   397	-1.1809	 0.9306	-0.2504	-1.1602	 0.8888	-0.2712	-0.7283	 1.0401	 0.3118	54.8986	99.8386	
   398	-1.1095	 0.9131	-0.1964	-1.0909	 0.8785	-0.2124	-0.6629	 1.0231	 0.3602	54.9563	99.8404	
   399	-1.0780	 0.9018	-0.1762	-1.0645	 0.8550	-0.2093	-0.6581	 1.0029	 0.3449	54.9421	99.8402	
   400	-1.0706	 0.8910	-0.1797	-1.0517	 0.8364	-0.2151	-0.6532	 0.9827	 0.3295	54.9903	99.8407	
   401	-1.0632	 0.8802	-0.1831	-1.0525	 0.8226	-0.2298	-0.6421	 0.9665	 0.3243	55.0433	99.8388	
   402	-1.0485	 0.8586	-0.1901	-1.0461	 0.8133	-0.2327	-0.6311	 0.9502	 0.3192	55.0433	99.8400	
   403	-1.0401	 0.8637	-0.1765	-1.0051	 0.7988	-0.2062	-0.6011	 0.9458	 0.3447	55.1586	99.8402	
   404	-0.9446	 0.8458	-0.0989	-0.9149	 0.7881	-0.1267	-0.4877	 0.9242	 0.4366	55.3358	99.8397	
   405	-0.8973	 0.8289	-0.0686	-0.8675	 0.7643	-0.1031	-0.4522	 0.9117	 0.4595	55.3358	99.8385	
   406	-0.9067	 0.8077	-0.0991	-0.8684	 0.7505	-0.1178	-0.4474	 0.8915	 0.4441	55.3933	99.8404	
   407	-0.8994	 0.7969	-0.1026	-0.8620	 0.7412	-0.1207	-0.4300	 0.8792	 0.4492	55.4507	99.8398	
   408	-0.8910	 0.8021	-0.0890	-0.8410	 0.7409	-0.1001	-0.4174	 0.8871	 0.4697	55.4552	99.8399	
   409	-0.8668	 0.8016	-0.0654	-0.8137	 0.7312	-0.0824	-0.3993	 0.8869	 0.4875	55.4552	99.8387	
   410	-0.8501	 0.8119	-0.0382	-0.7919	 0.7446	-0.0472	-0.3450	 0.8862	 0.5411	55.6314	99.8383	
   411	-0.8028	 0.7950	-0.0079	-0.7381	 0.7115	-0.0264	-0.3047	 0.8534	 0.5487	55.7325	99.8382	
   412	-0.8049	 0.7630	-0.0420	-0.7462	 0.6933	-0.0528	-0.2936	 0.8372	 0.5436	55.7413	99.8371	
   413	-0.8059	 0.7470	-0.0590	-0.7471	 0.6795	-0.0675	-0.2881	 0.8291	 0.5410	55.7456	99.8359	
   414	-0.7902	 0.7414	-0.0489	-0.7334	 0.6747	-0.0586	-0.2644	 0.8207	 0.5563	55.8027	99.8353	
   415	-0.7975	 0.7522	-0.0454	-0.7133	 0.6605	-0.0527	-0.2581	 0.8246	 0.5665	55.8597	99.8336	
   416	-0.7891	 0.7573	-0.0319	-0.7124	 0.6743	-0.0380	-0.2338	 0.8284	 0.5946	55.9210	99.8330	
   417	-0.7586	 0.7301	-0.0287	-0.6796	 0.6415	-0.0379	-0.2060	 0.7877	 0.5817	56.0220	99.8341	
   418	-0.7869	 0.6666	-0.1204	-0.7548	 0.5554	-0.1993	-0.3393	 0.6807	 0.3414	55.8961	99.8357	
   419	-0.8803	 0.5938	-0.2866	-0.8519	 0.4559	-0.3959	-0.4538	 0.5856	 0.1318	55.9144	99.8331	
   420	-0.8928	 0.5247	-0.3682	-0.8989	 0.3739	-0.5249	-0.5195	 0.4979	-0.0216	55.8751	99.8310	
   421	-0.9788	 0.4410	-0.5379	-0.9951	 0.2881	-0.7069	-0.6026	 0.4224	-0.1801	55.8620	99.8268	
   422	-1.0460	 0.3997	-0.6464	-1.0460	 0.2568	-0.7891	-0.6137	 0.4387	-0.1750	55.7904	99.8186	
   423	-1.0187	 0.4472	-0.5717	-0.9789	 0.3246	-0.6541	-0.4937	 0.5257	 0.0321	55.9091	99.8167	
   424	-0.9453	 0.4617	-0.4836	-0.9079	 0.3418	-0.5660	-0.4205	 0.5368	 0.1163	55.9706	99.8175	
   425	-0.9369	 0.4669	-0.4701	-0.8870	 0.3415	-0.5454	-0.4080	 0.5447	 0.1368	55.9749	99.8177	
   426	-0.9389	 0.4349	-0.5041	-0.8759	 0.2953	-0.5805	-0.3928	 0.4962	 0.1035	56.1336	99.8169	
   427	-0.8833	 0.4231	-0.4603	-0.8195	 0.3036	-0.5158	-0.3078	 0.5032	 0.1954	56.2117	99.8167	
   428	-0.8633	 0.3587	-0.5047	-0.8238	 0.2346	-0.5890	-0.3192	 0.4148	 0.0956	56.2924	99.8173	
   429	-0.8863	 0.2525	-0.6339	-0.8243	 0.1151	-0.7091	-0.3202	 0.2980	-0.0222	56.5000	99.8170	
   430	-0.9303	 0.1947	-0.7357	-0.8615	 0.0789	-0.7825	-0.3294	 0.2458	-0.0836	56.6139	99.8197	
   431	-1.0048	 0.1641	-0.8408	-0.9260	 0.0524	-0.8735	-0.4096	 0.2186	-0.1909	56.5489	99.8228	
   432	-1.0320	 0.1167	-0.9155	-0.9585	-0.0207	-0.9791	-0.4446	 0.1386	-0.3060	56.6878	99.8202	
   433	-1.1066	 0.0861	-1.0205	-1.0141	-0.0151	-1.0291	-0.4856	 0.1592	-0.3264	56.5489	99.8228	
   434	-1.0541	 0.1491	-0.9051	-0.9487	 0.0252	-0.9234	-0.4361	 0.1787	-0.2574	56.7038	99.8258	
   435	-0.9450	 0.2163	-0.7288	-0.8687	 0.0744	-0.7942	-0.3789	 0.2263	-0.1526	56.6388	99.8236	
   436	-0.7960	 0.2773	-0.5188	-0.7615	 0.1140	-0.6474	-0.2946	 0.2212	-0.0735	56.7702	99.8260	
   437	-0.7403	 0.2656	-0.4749	-0.7076	 0.0809	-0.6266	-0.2599	 0.1966	-0.0633	56.8155	99.8238	
   438	-0.7414	 0.2496	-0.4919	-0.7149	 0.0764	-0.6384	-0.2599	 0.1966	-0.0633	56.7662	99.8233	
   439	-0.7403	 0.2656	-0.4749	-0.6995	 0.0992	-0.6003	-0.2396	 0.2326	-0.0070	56.7290	99.8231	
   440	-0.7068	 0.2862	-0.4206	-0.6495	 0.1167	-0.5327	-0.1957	 0.2602	 0.0645	56.7409	99.8234	
   441	-0.6900	 0.2966	-0.3935	-0.6204	 0.1346	-0.4857	-0.1643	 0.2799	 0.1156	56.7529	99.8250	
   442	-0.7078	 0.2702	-0.4377	-0.6149	 0.1115	-0.5033	-0.1469	 0.2676	 0.1207	56.8217	99.8247	
   443	-0.7025	 0.2275	-0.4752	-0.6303	 0.0888	-0.5414	-0.1372	 0.2272	 0.0900	56.8746	99.8253	
   444	-0.7349	 0.1001	-0.6350	-0.6052	-0.0680	-0.6731	-0.1231	 0.0620	-0.0611	57.2945	99.8287	
   445	-0.8650	-0.0414	-0.9065	-0.7249	-0.1948	-0.9196	-0.2383	-0.0453	-0.2836	57.2340	99.8279	
   446	-0.8797	-0.0197	-0.8995	-0.7240	-0.1810	-0.9049	-0.2549	-0.0209	-0.2758	57.1810	99.8286	
   447	-0.9091	 0.0235	-0.8857	-0.8317	-0.1148	-0.9463	-0.3696	 0.0812	-0.2883	56.5776	99.8202	
   448	-0.7340	 0.2388	-0.4954	-0.6602	 0.0571	-0.6030	-0.2159	 0.2242	 0.0082	56.7409	99.8208	
   449	-0.6070	 0.2095	-0.3975	-0.6526	-0.0442	-0.6967	-0.3363	 0.0325	-0.3038	56.7529	99.8268	
   450	-0.5807	 0.2410	-0.3398	-0.5927	 0.0192	-0.5735	-0.2225	 0.1156	-0.1069	56.8132	99.8257	
   451	-0.5554	 0.1338	-0.4217	-0.6360	-0.1135	-0.7493	-0.3247	-0.0764	-0.4011	56.8869	99.8305	
   452	-0.6845	 0.0084	-0.6762	-0.7339	-0.2268	-0.9606	-0.3738	-0.1885	-0.5623	57.1190	99.8294	
   453	-0.6980	-0.0767	-0.7748	-0.7181	-0.3099	-1.0279	-0.3601	-0.2611	-0.6212	57.2348	99.8308	
   454	-0.7882	-0.2243	-1.0126	-0.7831	-0.4560	-1.2390	-0.4398	-0.3809	-0.8207	57.2271	99.8306	
   455	-0.8668	-0.3188	-1.1857	-0.8575	-0.5283	-1.3857	-0.4497	-0.4452	-0.8949	57.3580	99.8259	
   456	-0.8290	-0.3569	-1.1859	-0.8054	-0.5890	-1.3943	-0.3990	-0.5062	-0.9053	57.5737	99.8244	
   457	-0.8761	-0.4626	-1.3388	-0.8824	-0.7026	-1.5849	-0.5024	-0.6176	-1.1200	57.4825	99.8228	
   458	-0.8499	-0.4311	-1.2811	-0.8025	-0.6534	-1.4558	-0.3790	-0.5749	-0.9540	57.7463	99.8265	
   459	-0.8782	-0.4946	-1.3729	-0.8696	-0.7213	-1.5908	-0.4732	-0.6341	-1.1073	57.5515	99.8238	
   460	-0.9023	-0.4941	-1.3965	-0.8687	-0.7075	-1.5761	-0.4537	-0.6102	-1.0639	57.5737	99.8244	
   461	-0.9611	-0.5303	-1.4915	-0.9487	-0.7567	-1.7053	-0.5416	-0.6654	-1.2070	57.5478	99.8224	
   462	-0.9548	-0.5571	-1.5119	-0.9085	-0.7850	-1.6934	-0.4769	-0.6944	-1.1713	57.7858	99.8228	
   463	-0.9180	-0.6112	-1.5292	-0.8773	-0.8453	-1.7226	-0.4624	-0.7550	-1.2174	57.8291	99.8231	
   464	-0.9190	-0.6271	-1.5462	-0.8709	-0.8546	-1.7255	-0.4380	-0.7513	-1.1893	57.8434	99.8208	
   465	-0.9032	-0.6328	-1.5361	-0.8509	-0.8688	-1.7195	-0.4081	-0.7557	-1.1638	57.9044	99.8177	
   466	-0.8875	-0.6384	-1.5260	-0.8299	-0.8691	-1.6989	-0.3734	-0.7803	-1.1537	58.0696	99.8209	
   467	-0.8748	-0.6920	-1.5670	-0.8325	-0.9105	-1.7429	-0.3999	-0.8202	-1.2202	57.9477	99.8233	
   468	-0.8748	-0.6920	-1.5670	-0.8188	-0.9153	-1.7340	-0.3700	-0.8247	-1.1947	58.0661	99.8222	
   469	-0.9535	-0.7865	-1.7401	-0.9031	-1.0335	-1.9364	-0.4205	-0.9609	-1.3814	58.3763	99.8174	
   470	-0.9996	-0.8763	-1.8760	-0.8955	-1.1348	-2.0301	-0.3628	-1.0059	-1.3688	58.5774	99.8070	
   471	-0.8442	-0.8420	-1.6864	-0.6664	-1.0467	-1.7129	-0.0659	-0.8890	-0.9548	58.7700	99.8098	
   472	-0.7466	-0.8280	-1.5747	-0.4971	-1.0219	-1.5189	 0.1292	-0.8593	-0.7301	59.0804	99.8145	
   473	-0.6973	-0.8130	-1.5104	-0.4279	-1.0323	-1.4601	 0.1883	-0.8802	-0.6918	59.2917	99.8156	
   474	-0.6732	-0.8134	-1.4867	-0.4142	-1.0371	-1.4513	 0.1862	-0.9164	-0.7302	59.3832	99.8203	
   475	-0.7487	-0.8600	-1.6087	-0.5578	-1.0991	-1.6568	-0.0495	-1.0180	-1.0675	59.0974	99.8272	
   476	-0.7109	-0.8981	-1.6090	-0.4403	-1.1195	-1.5597	 0.1504	-1.0085	-0.8581	59.4806	99.8238	
   477	-0.0751	-0.4146	-0.4898	 0.2403	-0.5146	-0.2743	 0.9280	-0.3341	 0.5940	59.1190	99.8247	
   478	 0.4587	 0.1136	 0.5722	 0.7935	 0.0647	 0.8584	 1.4128	 0.1911	 1.6039	58.8654	99.8477	
   479	 0.5173	 0.2724	 0.7897	 0.8257	 0.2436	 1.0693	 1.4230	 0.3601	 1.7831	58.5576	99.8514	
   480	 0.6117	 0.3612	 0.9729	 0.9629	 0.3148	 1.2778	 1.5645	 0.4026	 1.9671	58.8831	99.8563	
   481	 0.5814	 0.2658	 0.8471	 0.9205	 0.1960	 1.1166	 1.4951	 0.2545	 1.7496	59.0562	99.8588	
   482	 0.6601	 0.2376	 0.8976	 1.0081	 0.1439	 1.1521	 1.5680	 0.1610	 1.7290	59.4053	99.8633	
   483	 0.7232	 0.2150	 0.9380	 1.1239	 0.0959	 1.2199	 1.7232	 0.1308	 1.8540	59.7945	99.8588	
   484	 0.9814	 0.2205	 1.2018	 1.3926	 0.0362	 1.4289	 1.9206	-0.0006	 1.9200	60.3870	99.8678	
   485	 0.7413	-0.1268	 0.6144	 0.9745	-0.3937	 0.5809	 1.2898	-0.4434	 0.8464	59.7564	99.8650	
   486	-0.0025	-0.6615	-0.6640	 0.1383	-1.0281	-0.8897	 0.4893	-1.0974	-0.6082	60.0625	99.8441	
   487	-0.6277	-1.1078	-1.7356	-0.3558	-1.3325	-1.6882	 0.2765	-1.2195	-0.9430	59.9126	99.8185	
   488	-0.4001	-0.9523	-1.3524	-0.2233	-1.2243	-1.4475	 0.2669	-1.1791	-0.9122	59.6832	99.8285	
   489	-0.4179	-0.9786	-1.3966	-0.2840	-1.3015	-1.5854	 0.2145	-1.2469	-1.0324	59.7686	99.8157	
   490	-0.3590	-1.0651	-1.4242	-0.3255	-1.4066	-1.7320	 0.1558	-1.3186	-1.1628	59.4658	99.8002	
   491	-0.1796	-0.9087	-1.0884	-0.0703	-1.2361	-1.3063	 0.4417	-1.1854	-0.7437	59.8921	99.8121	
   492	 0.0355	-0.8223	-0.7869	 0.2058	-1.0660	-0.8601	 0.5897	-1.0343	-0.4446	59.4775	99.8442	
   493	 0.1446	-0.7551	-0.6106	 0.3614	-1.0364	-0.6750	 0.9840	-1.0072	-0.0232	60.5716	99.8202	
   494	 0.4070	-0.6857	-0.2788	 0.7169	-0.9366	-0.2196	 1.2879	-0.8742	 0.4137	60.5608	99.8330	
   495	 0.7838	-0.5918	 0.1919	 1.0452	-0.8272	 0.2181	 1.5502	-0.7326	 0.8175	60.2017	99.8329	
   496	 0.8942	-0.7541	 0.1400	 1.0305	-1.0615	-0.0309	 1.3021	-1.0395	 0.2627	59.9667	99.8458	
   497	 0.5950	-0.7694	-0.1745	 0.8109	-0.9980	-0.1870	 1.1853	-0.9735	 0.2118	59.9604	99.8517	
   498	 0.5100	-0.8371	-0.3272	 0.6865	-1.0879	-0.4013	 1.0221	-1.0761	-0.0541	59.8678	99.8511	
   499	 0.1816	-1.0546	-0.8731	 0.2578	-1.3520	-1.0942	 0.5848	-1.3161	-0.7313	59.5794	99.8339	
   500	-0.0986	-1.1504	-1.2490	 0.0150	-1.4353	-1.4202	 0.4717	-1.3871	-0.9153	59.8787	99.8237	
   501	-0.1930	-1.2392	-1.4322	-0.1111	-1.5528	-1.6638	 0.3259	-1.5020	-1.1761	59.8465	99.8184	
   502	-0.3031	-1.3223	-1.6255	-0.1701	-1.6024	-1.7724	 0.3684	-1.4985	-1.1301	59.9509	99.8089	
   503	-0.1489	-1.1814	-1.3304	 0.1069	-1.4185	-1.3115	 0.6997	-1.3135	-0.6139	60.2932	99.8205	
   504	-0.0409	-1.1302	-1.1711	 0.2278	-1.3837	-1.1558	 0.7680	-1.2822	-0.5142	60.2883	99.8255	
   505	-0.0808	-1.1240	-1.2049	 0.1787	-1.3875	-1.2087	 0.7226	-1.3340	-0.6114	60.4858	99.8299	
   506	-0.1405	-1.1762	-1.3168	 0.0706	-1.4409	-1.3702	 0.6062	-1.3606	-0.7544	60.2030	99.8223	
   507	-0.1868	-1.1433	-1.3301	 0.0176	-1.3940	-1.3763	 0.6099	-1.3003	-0.6904	60.1674	99.8158	
   508	-0.1931	-1.1165	-1.3097	 0.0548	-1.3578	-1.3029	 0.6372	-1.2483	-0.6111	60.1295	99.8198	
   509	-0.1376	-1.0055	-1.1432	 0.3061	-1.3620	-1.0559	 0.7401	-1.0443	-0.3042	59.8017	99.8067	
   510	-0.0043	-0.9388	-0.9432	 0.2801	-1.2190	-0.9389	 0.8798	-1.1306	-0.2508	60.5236	99.8198	
   511	 0.0231	-1.0141	-0.9911	 0.2822	-1.2973	-1.0150	 0.8363	-1.2509	-0.4145	60.6013	99.8276	
   512	-0.1290	-1.1231	-1.2522	 0.1005	-1.4092	-1.3086	 0.7170	-1.3258	-0.6088	60.5483	99.8125	
   513	-0.1143	-1.1447	-1.2591	 0.1043	-1.4598	-1.3554	 0.7252	-1.3904	-0.6651	60.7512	99.8091	
   514	-0.1205	-1.2406	-1.3612	 0.0393	-1.6059	-1.5665	 0.5646	-1.5493	-0.9847	60.6427	99.8086	
   515	-0.2370	-1.2970	-1.5341	-0.1317	-1.6582	-1.7898	 0.4154	-1.6199	-1.2045	60.5677	99.8042	
   516	-0.2024	-1.2603	-1.4628	-0.1236	-1.6400	-1.7634	 0.3814	-1.5832	-1.2018	60.3375	99.8010	
   517	-0.1090	-1.1875	-1.2966	-0.0137	-1.5590	-1.5726	 0.5118	-1.5245	-1.0127	60.5163	99.8051	
   518	-0.0597	-1.1725	-1.2323	 0.0355	-1.5552	-1.5197	 0.5779	-1.5294	-0.9515	60.6824	99.8031	
   519	-0.0356	-1.1730	-1.2086	 0.0346	-1.5690	-1.5343	 0.5702	-1.5575	-0.9873	60.7246	99.8017	
   520	-0.0671	-1.1617	-1.2288	 0.0201	-1.5780	-1.5578	 0.5576	-1.5654	-1.0078	60.8324	99.8002	
   521	-0.0114	-1.1734	-1.1850	 0.0957	-1.5977	-1.5019	 0.6348	-1.5865	-0.9516	61.0007	99.8011	
   522	 0.0348	-1.2064	-1.1717	 0.1286	-1.6304	-1.5017	 0.7051	-1.6236	-0.9185	61.1685	99.7963	
   523	 0.0569	-1.2388	-1.1820	 0.1615	-1.6632	-1.5016	 0.7524	-1.6403	-0.8880	61.2306	99.7931	
   524	 0.0632	-1.2656	-1.2025	 0.1597	-1.6907	-1.5309	 0.7439	-1.6805	-0.9366	61.2781	99.7949	
   525	 0.0622	-1.2816	-1.2195	 0.1725	-1.7093	-1.5367	 0.7613	-1.6928	-0.9315	61.3360	99.7943	
   526	 0.0937	-1.2929	-1.1993	 0.2426	-1.7059	-1.4632	 0.8422	-1.6536	-0.8114	61.3028	99.7934	
   527	 0.1504	-1.2887	-1.1384	 0.3063	-1.6932	-1.3868	 0.9201	-1.6626	-0.7425	61.4691	99.7971	
   528	 0.1000	-1.3197	-1.2198	 0.2418	-1.7197	-1.4778	 0.8644	-1.6861	-0.8217	61.4117	99.7948	
   529	-0.0490	-1.3808	-1.4299	 0.1490	-1.7503	-1.6012	 0.7982	-1.6812	-0.8830	61.3231	99.7960	
   530	-0.1792	-1.3995	-1.5788	 0.0589	-1.7396	-1.6807	 0.7029	-1.6598	-0.9569	61.1697	99.8028	
   531	-0.2590	-1.3872	-1.6463	-0.0031	-1.7248	-1.7278	 0.6500	-1.6350	-0.9850	61.1207	99.8024	
   532	-0.2506	-1.3821	-1.6327	 0.0123	-1.7020	-1.6896	 0.6696	-1.6111	-0.9415	61.0740	99.8049	
   533	-0.2180	-1.3774	-1.5955	 0.0550	-1.6890	-1.6338	 0.7010	-1.5914	-0.8904	61.0252	99.8072	
   534	-0.2023	-1.3830	-1.5854	 0.0614	-1.6983	-1.6367	 0.7010	-1.5914	-0.8904	60.9701	99.8051	
   535	-0.2012	-1.3670	-1.5684	 0.0486	-1.6797	-1.6309	 0.7135	-1.5835	-0.8699	61.0252	99.8031	
   536	-0.1928	-1.3619	-1.5548	 0.0632	-1.6707	-1.6074	 0.7143	-1.5714	-0.8571	60.9722	99.8052	
   537	-0.1918	-1.3459	-1.5378	 0.0640	-1.6569	-1.5928	 0.7150	-1.5593	-0.8443	60.9722	99.8052	
   538	-0.1834	-1.3407	-1.5242	 0.0713	-1.6524	-1.5810	 0.7157	-1.5473	-0.8315	60.9192	99.8046	
   539	-0.1425	-1.3309	-1.4735	 0.1140	-1.6394	-1.5252	 0.7763	-1.5440	-0.7677	61.0316	99.8048	
   540	-0.1089	-1.3102	-1.4192	 0.1495	-1.6308	-1.4812	 0.8014	-1.5282	-0.7268	61.0316	99.8034	
   541	-0.0921	-1.2999	-1.3921	 0.1440	-1.6077	-1.4636	 0.8022	-1.5162	-0.7140	60.9765	99.8041	
   542	-0.0911	-1.2839	-1.3751	 0.1376	-1.5984	-1.4607	 0.7785	-1.5078	-0.7293	60.9170	99.8045	
   543	-0.1152	-1.2834	-1.3987	 0.1166	-1.5980	-1.4813	 0.7667	-1.5036	-0.7369	60.9192	99.8032	
   544	-0.0901	-1.2679	-1.3581	 0.1393	-1.5708	-1.4314	 0.7744	-1.4755	-0.7011	60.8132	99.8061	
   545	-0.0565	-1.2472	-1.3038	 0.1538	-1.5618	-1.4079	 0.7744	-1.4755	-0.7011	60.8043	99.8056	
   546	-0.0733	-1.2576	-1.3309	 0.1594	-1.5849	-1.4255	 0.7918	-1.4878	-0.6960	60.9170	99.8031	
   547	-0.0649	-1.2524	-1.3174	 0.1602	-1.5712	-1.4108	 0.7807	-1.4716	-0.6909	60.8088	99.8045	
   548	-0.0481	-1.2421	-1.2903	 0.1684	-1.5529	-1.3844	 0.7759	-1.4514	-0.6755	60.7004	99.8058	
   549	-0.0303	-1.2157	-1.2461	 0.1628	-1.5298	-1.3669	 0.7696	-1.4553	-0.6857	60.7444	99.8074	
   550	-0.0638	-1.2364	-1.3004	 0.1265	-1.5522	-1.4256	 0.7389	-1.4630	-0.7241	60.6912	99.8040	
   551	-0.1132	-1.2514	-1.3647	 0.0974	-1.5701	-1.4726	 0.7389	-1.4630	-0.7241	60.7557	99.7997	
   552	-0.1132	-1.2514	-1.3647	 0.1265	-1.5522	-1.4256	 0.7766	-1.4393	-0.6627	60.7692	99.8031	
   553	-0.0376	-1.2049	-1.2427	 0.1855	-1.5026	-1.3170	 0.8080	-1.4196	-0.6116	60.7602	99.8095	
   554	-0.0450	-1.1941	-1.2392	 0.1773	-1.5209	-1.3434	 0.7711	-1.4312	-0.6601	60.7489	99.8076	
   555	-0.0964	-1.2411	-1.3376	 0.1329	-1.5615	-1.4285	 0.7578	-1.4512	-0.6934	60.7580	99.8025	
   556	-0.1121	-1.2354	-1.3477	 0.1555	-1.5343	-1.3786	 0.8198	-1.4238	-0.6040	60.8860	99.8049	
   557	-0.0691	-1.1936	-1.2629	 0.1991	-1.5074	-1.3082	 0.8457	-1.3959	-0.5503	60.8838	99.8048	
   558	-0.0765	-1.1828	-1.2594	 0.1791	-1.4933	-1.3141	 0.8346	-1.3797	-0.5451	60.8310	99.8028	
   559	-0.0513	-1.1673	-1.2187	 0.1872	-1.4750	-1.2877	 0.8486	-1.3477	-0.4991	60.7277	99.7989	
   560	-0.0503	-1.1513	-1.2017	 0.1881	-1.4612	-1.2731	 0.8556	-1.3316	-0.4760	60.7299	99.7976	
   561	-0.0902	-1.1452	-1.2355	 0.1381	-1.4788	-1.3406	 0.8061	-1.3511	-0.5450	60.7737	99.7935	
   562	-0.1573	-1.1865	-1.3440	 0.0380	-1.5139	-1.4758	 0.6890	-1.3899	-0.7009	60.5966	99.7935	
   563	-0.2056	-1.1856	-1.3913	-0.0248	-1.5128	-1.5375	 0.5789	-1.4126	-0.8337	60.4667	99.8009	
   564	-0.2046	-1.1696	-1.3743	-0.0376	-1.4942	-1.5317	 0.5449	-1.3760	-0.8311	60.2488	99.7995	
   565	-0.1112	-1.0968	-1.2081	 0.0877	-1.3906	-1.3028	 0.7451	-1.2618	-0.5167	60.4014	99.7974	
   566	-0.0011	-1.0136	-1.0148	 0.2322	-1.3148	-1.0825	 0.8825	-1.1870	-0.3046	60.5236	99.8008	
   567	 0.0493	-0.9826	-0.9334	 0.2403	-1.2965	-1.0562	 0.8525	-1.1826	-0.3301	60.3966	99.8013	
   568	-0.0682	-1.0549	-1.1233	 0.0539	-1.3716	-1.3176	 0.5814	-1.2717	-0.6903	59.9667	99.8054	
   569	-0.0829	-1.0333	-1.1163	-0.0016	-1.3660	-1.3676	 0.4783	-1.2785	-0.8002	59.7740	99.8063	
   570	-0.0158	-0.9920	-1.0079	 0.1373	-1.2672	-1.1298	 0.6903	-1.1685	-0.4781	59.9448	99.8115	
   571	 0.1574	-0.9314	-0.7741	 0.3164	-1.1966	-0.8801	 0.8931	-1.1107	-0.2176	60.1270	99.8130	
   572	 0.2392	-0.9117	-0.6726	 0.3728	-1.1884	-0.8155	 0.9530	-1.1195	-0.1665	60.2279	99.8113	
   573	 0.2067	-0.9164	-0.7098	 0.3083	-1.2149	-0.9065	 0.9050	-1.1149	-0.2099	60.1169	99.7988	
   574	 0.1815	-0.9319	-0.7505	 0.2237	-1.2273	-1.0035	 0.8388	-1.1100	-0.2712	59.8943	99.7887	
   575	 0.1658	-0.9262	-0.7606	 0.1809	-1.2403	-1.0593	 0.7845	-1.1093	-0.3248	59.7746	99.7824	
   576	 0.1490	-0.9366	-0.7877	 0.1108	-1.2438	-1.1328	 0.7121	-1.1084	-0.3963	59.5450	99.7775	
   577	 0.1175	-0.9253	-0.8079	 0.0899	-1.2434	-1.1534	 0.7065	-1.1002	-0.3937	59.6039	99.7740	
   578	 0.1175	-0.9253	-0.8079	 0.0626	-1.2337	-1.1711	 0.6648	-1.0916	-0.4269	59.4326	99.7744	
   579	 0.0933	-0.9248	-0.8316	 0.0207	-1.2330	-1.2123	 0.6230	-1.0831	-0.4600	59.3201	99.7713	
   580	 0.0618	-0.9135	-0.8518	-0.0203	-1.2185	-1.2388	 0.5931	-1.0786	-0.4856	59.3172	99.7712	
   581	 0.0534	-0.9187	-0.8653	-0.0413	-1.2182	-1.2594	 0.5757	-1.0663	-0.4906	59.2103	99.7683	
   582	 0.0303	-0.9022	-0.8720	-0.0622	-1.2178	-1.2800	 0.5576	-1.0661	-0.5085	59.2608	99.7659	
   583	 0.0387	-0.8970	-0.8584	-0.0686	-1.2085	-1.2771	 0.5639	-1.0622	-0.4983	59.2608	99.7643	
   584	 0.0471	-0.8919	-0.8449	-0.0887	-1.1944	-1.2830	 0.5214	-1.0656	-0.5442	59.1360	99.7682	
   585	-0.0516	-0.9219	-0.9735	-0.2041	-1.2522	-1.4562	 0.3241	-1.1315	-0.8074	58.9228	99.7730	
   586	-0.2804	-0.9707	-1.2511	-0.3951	-1.2904	-1.6854	 0.1904	-1.1459	-0.9555	58.9414	99.7677	
   587	-0.3948	-0.9951	-1.3899	-0.5024	-1.3300	-1.8323	 0.0907	-1.1970	-1.1063	59.0369	99.7671	
   588	-0.5333	-1.0190	-1.5524	-0.5870	-1.3424	-1.9293	 0.0559	-1.1724	-1.1165	59.0703	99.7625	
   589	-0.5071	-0.9875	-1.4947	-0.5353	-1.2972	-1.8324	 0.1124	-1.1369	-1.0244	59.1390	99.7684	
   590	-0.4819	-0.9720	-1.4540	-0.5272	-1.2790	-1.8061	 0.1194	-1.1209	-1.0014	59.0824	99.7675	
   591	-0.5040	-0.9395	-1.4436	-0.5255	-1.2514	-1.7768	 0.1153	-1.0886	-0.9732	59.0884	99.7693	
   592	-0.4946	-0.9184	-1.4131	-0.5310	-1.2283	-1.7592	 0.1042	-1.0723	-0.9681	59.0288	99.7699	
   593	-0.5019	-0.9076	-1.4096	-0.5374	-1.2190	-1.7563	 0.1050	-1.0603	-0.9553	59.0318	99.7685	
   594	-0.4852	-0.8972	-1.3825	-0.5365	-1.2052	-1.7417	 0.0939	-1.0440	-0.9501	58.9185	99.7684	
   595	-0.4841	-0.8812	-1.3655	-0.5211	-1.1825	-1.7035	 0.1072	-1.0241	-0.9169	58.9246	99.7716	
   596	-0.4841	-0.8812	-1.3655	-0.5429	-1.1959	-1.7388	 0.0695	-1.0477	-0.9782	58.9061	99.7709	
   597	-0.6016	-0.9536	-1.5553	-0.6955	-1.2899	-1.9854	-0.1244	-1.1580	-1.2824	58.8022	99.7711	
   598	-0.7486	-0.9827	-1.7313	-0.8011	-1.3019	-2.1029	-0.1703	-1.1171	-1.2874	58.7323	99.7622	
   599	-0.6038	-0.8628	-1.4668	-0.6241	-1.1532	-1.7772	 0.0369	-0.9869	-0.9500	58.8834	99.7700	
   600	-0.4789	-0.8013	-1.2804	-0.5241	-1.1180	-1.6420	 0.0934	-0.9514	-0.8580	58.8144	99.7687	
   601	-0.4706	-0.7962	-1.2668	-0.5378	-1.1132	-1.6509	 0.0927	-0.9635	-0.8708	58.8617	99.7675	
   602	-0.5377	-0.8375	-1.3753	-0.6314	-1.1576	-1.7889	-0.0551	-1.0099	-1.0649	58.6086	99.7708	
   603	-0.3719	-0.7661	-1.1381	-0.4997	-1.0633	-1.5629	 0.0720	-0.9069	-0.8349	58.4062	99.7700	
   604	-0.1484	-0.6746	-0.8230	-0.3890	-0.9686	-1.3574	 0.2533	-0.8045	-0.5512	58.3120	99.7490	
   605	 0.0154	-0.6351	-0.6199	-0.3535	-0.9600	-1.3134	 0.2903	-0.7929	-0.5026	58.1131	99.7291	
   606	 0.0217	-0.6619	-0.6404	-0.4326	-0.9954	-1.4279	 0.2024	-0.8481	-0.6458	57.9595	99.7222	
   607	-0.0371	-0.6981	-0.7353	-0.5181	-1.0216	-1.5395	 0.1104	-0.8711	-0.7607	57.7786	99.7208	
   608	-0.0854	-0.6972	-0.7826	-0.5535	-1.0302	-1.5836	 0.0679	-0.8746	-0.8067	57.7750	99.7207	
   609	-0.1337	-0.6962	-0.8299	-0.6027	-1.0339	-1.6365	 0.0136	-0.8739	-0.8603	57.7133	99.7196	
   610	-0.1746	-0.7060	-0.8807	-0.6446	-1.0332	-1.6777	-0.0108	-0.8776	-0.8884	57.7169	99.7197	
   611	-0.2145	-0.6999	-0.9145	-0.6728	-1.0373	-1.7100	-0.0352	-0.8813	-0.9165	57.7713	99.7188	
   612	-0.2239	-0.7211	-0.9451	-0.7082	-1.0459	-1.7541	-0.0777	-0.8848	-0.9625	57.5970	99.7177	
   613	-0.3131	-0.7299	-1.0432	-0.7582	-1.0635	-1.8216	-0.1523	-0.9201	-1.0724	57.6949	99.7271	
   614	-0.4192	-0.7492	-1.1684	-0.8300	-1.0945	-1.9244	-0.2513	-0.9591	-1.2103	57.7348	99.7339	
   615	-0.5262	-0.7844	-1.3107	-0.9301	-1.1296	-2.0595	-0.3691	-1.0099	-1.3790	57.7127	99.7395	
   616	-0.6574	-0.8191	-1.4766	-1.0519	-1.1781	-2.2299	-0.5051	-1.0605	-1.5655	57.6906	99.7403	
   617	-0.7644	-0.8543	-1.6189	-1.1656	-1.2084	-2.3739	-0.6033	-1.0874	-1.6907	57.6281	99.7376	
   618	-0.8526	-0.8472	-1.6999	-1.1993	-1.1894	-2.3886	-0.5712	-1.0556	-1.6268	57.8405	99.7353	
   619	-0.8359	-0.8369	-1.6728	-1.1502	-1.1857	-2.3357	-0.5162	-1.0442	-1.5604	57.9677	99.7359	
   620	-0.8684	-0.8416	-1.7100	-1.1502	-1.1857	-2.3357	-0.4910	-1.0284	-1.5195	58.0470	99.7345	
   621	-0.8663	-0.8096	-1.6760	-1.1202	-1.1540	-2.2741	-0.4582	-0.9846	-1.4428	58.0645	99.7353	
   622	-0.8411	-0.7941	-1.6353	-1.0903	-1.1223	-2.2125	-0.4323	-0.9567	-1.3891	58.0172	99.7397	
   623	-0.7582	-0.7584	-1.5167	-1.0176	-1.0775	-2.0950	-0.3766	-0.9333	-1.3098	58.0137	99.7459	
   624	-0.7089	-0.7434	-1.4524	-0.9822	-1.0689	-2.0510	-0.3758	-0.9212	-1.2970	57.8909	99.7471	
   625	-0.6995	-0.7222	-1.4218	-0.9732	-1.0369	-2.0099	-0.3618	-0.8892	-1.2510	57.8438	99.7482	
   626	-0.6334	-0.6969	-1.3303	-0.9223	-1.0055	-1.9277	-0.3186	-0.8736	-1.1922	57.8402	99.7512	
   627	-0.6397	-0.6701	-1.3099	-0.9214	-0.9918	-1.9131	-0.3171	-0.8495	-1.1666	57.8438	99.7482	
   628	-0.6387	-0.6541	-1.2929	-0.9133	-0.9735	-1.8867	-0.3046	-0.8416	-1.1462	57.9016	99.7506	
   629	-0.6303	-0.6489	-1.2793	-0.9125	-0.9597	-1.8721	-0.3094	-0.8214	-1.1308	57.7931	99.7508	
   630	-0.6208	-0.6278	-1.2487	-0.8834	-0.9418	-1.8251	-0.2954	-0.7894	-1.0848	57.7461	99.7520	
   631	-0.5873	-0.6071	-1.1945	-0.8744	-0.9098	-1.7840	-0.2703	-0.7736	-1.0439	57.7461	99.7519	
   632	-0.5705	-0.5968	-1.1673	-0.8671	-0.9053	-1.7723	-0.2814	-0.7574	-1.0387	57.6303	99.7502	
   633	-0.5778	-0.5859	-1.1639	-0.8599	-0.9008	-1.7606	-0.2695	-0.7615	-1.0311	57.7424	99.7518	
   634	-0.5611	-0.5756	-1.1368	-0.8517	-0.8825	-1.7342	-0.2625	-0.7455	-1.0081	57.6882	99.7526	
   635	-0.5359	-0.5601	-1.0961	-0.8509	-0.8688	-1.7195	-0.2673	-0.7253	-0.9927	57.5723	99.7493	
   636	-0.5758	-0.5540	-1.1299	-0.8718	-0.8684	-1.7401	-0.2973	-0.7209	-1.0182	57.5723	99.7509	
   637	-0.6241	-0.5530	-1.1772	-0.9210	-0.8722	-1.7930	-0.3342	-0.7325	-1.0667	57.6229	99.7499	
   638	-0.6566	-0.5577	-1.2144	-0.9419	-0.8718	-1.8136	-0.3571	-0.7121	-1.0692	57.5218	99.7488	
   639	-0.6556	-0.5417	-1.1974	-0.9474	-0.8487	-1.7961	-0.3439	-0.6921	-1.0360	57.5292	99.7475	
   640	-0.6304	-0.5262	-1.1567	-0.9111	-0.8263	-1.7373	-0.2951	-0.6847	-0.9798	57.6487	99.7509	
   641	-0.5968	-0.5055	-1.1025	-0.8748	-0.8040	-1.6786	-0.2755	-0.6608	-0.9363	57.5945	99.7533	
   642	-0.5958	-0.4896	-1.0854	-0.8739	-0.7902	-1.6640	-0.2748	-0.6487	-0.9235	57.5945	99.7533	
   643	-0.6031	-0.4787	-1.0820	-0.8730	-0.7764	-1.6493	-0.2796	-0.6285	-0.9082	57.5441	99.7543	
   644	-0.6021	-0.4628	-1.0650	-0.8794	-0.7671	-1.6464	-0.2789	-0.6165	-0.8954	57.5441	99.7512	
   645	-0.6095	-0.4519	-1.0615	-0.8722	-0.7626	-1.6347	-0.2844	-0.6083	-0.8928	57.5441	99.7528	
   646	-0.6011	-0.4468	-1.0479	-0.8850	-0.7440	-1.6289	-0.2900	-0.6002	-0.8902	57.4862	99.7534	
   647	-0.6084	-0.4360	-1.0445	-0.8705	-0.7350	-1.6054	-0.2649	-0.5844	-0.8493	57.5552	99.7532	
   648	-0.5833	-0.4205	-1.0038	-0.8487	-0.7216	-1.5702	-0.2516	-0.5645	-0.8161	57.5012	99.7525	
   649	-0.5990	-0.4148	-1.0139	-0.8615	-0.7030	-1.5644	-0.2320	-0.5406	-0.7726	57.5198	99.7500	
   650	-0.6064	-0.4040	-1.0105	-0.8606	-0.6892	-1.5497	-0.2431	-0.5243	-0.7674	57.4658	99.7524	
   651	-0.6379	-0.3927	-1.0307	-0.8751	-0.6982	-1.5732	-0.2682	-0.5401	-0.8083	57.5663	99.7536	
   652	-0.6463	-0.3979	-1.0442	-0.8961	-0.6978	-1.5938	-0.2863	-0.5399	-0.8262	57.5086	99.7528	
   653	-0.6946	-0.3969	-1.0915	-0.9452	-0.7016	-1.6467	-0.3281	-0.5313	-0.8594	57.4546	99.7489	
   654	-0.7345	-0.3908	-1.1253	-0.9653	-0.6874	-1.6526	-0.3385	-0.5030	-0.8414	57.4157	99.7488	
   655	-0.7261	-0.3856	-1.1118	-0.9499	-0.6647	-1.6145	-0.2952	-0.4874	-0.7827	57.4882	99.7502	
   656	-0.7418	-0.3799	-1.1219	-0.9708	-0.6644	-1.6351	-0.3015	-0.4914	-0.7929	57.5420	99.7477	
   657	-0.7723	-0.3527	-1.1250	-0.9683	-0.6230	-1.5912	-0.2930	-0.4512	-0.7443	57.5604	99.7531	
   658	-0.7051	-0.3113	-1.0166	-0.8892	-0.5875	-1.4766	-0.2428	-0.4197	-0.6625	57.5604	99.7578	
   659	-0.6800	-0.2958	-0.9759	-0.8746	-0.5786	-1.4531	-0.2546	-0.4155	-0.6701	57.4919	99.7596	
   660	-0.6967	-0.3062	-1.0030	-0.9101	-0.5872	-1.4972	-0.2853	-0.4231	-0.7084	57.4307	99.7571	
   661	-0.7293	-0.3108	-1.0402	-0.9383	-0.5913	-1.5295	-0.3090	-0.4148	-0.7237	57.3806	99.7550	
   662	-0.6947	-0.2742	-0.9690	-0.8866	-0.5462	-1.4327	-0.2587	-0.3832	-0.6419	57.4456	99.7607	
   663	-0.6611	-0.2535	-0.9147	-0.8575	-0.5283	-1.3857	-0.2399	-0.3714	-0.6113	57.4419	99.7621	
   664	-0.6852	-0.2530	-0.9384	-0.8994	-0.5276	-1.4269	-0.2761	-0.3709	-0.6470	57.3806	99.7596	
   665	-0.7503	-0.2624	-1.0128	-0.9421	-0.5407	-1.4827	-0.2998	-0.3626	-0.6623	57.3956	99.7556	
   666	-0.7409	-0.2413	-0.9823	-0.9267	-0.5179	-1.4446	-0.2990	-0.3505	-0.6495	57.3919	99.7600	
   667	-0.7493	-0.2464	-0.9958	-0.9686	-0.5172	-1.4857	-0.3408	-0.3419	-0.6827	57.2193	99.7560	
   668	-0.7724	-0.2300	-1.0025	-0.9678	-0.5034	-1.4711	-0.3408	-0.3419	-0.6827	57.3306	99.7606	
   669	-0.7231	-0.2149	-0.9381	-0.9323	-0.4948	-1.4270	-0.3164	-0.3382	-0.6546	57.3231	99.7603	
   670	-0.6895	-0.1943	-0.8839	-0.9242	-0.4766	-1.4006	-0.3275	-0.3219	-0.6494	57.2001	99.7599	
   671	-0.6811	-0.1891	-0.8703	-0.9169	-0.4721	-1.3889	-0.3205	-0.3059	-0.6264	57.1501	99.7578	
   672	-0.6801	-0.1731	-0.8533	-0.9224	-0.4490	-1.3713	-0.3072	-0.2860	-0.5932	57.1578	99.7565	
   673	-0.6874	-0.1623	-0.8498	-0.9288	-0.4397	-1.3684	-0.3246	-0.2737	-0.5982	57.1001	99.7572	
   674	-0.7200	-0.1670	-0.8871	-0.9780	-0.4435	-1.4214	-0.3552	-0.2813	-0.6366	57.0962	99.7539	
   675	-0.7683	-0.1660	-0.9344	-0.9917	-0.4386	-1.4302	-0.3420	-0.2614	-0.6033	57.1771	99.7525	
   676	-0.7431	-0.1505	-0.8937	-0.9626	-0.4207	-1.3832	-0.3168	-0.2456	-0.5624	57.1809	99.7542	
   677	-0.7337	-0.1294	-0.8631	-0.9545	-0.4025	-1.3568	-0.3279	-0.2293	-0.5573	57.1195	99.7564	
   678	-0.7662	-0.1341	-0.9004	-0.9963	-0.4018	-1.3980	-0.3760	-0.2247	-0.6007	57.0042	99.7562	
   679	-0.8145	-0.1331	-0.9477	-1.0309	-0.3966	-1.4274	-0.4004	-0.2284	-0.6288	57.0619	99.7586	
   680	-0.8302	-0.1274	-0.9578	-1.0382	-0.4011	-1.4392	-0.4177	-0.2161	-0.6338	57.0081	99.7564	
   681	-0.8460	-0.1218	-0.9679	-1.0519	-0.3962	-1.4480	-0.4296	-0.2119	-0.6415	57.0081	99.7564	
   682	-0.8460	-0.1218	-0.9679	-1.0510	-0.3824	-1.4334	-0.4226	-0.1959	-0.6184	56.9623	99.7575	
   683	-0.8450	-0.1058	-0.9509	-1.0365	-0.3735	-1.4099	-0.4163	-0.1919	-0.6082	57.0160	99.7598	
   684	-0.8523	-0.0950	-0.9474	-1.0493	-0.3549	-1.4041	-0.4274	-0.1757	-0.6031	56.9623	99.7606	
   685	-0.8345	-0.0687	-0.9033	-1.0476	-0.3273	-1.3748	-0.4141	-0.1557	-0.5698	56.9623	99.7590	
   686	-0.8093	-0.0532	-0.8626	-1.0185	-0.3094	-1.3278	-0.4008	-0.1358	-0.5366	56.9086	99.7614	
   687	-0.7915	-0.0268	-0.8184	-0.9967	-0.2960	-1.2926	-0.3764	-0.1321	-0.5085	57.0160	99.7612	
   688	-0.7747	-0.0165	-0.7913	-0.9958	-0.2822	-1.2779	-0.3812	-0.1119	-0.4931	56.9046	99.7597	
   689	-0.7663	-0.0113	-0.7778	-1.0022	-0.2729	-1.2750	-0.3805	-0.0998	-0.4803	56.8509	99.7574	
   690	-0.7495	-0.0010	-0.7506	-0.9877	-0.2639	-1.2515	-0.3798	-0.0877	-0.4675	56.7932	99.7581	
   691	-0.7726	 0.0155	-0.7573	-1.0014	-0.2591	-1.2604	-0.3971	-0.0754	-0.4726	56.7932	99.7567	
   692	-0.7643	 0.0206	-0.7437	-1.0142	-0.2405	-1.2546	-0.3916	-0.0836	-0.4752	56.8430	99.7586	
   693	-0.7726	 0.0155	-0.7573	-1.0424	-0.2446	-1.2869	-0.4334	-0.0750	-0.5083	56.6695	99.7561	
   694	-0.8042	 0.0268	-0.7775	-1.0697	-0.2349	-1.3046	-0.4452	-0.0708	-0.5160	56.7274	99.7554	
   695	-0.8199	 0.0324	-0.7876	-1.0762	-0.2256	-1.3017	-0.4507	-0.0627	-0.5134	56.7314	99.7571	
   696	-0.8199	 0.0324	-0.7876	-1.0762	-0.2256	-1.3017	-0.4563	-0.0545	-0.5108	56.6777	99.7564	
   697	-0.8514	 0.0437	-0.8078	-1.1035	-0.2160	-1.3194	-0.4862	-0.0501	-0.5363	56.6736	99.7578	
   698	-0.8756	 0.0442	-0.8315	-1.1244	-0.2156	-1.3400	-0.5099	-0.0418	-0.5516	56.6198	99.7571	
   699	-0.8913	 0.0498	-0.8416	-1.1172	-0.2111	-1.3282	-0.5091	-0.0297	-0.5388	56.6280	99.7590	
   700	-0.8987	 0.0607	-0.8381	-1.1236	-0.2018	-1.3253	-0.5202	-0.0135	-0.5337	56.5742	99.7583	
   701	-0.9144	 0.0663	-0.8482	-1.1372	-0.1970	-1.3342	-0.5140	-0.0095	-0.5235	56.6361	99.7562	
   702	-0.9144	 0.0663	-0.8482	-1.1501	-0.1784	-1.3283	-0.5132	 0.0026	-0.5107	56.5866	99.7571	
   703	-0.9134	 0.0823	-0.8312	-1.1218	-0.1743	-1.2960	-0.5062	 0.0186	-0.4876	56.5906	99.7589	
   704	-0.9291	 0.0879	-0.8413	-1.1556	-0.1553	-1.3108	-0.5299	 0.0269	-0.5029	56.5329	99.7595	
   705	-0.9449	 0.0936	-0.8514	-1.1556	-0.1553	-1.3108	-0.5299	 0.0269	-0.5029	56.5906	99.7603	
   706	-0.9606	 0.0992	-0.8615	-1.1620	-0.1460	-1.3079	-0.5528	 0.0474	-0.5054	56.4834	99.7621	
   707	-0.9523	 0.1044	-0.8479	-1.1684	-0.1367	-1.3050	-0.5465	 0.0513	-0.4952	56.4834	99.7605	
   708	-0.9596	 0.1152	-0.8445	-1.1675	-0.1229	-1.2903	-0.5458	 0.0634	-0.4824	56.4875	99.7621	
   709	-0.9512	 0.1204	-0.8309	-1.1603	-0.1184	-1.2786	-0.5513	 0.0715	-0.4798	56.4297	99.7628	
   710	-0.9586	 0.1312	-0.8275	-1.1739	-0.1136	-1.2874	-0.5632	 0.0757	-0.4875	56.4256	99.7612	
   711	-0.9670	 0.1260	-0.8410	-1.1876	-0.1088	-1.2963	-0.5750	 0.0799	-0.4951	56.3719	99.7620	
   712	-0.9911	 0.1265	-0.8647	-1.1949	-0.1132	-1.3080	-0.5805	 0.0880	-0.4926	56.3803	99.7608	
   713	-1.0153	 0.1270	-0.8884	-1.2222	-0.1036	-1.3257	-0.5798	 0.1000	-0.4798	56.3928	99.7581	
   714	-1.0468	 0.1383	-0.9086	-1.2350	-0.0850	-1.3199	-0.5791	 0.1121	-0.4670	56.4588	99.7607	
   715	-1.0058	 0.1482	-0.8578	-1.2060	-0.0671	-1.2729	-0.5658	 0.1321	-0.4337	56.3476	99.7622	
   716	-0.9639	 0.1740	-0.7900	-1.1624	-0.0402	-1.2025	-0.5170	 0.1395	-0.3775	56.4588	99.7652	
   717	-0.9135	 0.2050	-0.7086	-1.1260	-0.0178	-1.1438	-0.4975	 0.1634	-0.3341	56.3970	99.7642	
   718	-0.8799	 0.2257	-0.6544	-1.1179	 0.0004	-1.1174	-0.4967	 0.1755	-0.3213	56.3309	99.7631	
   719	-0.8883	 0.2205	-0.6679	-1.1324	-0.0085	-1.1409	-0.5148	 0.1757	-0.3391	56.2731	99.7608	
   720	-0.9125	 0.2210	-0.6916	-1.1534	-0.0082	-1.1614	-0.5267	 0.1799	-0.3468	56.2773	99.7594	
   721	-0.9198	 0.2318	-0.6881	-1.1662	 0.0105	-1.1556	-0.5315	 0.2001	-0.3314	56.2280	99.7588	
   722	-0.9345	 0.2534	-0.6812	-1.1517	 0.0194	-1.1321	-0.5245	 0.2161	-0.3084	56.2900	99.7599	
   723	-0.9262	 0.2586	-0.6677	-1.1371	 0.0284	-1.1087	-0.5001	 0.2198	-0.2803	56.3518	99.7608	
   724	-0.9178	 0.2638	-0.6541	-1.1435	 0.0377	-1.1058	-0.5175	 0.2321	-0.2854	56.2364	99.7607	
   725	-0.9178	 0.2638	-0.6541	-1.1563	 0.0563	-1.1000	-0.5167	 0.2442	-0.2726	56.1872	99.7615	
   726	-0.9251	 0.2746	-0.6506	-1.1491	 0.0608	-1.0882	-0.5278	 0.2604	-0.2674	56.1337	99.7625	
   727	-0.9325	 0.2854	-0.6472	-1.1691	 0.0749	-1.0942	-0.5278	 0.2604	-0.2674	56.1872	99.7615	
   728	-0.9398	 0.2962	-0.6437	-1.1619	 0.0794	-1.0824	-0.5326	 0.2806	-0.2520	56.1380	99.7611	
   729	-0.9398	 0.2962	-0.6437	-1.1683	 0.0887	-1.0795	-0.5326	 0.2806	-0.2520	56.1380	99.7625	
   730	-0.9388	 0.3122	-0.6267	-1.1610	 0.0932	-1.0678	-0.5256	 0.2966	-0.2290	56.1423	99.7597	
   731	-0.9304	 0.3174	-0.6131	-1.1401	 0.0928	-1.0472	-0.5138	 0.2925	-0.2214	56.1957	99.7619	
   732	-0.9304	 0.3174	-0.6131	-1.1538	 0.0976	-1.0560	-0.5312	 0.3048	-0.2264	56.0845	99.7604	
   733	-0.9378	 0.3282	-0.6097	-1.1529	 0.1114	-1.0414	-0.5249	 0.3087	-0.2162	56.1423	99.7627	
   734	-0.9294	 0.3334	-0.5961	-1.1593	 0.1207	-1.0385	-0.5360	 0.3249	-0.2111	56.0311	99.7612	
   735	-0.9367	 0.3442	-0.5927	-1.1520	 0.1252	-1.0267	-0.5297	 0.3289	-0.2008	56.0888	99.7621	
   736	-0.9451	 0.3390	-0.6062	-1.1730	 0.1256	-1.0473	-0.5534	 0.3373	-0.2161	55.9776	99.7605	
   737	-0.9525	 0.3498	-0.6028	-1.1858	 0.1442	-1.0415	-0.5534	 0.3373	-0.2161	56.0311	99.7626	
   738	-0.9525	 0.3498	-0.6028	-1.1794	 0.1349	-1.0444	-0.5478	 0.3291	-0.2187	56.0845	99.7619	
   739	-0.9682	 0.3555	-0.6129	-1.1930	 0.1397	-1.0533	-0.5715	 0.3375	-0.2340	56.0268	99.7626	
   740	-0.9840	 0.3611	-0.6230	-1.1930	 0.1397	-1.0533	-0.5708	 0.3496	-0.2212	56.0354	99.7614	
   741	-0.9840	 0.3611	-0.6230	-1.1994	 0.1490	-1.0503	-0.5756	 0.3697	-0.2058	55.9329	99.7601	
   742	-1.0165	 0.3564	-0.6602	-1.2067	 0.1445	-1.0621	-0.5442	 0.3895	-0.1547	56.0209	99.7543	
   743	-1.0239	 0.3672	-0.6567	-1.1977	 0.1766	-1.0211	-0.5010	 0.4050	-0.0959	56.1528	99.7579	
   744	-1.0061	 0.3936	-0.6126	-1.1614	 0.1989	-0.9623	-0.4563	 0.4447	-0.0116	56.1739	99.7556	
   745	-1.0859	 0.4058	-0.6801	-1.2469	 0.1728	-1.0740	-0.5302	 0.4215	-0.1087	56.2632	99.7473	
   746	-1.0900	 0.3419	-0.7482	-1.2358	 0.1266	-1.1091	-0.5261	 0.3892	-0.1368	56.2185	99.7500	
   747	-0.9883	 0.4199	-0.5685	-1.1387	 0.2262	-0.9125	-0.4234	 0.4886	 0.0651	56.1379	99.7524	
   748	-0.9768	 0.4730	-0.5039	-1.1088	 0.2579	-0.8508	-0.3920	 0.5083	 0.1163	56.3007	99.7532	
   749	-1.0681	 0.4322	-0.6360	-1.1733	 0.2313	-0.9419	-0.4227	 0.5006	 0.0779	56.3256	99.7509	
   750	-1.1069	 0.4543	-0.6527	-1.2015	 0.2272	-0.9742	-0.5480	 0.5264	-0.0216	55.9663	99.7548	
   751	-1.0136	 0.5271	-0.4866	-1.1836	 0.2913	-0.8921	-0.5069	 0.5058	-0.0012	56.1932	99.7568	
   752	-1.2371	 0.4355	-0.8016	-1.3909	 0.2166	-1.1741	-0.7027	 0.4640	-0.2388	55.9763	99.7539	
   753	-1.3316	 0.4694	-0.8623	-1.4447	 0.2497	-1.1948	-0.7438	 0.4846	-0.2591	56.0954	99.7588	
   754	-1.3316	 0.4694	-0.8623	-1.4447	 0.2497	-1.1948	-0.7563	 0.4768	-0.2796	56.0869	99.7615	
   755	-1.3767	 0.3956	-0.9811	-1.5127	 0.1681	-1.3445	-0.8645	 0.3855	-0.4790	55.9863	99.7639	
   756	-1.4532	 0.3331	-1.1202	-1.6071	 0.1099	-1.4971	-0.9886	 0.3308	-0.6579	55.7908	99.7654	
   757	-1.4973	 0.2753	-1.2220	-1.6661	 0.0603	-1.6057	-1.0333	 0.2911	-0.7422	55.7327	99.7615	
   758	-1.5319	 0.2387	-1.2933	-1.7033	 0.0241	-1.6791	-1.0536	 0.2551	-0.7985	55.7863	99.7591	
   759	-1.5581	 0.2072	-1.3510	-1.7204	-0.0262	-1.7465	-1.0621	 0.2150	-0.8471	55.8935	99.7544	
   760	-1.5454	 0.1536	-1.3919	-1.7294	-0.0582	-1.7876	-1.0399	 0.1825	-0.8574	55.9023	99.7515	
   761	-1.5223	 0.1371	-1.3853	-1.6957	-0.0772	-1.7728	-1.0170	 0.1620	-0.8549	55.9559	99.7538	
   762	-1.5055	 0.1475	-1.3582	-1.6239	-0.0462	-1.6700	-0.9172	 0.2131	-0.7041	56.0655	99.7563	
   763	-1.3911	 0.1719	-1.2194	-1.5465	-0.0383	-1.5847	-0.8769	 0.1804	-0.6966	56.1337	99.7610	
   764	-1.3869	 0.1131	-1.2739	-1.5290	-0.0938	-1.6227	-0.8366	 0.1476	-0.6890	56.2084	99.7563	
   765	-1.3627	 0.1126	-1.2502	-1.5090	-0.1079	-1.6168	-0.8562	 0.1237	-0.7325	56.1829	99.7601	
   766	-1.3963	 0.0919	-1.3045	-1.5799	-0.1251	-1.7049	-0.9245	 0.0924	-0.8321	56.1037	99.7585	
   767	-1.4604	 0.0986	-1.3619	-1.6718	-0.1420	-1.8137	-1.0283	 0.0736	-0.9547	56.0153	99.7537	
   768	-1.5433	 0.0629	-1.4805	-1.7791	-0.1816	-1.9605	-1.1525	 0.0188	-1.1336	55.9219	99.7548	
   769	-1.5517	 0.0577	-1.4941	-1.7945	-0.2043	-1.9987	-1.1957	 0.0033	-1.1924	55.8456	99.7535	
   770	-1.5936	 0.0319	-1.5619	-1.8381	-0.2312	-2.0691	-1.2097	-0.0287	-1.2384	55.9583	99.7503	
   771	-1.6282	-0.0048	-1.6331	-1.8817	-0.2580	-2.1396	-1.2230	-0.0487	-1.2717	55.9671	99.7458	
   772	-1.6796	-0.0518	-1.7315	-1.9261	-0.2987	-2.2247	-1.2488	-0.0765	-1.3254	55.9759	99.7429	
   773	-1.7048	-0.0673	-1.7722	-1.9279	-0.3262	-2.2540	-1.2573	-0.1167	-1.3740	56.1337	99.7466	
   774	-1.7142	-0.0884	-1.8028	-1.9433	-0.3490	-2.2921	-1.3068	-0.1362	-1.4430	56.0037	99.7492	
   775	-1.7226	-0.0936	-1.8163	-1.9715	-0.3531	-2.3244	-1.3138	-0.1522	-1.4660	56.0535	99.7465	
   776	-1.7079	-0.1152	-1.8232	-1.9522	-0.3810	-2.3332	-1.3153	-0.1763	-1.4916	56.0447	99.7479	
   777	-1.7257	-0.1416	-1.8674	-1.9749	-0.4082	-2.3830	-1.3780	-0.2158	-1.5938	55.9596	99.7540	
   778	-1.7288	-0.1895	-1.9184	-1.9912	-0.4447	-2.4358	-1.4116	-0.2717	-1.6834	55.9373	99.7595	
   779	-1.6910	-0.2276	-1.9187	-1.9801	-0.4909	-2.4709	-1.4578	-0.3356	-1.7933	55.8333	99.7650	
   780	-1.6437	-0.2446	-1.8884	-1.9309	-0.4872	-2.4180	-1.3972	-0.3323	-1.7295	55.8514	99.7670	
   781	-1.5703	-0.2300	-1.8004	-1.8574	-0.4286	-2.2859	-1.2827	-0.2372	-1.5199	55.6921	99.7628	
   782	-1.3699	-0.1220	-1.4919	-1.5992	-0.3226	-1.9217	-0.9872	-0.1443	-1.1315	56.1467	99.7669	
   783	-1.1075	-0.0525	-1.1601	-1.3710	-0.2483	-1.6192	-0.7530	-0.0668	-0.8198	56.1725	99.7631	
   784	-1.0729	-0.0159	-1.0889	-1.3419	-0.2303	-1.5722	-0.7515	-0.0427	-0.7942	56.1057	99.7621	
   785	-1.1212	-0.0149	-1.1362	-1.4048	-0.2293	-1.6339	-0.8058	-0.0420	-0.8478	56.0431	99.7596	
   786	-1.1611	-0.0088	-1.1699	-1.4330	-0.2334	-1.6663	-0.8239	-0.0418	-0.8657	56.1014	99.7574	
   787	-1.1621	-0.0248	-1.1870	-1.4612	-0.2375	-1.6986	-0.8420	-0.0415	-0.8836	55.9891	99.7542	
   788	-1.1621	-0.0248	-1.1870	-1.4684	-0.2420	-1.7103	-0.8420	-0.0415	-0.8836	55.9891	99.7511	
   789	-1.1936	-0.0135	-1.2072	-1.4821	-0.2372	-1.7192	-0.8845	-0.0450	-0.9295	55.9759	99.7569	
   790	-1.2691	-0.0600	-1.3292	-1.5565	-0.3095	-1.8659	-0.9480	-0.0965	-1.0446	56.0212	99.7481	
   791	-1.3846	-0.1004	-1.4850	-1.6001	-0.3364	-1.9364	-0.9188	-0.1130	-1.0318	56.3509	99.7474	
   792	-1.4265	-0.1262	-1.5528	-1.6292	-0.3543	-1.9833	-0.9635	-0.1527	-1.1162	56.3921	99.7554	
   793	-1.4632	-0.1948	-1.6581	-1.6544	-0.4228	-2.0772	-0.9672	-0.2130	-1.1802	56.5081	99.7525	
   794	-1.4758	-0.2639	-1.7398	-1.6305	-0.4876	-2.1181	-0.9276	-0.2578	-1.1854	56.6402	99.7517	
   795	-1.4442	-0.2752	-1.7196	-1.5968	-0.5066	-2.1033	-0.8984	-0.2743	-1.1727	56.6939	99.7509	
   796	-1.4275	-0.2649	-1.6924	-1.5822	-0.4976	-2.0798	-0.8740	-0.2706	-1.1446	56.7516	99.7501	
   797	-1.3624	-0.2555	-1.6180	-1.5322	-0.4801	-2.0122	-0.8371	-0.2590	-1.0961	56.6939	99.7524	
   798	-1.3057	-0.2513	-1.5571	-1.4895	-0.4670	-1.9564	-0.7876	-0.2395	-1.0271	56.6484	99.7504	
   799	-1.2889	-0.2410	-1.5300	-1.4476	-0.4677	-1.9153	-0.7569	-0.2318	-0.9888	56.7101	99.7514	
   800	-1.2648	-0.2415	-1.5063	-1.4194	-0.4636	-1.8829	-0.7325	-0.2281	-0.9607	56.7141	99.7531	
   801	-1.2322	-0.2368	-1.4691	-1.3775	-0.4643	-1.8418	-0.6782	-0.2288	-0.9071	56.8332	99.7519	
   802	-1.2081	-0.2373	-1.4454	-1.3566	-0.4647	-1.8212	-0.6420	-0.2293	-0.8713	56.8946	99.7497	
   803	-1.1755	-0.2326	-1.4082	-1.3011	-0.4702	-1.7712	-0.5689	-0.2182	-0.7870	57.0248	99.7458	
   804	-1.0947	-0.2289	-1.3237	-1.2438	-0.4482	-1.6919	-0.5138	-0.2068	-0.7206	56.9715	99.7481	
   805	-1.0695	-0.2133	-1.2830	-1.2019	-0.4489	-1.6507	-0.4831	-0.1991	-0.6823	57.0287	99.7475	
   806	-1.0454	-0.2138	-1.2593	-1.1874	-0.4399	-1.6272	-0.4588	-0.1954	-0.6542	57.0325	99.7476	
   807	-1.0212	-0.2143	-1.2356	-1.1592	-0.4358	-1.5949	-0.4344	-0.1917	-0.6261	57.0364	99.7493	
   808	-1.0044	-0.2040	-1.2085	-1.1310	-0.4317	-1.5625	-0.4155	-0.1799	-0.5954	57.0403	99.7495	
   809	-0.9960	-0.1988	-1.1950	-1.1237	-0.4272	-1.5508	-0.3974	-0.1801	-0.5776	57.0974	99.7487	
   810	-0.9635	-0.1941	-1.1577	-1.0882	-0.4186	-1.5067	-0.3487	-0.1727	-0.5214	57.1620	99.7483	
   811	-0.9152	-0.1951	-1.1104	-1.0391	-0.4148	-1.4538	-0.3180	-0.1650	-0.4830	57.1089	99.7507	
   812	-0.8900	-0.1796	-1.0697	-1.0100	-0.3969	-1.4068	-0.2748	-0.1495	-0.4243	57.1734	99.7503	
   813	-0.8481	-0.1538	-1.0019	-0.9463	-0.3842	-1.3304	-0.2253	-0.1300	-0.3553	57.2340	99.7513	
   814	-0.7987	-0.1387	-0.9376	-0.9237	-0.3570	-1.2806	-0.1946	-0.1223	-0.3170	57.2302	99.7526	
   815	-0.7987	-0.1387	-0.9376	-0.9036	-0.3711	-1.2746	-0.1702	-0.1186	-0.2889	57.2945	99.7492	
   816	-0.7621	-0.0701	-0.8323	-0.8583	-0.3167	-1.1749	-0.1492	-0.0706	-0.2198	57.2908	99.7522	
   817	-0.6886	-0.0556	-0.7443	-0.7801	-0.2950	-1.0750	-0.0572	-0.0476	-0.1048	57.3624	99.7520	
   818	-0.6162	-0.0570	-0.6733	-0.7454	-0.3002	-1.0456	-0.0336	-0.0560	-0.0895	57.2945	99.7492	
   819	-0.6245	-0.0622	-0.6868	-0.7454	-0.3002	-1.0456	-0.0391	-0.0478	-0.0870	57.2453	99.7502	
   820	-0.6141	-0.0251	-0.6392	-0.7565	-0.2540	-1.0105	-0.0495	-0.0195	-0.0690	57.1848	99.7522	
   821	-0.6372	-0.0086	-0.6459	-0.7702	-0.2492	-1.0193	-0.0558	-0.0235	-0.0792	57.2908	99.7521	
   822	-0.6393	-0.0406	-0.6799	-0.7655	-0.2861	-1.0515	-0.0454	-0.0518	-0.0972	57.3475	99.7499	
   823	-0.6487	-0.0617	-0.7105	-0.7736	-0.3043	-1.0779	-0.0399	-0.0599	-0.0998	57.3549	99.7470	
   824	-0.6413	-0.0725	-0.7140	-0.7527	-0.3047	-1.0573	-0.0225	-0.0722	-0.0947	57.4116	99.7525	
   825	-0.6172	-0.0730	-0.6903	-0.7390	-0.3095	-1.0485	-0.0413	-0.0840	-0.1254	57.3401	99.7558	
   826	-0.6172	-0.0730	-0.6903	-0.7399	-0.3233	-1.0631	-0.0720	-0.0917	-0.1637	57.2720	99.7561	
   827	-0.6340	-0.0833	-0.7174	-0.7681	-0.3274	-1.0954	-0.1034	-0.1114	-0.2148	57.2608	99.7587	
   828	-0.6350	-0.0993	-0.7344	-0.7899	-0.3409	-1.1307	-0.1348	-0.1312	-0.2659	57.1924	99.7590	
   829	-0.6686	-0.1200	-0.7887	-0.8190	-0.3588	-1.1776	-0.1592	-0.1349	-0.2940	57.1429	99.7569	
   830	-0.6927	-0.1195	-0.8123	-0.8399	-0.3584	-1.1982	-0.1710	-0.1307	-0.3017	57.1467	99.7555	
   831	-0.6843	-0.1143	-0.7988	-0.8318	-0.3402	-1.1718	-0.1466	-0.1270	-0.2736	57.2076	99.7580	
   832	-0.6434	-0.1045	-0.7480	-0.7826	-0.3364	-1.1189	-0.1159	-0.1193	-0.2353	57.2076	99.7595	
   833	-0.6182	-0.0890	-0.7073	-0.7873	-0.2995	-1.0867	-0.1507	-0.0947	-0.2454	56.9754	99.7651	
   834	-0.6319	-0.0514	-0.6834	-0.8138	-0.2761	-1.0898	-0.1869	-0.0942	-0.2811	57.0093	99.7666	
   835	-0.6718	-0.0452	-0.7171	-0.8493	-0.2847	-1.1338	-0.2176	-0.1019	-0.3195	57.0588	99.7642	
   836	-0.6802	-0.0504	-0.7307	-0.8694	-0.2705	-1.1398	-0.2405	-0.0815	-0.3220	56.8985	99.7651	
   837	-0.6959	-0.0448	-0.7408	-0.8830	-0.2657	-1.1486	-0.2586	-0.0812	-0.3398	56.8946	99.7665	
   838	-0.7275	-0.0335	-0.7610	-0.9104	-0.2560	-1.1663	-0.2822	-0.0729	-0.3551	56.8946	99.7665	
   839	-0.7516	-0.0330	-0.7847	-0.9249	-0.2650	-1.1898	-0.3003	-0.0727	-0.3730	56.8946	99.7651	
   840	-0.7684	-0.0433	-0.8118	-0.9258	-0.2788	-1.2044	-0.2830	-0.0850	-0.3679	57.0131	99.7638	
   841	-0.7768	-0.0485	-0.8254	-0.9394	-0.2739	-1.2133	-0.2948	-0.0808	-0.3756	56.9598	99.7646	
   842	-0.7925	-0.0428	-0.8355	-0.9467	-0.2784	-1.2250	-0.3184	-0.0724	-0.3909	56.9024	99.7639	
   843	-0.7841	-0.0377	-0.8219	-0.9522	-0.2553	-1.2075	-0.3122	-0.0685	-0.3806	56.9024	99.7668	
   844	-0.7579	-0.0062	-0.7642	-0.9223	-0.2236	-1.1459	-0.2863	-0.0406	-0.3270	56.9064	99.7684	
   845	-0.7002	 0.0140	-0.6863	-0.8851	-0.1875	-1.0725	-0.2542	-0.0088	-0.2630	56.7996	99.7700	
   846	-0.6908	 0.0352	-0.6557	-0.8706	-0.1785	-1.0490	-0.2354	 0.0030	-0.2324	56.8569	99.7678	
   847	-0.6814	 0.0563	-0.6251	-0.8334	-0.1423	-0.9756	-0.1907	 0.0427	-0.1480	56.8806	99.7716	
   848	-0.6163	 0.0657	-0.5507	-0.7770	-0.1341	-0.9110	-0.1364	 0.0420	-0.0944	56.9338	99.7722	
   849	-0.6341	 0.0394	-0.5948	-0.7996	-0.1613	-0.9609	-0.1552	 0.0302	-0.1251	56.8806	99.7686	
   850	-0.6750	 0.0295	-0.6456	-0.8415	-0.1606	-1.0020	-0.1851	 0.0346	-0.1506	56.8313	99.7680	
   851	-0.6897	 0.0511	-0.6387	-0.8543	-0.1420	-0.9962	-0.1837	 0.0587	-0.1250	56.8392	99.7653	
   852	-0.6887	 0.0671	-0.6217	-0.8671	-0.1234	-0.9904	-0.1948	 0.0750	-0.1198	56.7821	99.7644	
   853	-0.7045	 0.0728	-0.6318	-0.8744	-0.1279	-1.0022	-0.2073	 0.0671	-0.1403	56.8313	99.7650	
   854	-0.7286	 0.0733	-0.6554	-0.8889	-0.1368	-1.0256	-0.2443	 0.0555	-0.1888	56.8195	99.7677	
   855	-0.7296	 0.0573	-0.6725	-0.9244	-0.1454	-1.0697	-0.2945	 0.0239	-0.2706	56.7382	99.7705	
   856	-0.7726	 0.0155	-0.7573	-0.9851	-0.2226	-1.2076	-0.3713	-0.0476	-0.4189	56.7596	99.7642	
   857	-0.8492	-0.0470	-0.8964	-1.0651	-0.2718	-1.3368	-0.4404	-0.0910	-0.5314	56.7020	99.7633	
   858	-0.8650	-0.0414	-0.9065	-1.0860	-0.2715	-1.3574	-0.4703	-0.0866	-0.5569	56.6402	99.7624	
   859	-0.8723	-0.0306	-0.9030	-1.0851	-0.2577	-1.3427	-0.4703	-0.0866	-0.5569	56.6939	99.7661	
   860	-0.8555	-0.0202	-0.8759	-1.0770	-0.2394	-1.3163	-0.4688	-0.0624	-0.5313	56.5866	99.7662	
   861	-0.8377	 0.0061	-0.8317	-1.0479	-0.2215	-1.2694	-0.4618	-0.0464	-0.5082	56.5825	99.7692	
   862	-0.8125	 0.0216	-0.7911	-1.0326	-0.1988	-1.2312	-0.4186	-0.0309	-0.4495	56.6484	99.7672	
   863	-0.7233	 0.0305	-0.6929	-0.9270	-0.1868	-1.1137	-0.3406	-0.0399	-0.3806	56.7556	99.7760	
   864	-0.6036	 0.0121	-0.5916	-0.8168	-0.2116	-1.0283	-0.2398	-0.0694	-0.3092	56.8629	99.7759	
   865	-0.4923	-0.0115	-0.5039	-0.7339	-0.2268	-0.9606	-0.1555	-0.0745	-0.2300	56.8132	99.7723	
   866	-0.4608	-0.0228	-0.4837	-0.7211	-0.2454	-0.9664	-0.1444	-0.0908	-0.2352	56.8052	99.7691	
   867	-0.4954	-0.0594	-0.5550	-0.7446	-0.2864	-1.0309	-0.1599	-0.1469	-0.3068	56.9623	99.7710	
   868	-0.5552	-0.1116	-0.6669	-0.7899	-0.3409	-1.1307	-0.2101	-0.1785	-0.3886	56.9086	99.7689	
   869	-0.6056	-0.1426	-0.7483	-0.8262	-0.3632	-1.1894	-0.2352	-0.1943	-0.4295	56.9165	99.7691	
   870	-0.6549	-0.1576	-0.8126	-0.8827	-0.3715	-1.2540	-0.2840	-0.2017	-0.4857	56.8589	99.7683	
   871	-0.7368	-0.1773	-0.9142	-0.9472	-0.3980	-1.3451	-0.3523	-0.2330	-0.5854	56.9046	99.7702	
   872	-0.7955	-0.2135	-1.0091	-0.9981	-0.4293	-1.4273	-0.3900	-0.2567	-0.6467	56.9086	99.7689	
   873	-0.8291	-0.2342	-1.0633	-1.0271	-0.4472	-1.4743	-0.4088	-0.2685	-0.6774	56.9126	99.7675	
   874	-0.8606	-0.2229	-1.0836	-1.0472	-0.4331	-1.4802	-0.4262	-0.2562	-0.6824	56.9165	99.7691	
   875	-0.8921	-0.2116	-1.1038	-1.0609	-0.4283	-1.4890	-0.4318	-0.2481	-0.6799	56.9780	99.7686	
   876	-0.9079	-0.2059	-1.1139	-1.0745	-0.4234	-1.4979	-0.4491	-0.2358	-0.6849	56.9244	99.7679	
   877	-0.9394	-0.1946	-1.1341	-1.0946	-0.4093	-1.5038	-0.4554	-0.2398	-0.6952	57.0355	99.7709	
   878	-0.9394	-0.1946	-1.1341	-1.1083	-0.4045	-1.5127	-0.4672	-0.2356	-0.7028	56.9780	99.7701	
   879	-0.9394	-0.1946	-1.1341	-1.1083	-0.4045	-1.5127	-0.4728	-0.2275	-0.7002	56.9244	99.7694	
   880	-0.9310	-0.1894	-1.1205	-1.0938	-0.3955	-1.4892	-0.4547	-0.2277	-0.6824	56.9819	99.7717	
   881	-0.9226	-0.1843	-1.1069	-1.0664	-0.4052	-1.4715	-0.4429	-0.2319	-0.6747	57.0355	99.7724	
   882	-0.9226	-0.1843	-1.1069	-1.0865	-0.3910	-1.4774	-0.4539	-0.2156	-0.6696	56.9283	99.7710	
   883	-0.9142	-0.1791	-1.0934	-1.0784	-0.3728	-1.4510	-0.4351	-0.2038	-0.6389	56.9362	99.7727	
   884	-0.9215	-0.1683	-1.0899	-1.0647	-0.3776	-1.4422	-0.4281	-0.1878	-0.6159	56.9441	99.7701	
   885	-0.9121	-0.1471	-1.0594	-1.0484	-0.3411	-1.3894	-0.3890	-0.1400	-0.5289	56.9142	99.7687	
   886	-0.8691	-0.1053	-0.9745	-1.0104	-0.2911	-1.3014	-0.3436	-0.0882	-0.4318	56.8727	99.7683	
   887	-0.8429	-0.0738	-0.9168	-0.9732	-0.2550	-1.2281	-0.3122	-0.0685	-0.3806	56.9299	99.7736	
   888	-0.8429	-0.0738	-0.9168	-0.9886	-0.2777	-1.2662	-0.3498	-0.0921	-0.4420	56.9064	99.7714	
   889	-0.9184	-0.1203	-1.0389	-1.0758	-0.3314	-1.4071	-0.4433	-0.1393	-0.5825	56.8332	99.7686	
   890	-0.9678	-0.1354	-1.1032	-1.1258	-0.3490	-1.4747	-0.4810	-0.1629	-0.6439	56.8827	99.7676	
   891	-0.9762	-0.1405	-1.1168	-1.1395	-0.3442	-1.4835	-0.4810	-0.1629	-0.6439	56.8867	99.7677	
   892	-0.9426	-0.1199	-1.0625	-1.0886	-0.3128	-1.4013	-0.4363	-0.1232	-0.5595	56.8490	99.7705	
   893	-0.8912	-0.0729	-0.9642	-1.0505	-0.2629	-1.3133	-0.4034	-0.0794	-0.4828	56.7956	99.7713	
   894	-0.9090	-0.0992	-1.0083	-1.1023	-0.3080	-1.4101	-0.4795	-0.1388	-0.6183	56.7556	99.7700	
   895	-0.9426	-0.1199	-1.0625	-1.1168	-0.3169	-1.4336	-0.4614	-0.1390	-0.6004	56.8332	99.7685	
   896	-0.9017	-0.1100	-1.0118	-1.0886	-0.3128	-1.4013	-0.4433	-0.1393	-0.5825	56.8252	99.7682	
   897	-0.8450	-0.1058	-0.9509	-1.0523	-0.2904	-1.3426	-0.3931	-0.1077	-0.5008	56.7302	99.7656	
   898	-0.7956	-0.0908	-0.8865	-1.0095	-0.2774	-1.2868	-0.3443	-0.1003	-0.4446	56.7877	99.7649	
   899	-0.7883	-0.1016	-0.8900	-1.0104	-0.2911	-1.3014	-0.3506	-0.1042	-0.4548	56.7302	99.7626	
   900	-0.7799	-0.0964	-0.8764	-1.0104	-0.2911	-1.3014	-0.3450	-0.1123	-0.4574	56.7797	99.7616	
   901	-0.8124	-0.1011	-0.9136	-1.0322	-0.3046	-1.3366	-0.3639	-0.1242	-0.4880	56.8332	99.7608	
   902	-0.8135	-0.1171	-0.9307	-1.0330	-0.3184	-1.3513	-0.3882	-0.1279	-0.5161	56.7181	99.7623	
   903	-0.8219	-0.1223	-0.9442	-1.0330	-0.3184	-1.3513	-0.3764	-0.1321	-0.5085	56.7797	99.7632	
   904	-0.8376	-0.1166	-0.9543	-1.0604	-0.3087	-1.3690	-0.3882	-0.1279	-0.5161	56.7797	99.7616	
   905	-0.8460	-0.1218	-0.9679	-1.0741	-0.3039	-1.3778	-0.3882	-0.1279	-0.5161	56.7837	99.7617	
   906	-0.8376	-0.1166	-0.9543	-1.0741	-0.3039	-1.3778	-0.3938	-0.1198	-0.5136	56.7262	99.7594	
   907	-0.8460	-0.1218	-0.9679	-1.0612	-0.3225	-1.3836	-0.4001	-0.1237	-0.5238	56.7262	99.7595	
   908	-0.8544	-0.1270	-0.9814	-1.0822	-0.3221	-1.4042	-0.4008	-0.1358	-0.5366	56.7797	99.7586	
   909	-0.8712	-0.1373	-1.0086	-1.0903	-0.3404	-1.4306	-0.4196	-0.1476	-0.5673	56.7757	99.7585	
   910	-0.8880	-0.1476	-1.0357	-1.1185	-0.3445	-1.4629	-0.4629	-0.1632	-0.6260	56.7060	99.7618	
   911	-0.9289	-0.1575	-1.0865	-1.1604	-0.3438	-1.5041	-0.4810	-0.1629	-0.6439	56.7141	99.7605	
   912	-0.9363	-0.1467	-1.0830	-1.1467	-0.3486	-1.4953	-0.4810	-0.1629	-0.6439	56.7677	99.7613	
   913	-0.9447	-0.1518	-1.0966	-1.1604	-0.3438	-1.5041	-0.4935	-0.1708	-0.6643	56.7636	99.7641	
   914	-0.9614	-0.1622	-1.1237	-1.1613	-0.3576	-1.5187	-0.5116	-0.1706	-0.6822	56.7101	99.7651	
   915	-0.9541	-0.1730	-1.1272	-1.1549	-0.3669	-1.5216	-0.4880	-0.1789	-0.6669	56.7717	99.7630	
   916	-0.9541	-0.1730	-1.1272	-1.1476	-0.3624	-1.5099	-0.4761	-0.1831	-0.6593	56.8292	99.7653	
   917	-0.9457	-0.1678	-1.1136	-1.1339	-0.3672	-1.5011	-0.4824	-0.1871	-0.6695	56.8212	99.7666	
   918	-0.9299	-0.1735	-1.1035	-1.1202	-0.3721	-1.4922	-0.4769	-0.1952	-0.6721	56.8172	99.7680	
   919	-0.9215	-0.1683	-1.0899	-1.1266	-0.3628	-1.4893	-0.4769	-0.1952	-0.6721	56.8132	99.7678	
   920	-0.9215	-0.1683	-1.0899	-1.1266	-0.3628	-1.4893	-0.4887	-0.1910	-0.6797	56.7556	99.7685	
   921	-0.9289	-0.1575	-1.0865	-1.1194	-0.3583	-1.4776	-0.4761	-0.1831	-0.6593	56.8172	99.7680	
   922	-0.9121	-0.1471	-1.0594	-1.0775	-0.3590	-1.4364	-0.4455	-0.1755	-0.6209	56.8787	99.7690	
   923	-0.8796	-0.1425	-1.0221	-1.0630	-0.3500	-1.4129	-0.4337	-0.1796	-0.6133	56.8708	99.7702	
   924	-0.8953	-0.1368	-1.0322	-1.0830	-0.3359	-1.4189	-0.4566	-0.1592	-0.6158	56.7636	99.7703	
   925	-0.8869	-0.1316	-1.0187	-1.0830	-0.3359	-1.4189	-0.4566	-0.1592	-0.6158	56.7596	99.7687	
   926	-0.9027	-0.1260	-1.0288	-1.0895	-0.3266	-1.4160	-0.4566	-0.1592	-0.6158	56.8172	99.7709	
   927	-0.9184	-0.1203	-1.0389	-1.0895	-0.3266	-1.4160	-0.4558	-0.1472	-0.6030	56.8252	99.7698	
   928	-0.9100	-0.1152	-1.0253	-1.0749	-0.3176	-1.3925	-0.4307	-0.1314	-0.5621	56.8371	99.7687	
   929	-0.9090	-0.0992	-1.0083	-1.0732	-0.2901	-1.3632	-0.3931	-0.1077	-0.5008	56.9103	99.7669	
   930	-0.8754	-0.0785	-0.9541	-1.0232	-0.2725	-1.2956	-0.3672	-0.0798	-0.4471	56.8609	99.7694	
   931	-0.8744	-0.0625	-0.9370	-1.0369	-0.2677	-1.3045	-0.3790	-0.0757	-0.4547	56.8530	99.7662	
   932	-0.9069	-0.0672	-0.9743	-1.0732	-0.2901	-1.3632	-0.4411	-0.1031	-0.5442	56.8292	99.7670	
   933	-0.9657	-0.1034	-1.0692	-1.1232	-0.3076	-1.4307	-0.4718	-0.1107	-0.5825	56.7877	99.7666	
   934	-0.9395	-0.0719	-1.0115	-1.0924	-0.2622	-1.3545	-0.4271	-0.0710	-0.4981	56.8036	99.7686	
   935	-0.9059	-0.0512	-0.9572	-1.0569	-0.2536	-1.3104	-0.4145	-0.0631	-0.4777	56.7956	99.7699	
   936	-0.9069	-0.0672	-0.9743	-1.0851	-0.2577	-1.3427	-0.4153	-0.0752	-0.4905	56.7956	99.7668	
   937	-0.9059	-0.0512	-0.9572	-1.0433	-0.2584	-1.3016	-0.3901	-0.0594	-0.4496	56.8609	99.7680	
   938	-0.8576	-0.0522	-0.9099	-1.0142	-0.2405	-1.2546	-0.3532	-0.0478	-0.4010	56.8115	99.7689	
   939	-0.8251	-0.0475	-0.8727	-0.9997	-0.2315	-1.2311	-0.3469	-0.0439	-0.3908	56.7502	99.7694	
   940	-0.8324	-0.0367	-0.8692	-0.9924	-0.2271	-1.2193	-0.3406	-0.0399	-0.3806	56.8076	99.7702	
   941	-0.8240	-0.0315	-0.8557	-0.9851	-0.2226	-1.2076	-0.3399	-0.0279	-0.3678	56.7542	99.7696	
   942	-0.8156	-0.0264	-0.8421	-0.9915	-0.2133	-1.2047	-0.3281	-0.0320	-0.3601	56.8076	99.7687	
   943	-0.8314	-0.0207	-0.8522	-0.9843	-0.2088	-1.1930	-0.3274	-0.0200	-0.3473	56.8155	99.7705	
   944	-0.8146	-0.0104	-0.8251	-0.9834	-0.1950	-1.1783	-0.3211	-0.0160	-0.3371	56.8115	99.7703	
   945	-0.8304	-0.0047	-0.8352	-0.9770	-0.2043	-1.1812	-0.3329	-0.0118	-0.3447	56.8115	99.7704	
   946	-0.8220	 0.0004	-0.8216	-0.9761	-0.1905	-1.1666	-0.3141	-0.0000	-0.3141	56.8195	99.7691	
   947	-0.7894	 0.0051	-0.7844	-0.9479	-0.1864	-1.1342	-0.2960	-0.0002	-0.2962	56.8155	99.7705	
   948	-0.7894	 0.0051	-0.7844	-0.9616	-0.1816	-1.1431	-0.3196	 0.0081	-0.3115	56.7009	99.7703	
   949	-0.8052	 0.0108	-0.7945	-0.9689	-0.1861	-1.1548	-0.3259	 0.0042	-0.3217	56.7542	99.7696	
   950	-0.8209	 0.0164	-0.8046	-0.9761	-0.1905	-1.1666	-0.3377	 0.0083	-0.3294	56.7542	99.7681	
   951	-0.8367	 0.0221	-0.8147	-0.9962	-0.1764	-1.1725	-0.3495	 0.0125	-0.3370	56.7542	99.7696	
   952	-0.8367	 0.0221	-0.8147	-0.9889	-0.1719	-1.1608	-0.3488	 0.0246	-0.3242	56.7049	99.7705	
   953	-0.8440	 0.0329	-0.8113	-0.9954	-0.1626	-1.1579	-0.3425	 0.0285	-0.3140	56.7622	99.7698	
   954	-0.8440	 0.0329	-0.8113	-0.9954	-0.1626	-1.1579	-0.3425	 0.0285	-0.3140	56.7622	99.7698	
   955	-0.8273	 0.0432	-0.7841	-0.9872	-0.1443	-1.1315	-0.3182	 0.0323	-0.2859	56.8195	99.7705	
   956	-0.8273	 0.0432	-0.7841	-0.9808	-0.1537	-1.1344	-0.3300	 0.0364	-0.2936	56.7622	99.7698	
   957	-0.8346	 0.0540	-0.7807	-0.9800	-0.1399	-1.1197	-0.3293	 0.0485	-0.2808	56.7662	99.7714	
   958	-0.8105	 0.0536	-0.7570	-0.9864	-0.1306	-1.1168	-0.3230	 0.0524	-0.2705	56.7089	99.7690	
   959	-0.8262	 0.0592	-0.7671	-0.9864	-0.1306	-1.1168	-0.3230	 0.0524	-0.2705	56.7662	99.7699	
   960	-0.8336	 0.0700	-0.7637	-0.9791	-0.1261	-1.1051	-0.3348	 0.0566	-0.2782	56.7622	99.7728	
   961	-0.8504	 0.0597	-0.7908	-1.0146	-0.1347	-1.1492	-0.3647	 0.0610	-0.3037	56.6516	99.7683	
   962	-0.8661	 0.0653	-0.8009	-1.0282	-0.1299	-1.1580	-0.3703	 0.0692	-0.3011	56.6557	99.7670	
   963	-0.8577	 0.0705	-0.7873	-1.0000	-0.1257	-1.1257	-0.3396	 0.0768	-0.2628	56.7210	99.7681	
   964	-0.8483	 0.0917	-0.7567	-0.9846	-0.1030	-1.0875	-0.3319	 0.1049	-0.2270	56.6718	99.7690	
   965	-0.8473	 0.1076	-0.7397	-0.9910	-0.0937	-1.0846	-0.3374	 0.1130	-0.2244	56.6678	99.7674	
   966	-0.8641	 0.0973	-0.7669	-1.0120	-0.0933	-1.1052	-0.3555	 0.1133	-0.2423	56.6145	99.7682	
   967	-0.8798	 0.1030	-0.7770	-1.0184	-0.0840	-1.1023	-0.3555	 0.1133	-0.2423	56.6718	99.7705	
   968	-0.8872	 0.1138	-0.7735	-1.0321	-0.0792	-1.1112	-0.3736	 0.1135	-0.2601	56.6637	99.7702	
   969	-0.9029	 0.1194	-0.7836	-1.0393	-0.0837	-1.1229	-0.3917	 0.1137	-0.2780	56.6597	99.7701	
   970	-0.9113	 0.1143	-0.7972	-1.0603	-0.0833	-1.1435	-0.4043	 0.1058	-0.2985	56.6557	99.7699	
   971	-0.9124	 0.0983	-0.8142	-1.0675	-0.0878	-1.1552	-0.4106	 0.1019	-0.3087	56.6024	99.7707	
   972	-0.9040	 0.1034	-0.8006	-1.0603	-0.0833	-1.1435	-0.4043	 0.1058	-0.2985	56.6024	99.7707	
   973	-0.9124	 0.0983	-0.8142	-1.0748	-0.0923	-1.1670	-0.4224	 0.1061	-0.3163	56.5450	99.7684	
   974	-0.9365	 0.0988	-0.8378	-1.0821	-0.0968	-1.1787	-0.4224	 0.1061	-0.3163	56.6064	99.7679	
   975	-0.9281	 0.1039	-0.8243	-1.0812	-0.0830	-1.1641	-0.4161	 0.1100	-0.3061	56.6064	99.7694	
   976	-0.9124	 0.0983	-0.8142	-1.0739	-0.0785	-1.1523	-0.4099	 0.1140	-0.2959	56.5532	99.7701	
   977	-0.9124	 0.0983	-0.8142	-1.0603	-0.0833	-1.1435	-0.3980	 0.1098	-0.2882	56.6105	99.7710	
   978	-0.9040	 0.1034	-0.8006	-1.0667	-0.0740	-1.1406	-0.3980	 0.1098	-0.2882	56.6064	99.7708	
   979	-0.9040	 0.1034	-0.8006	-1.0667	-0.0740	-1.1406	-0.4036	 0.1179	-0.2857	56.5532	99.7701	
   980	-0.8956	 0.1086	-0.7871	-1.0457	-0.0744	-1.1200	-0.3855	 0.1177	-0.2678	56.6105	99.7710	
   981	-0.8956	 0.1086	-0.7871	-1.0530	-0.0788	-1.1317	-0.3917	 0.1137	-0.2780	56.6064	99.7694	
   982	-0.8956	 0.1086	-0.7871	-1.0457	-0.0744	-1.1200	-0.3910	 0.1258	-0.2652	56.5573	99.7703	
   983	-0.8872	 0.1138	-0.7735	-1.0521	-0.0651	-1.1171	-0.3966	 0.1339	-0.2626	56.4999	99.7695	
   984	-0.9029	 0.1194	-0.7836	-1.0594	-0.0695	-1.1288	-0.3910	 0.1258	-0.2652	56.6105	99.7680	
   985	-0.9113	 0.1143	-0.7972	-1.0803	-0.0692	-1.1494	-0.4154	 0.1221	-0.2933	56.5491	99.7685	
   986	-0.9207	 0.0931	-0.8277	-1.1021	-0.0826	-1.1847	-0.4405	 0.1063	-0.3342	56.4876	99.7690	
   987	-0.9375	 0.0828	-0.8549	-1.1312	-0.1005	-1.2316	-0.4656	 0.0905	-0.3751	56.4794	99.7658	
   988	-0.9459	 0.0776	-0.8684	-1.1184	-0.1191	-1.2374	-0.4601	 0.0824	-0.3777	56.5369	99.7652	
   989	-0.9312	 0.0560	-0.8753	-1.1402	-0.1326	-1.2727	-0.4852	 0.0666	-0.4186	56.4136	99.7632	
   990	-0.9648	 0.0353	-0.9296	-1.1765	-0.1549	-1.3314	-0.5055	 0.0306	-0.4748	56.5164	99.7629	
   991	-0.9910	 0.0038	-0.9873	-1.1928	-0.1915	-1.3842	-0.5432	 0.0070	-0.5362	56.4546	99.7635	
   992	-1.0015	-0.0333	-1.0349	-1.2227	-0.2232	-1.4458	-0.5572	-0.0251	-0.5822	56.4505	99.7603	
   993	-1.0350	-0.0540	-1.0891	-1.2599	-0.2593	-1.5191	-0.5956	-0.0608	-0.6564	56.4916	99.7576	
   994	-1.0455	-0.0911	-1.1367	-1.2826	-0.2865	-1.5690	-0.6277	-0.0926	-0.7203	56.4256	99.7595	
   995	-1.0476	-0.1231	-1.1708	-1.2852	-0.3279	-1.6130	-0.6362	-0.1327	-0.7689	56.4709	99.7584	
   996	-1.0654	-0.1494	-1.2149	-1.3224	-0.3641	-1.6863	-0.6753	-0.1806	-0.8559	56.5040	99.7569	
   997	-1.1346	-0.2227	-1.3574	-1.4250	-0.4405	-1.8654	-0.8016	-0.2715	-1.0731	56.4041	99.7577	
   998	-1.2374	-0.3167	-1.5542	-1.5566	-0.5349	-2.0914	-0.9530	-0.3783	-1.3313	56.3032	99.7585	
   999	-1.3570	-0.4210	-1.7781	-1.6836	-0.6661	-2.3496	-1.1059	-0.5092	-1.6151	56.3105	99.7563	
  1000	-1.4031	-0.5108	-1.9139	-1.7443	-0.7433	-2.4875	-1.1646	-0.5809	-1.7455	56.2430	99.7551	
  1001	-1.4629	-0.5629	-2.0259	-1.8243	-0.7925	-2.6167	-1.2588	-0.6401	-1.8988	56.1577	99.7565	
  1002	-1.5343	-0.5455	-2.0799	-1.8418	-0.7370	-2.5787	-1.2585	-0.5354	-1.7939	55.9418	99.7580	
  1003	-1.4158	-0.3345	-1.7504	-1.6904	-0.5510	-2.2413	-1.0838	-0.3444	-1.4282	56.1033	99.7549	
  1004	-1.3918	-0.2122	-1.6042	-1.5916	-0.4239	-2.0154	-0.9003	-0.2058	-1.1061	56.4668	99.7522	
  1005	-1.4129	-0.1638	-1.5768	-1.5835	-0.4056	-1.9890	-0.8940	-0.2019	-1.0959	56.6817	99.7535	
  1006	-1.5503	-0.2944	-1.8448	-1.7267	-0.5734	-2.3000	-1.0199	-0.3855	-1.4054	56.9688	99.7472	
  1007	-1.7695	-0.4448	-2.2144	-1.9075	-0.6715	-2.5790	-1.2171	-0.4514	-1.6685	56.6450	99.7554	
  1008	-1.4737	-0.2319	-1.7057	-1.6177	-0.5062	-2.1239	-1.0302	-0.3572	-1.3874	56.8247	99.7723	
  1009	-1.6006	-0.3254	-1.9262	-1.8849	-0.6443	-2.5291	-1.3642	-0.4857	-1.8499	56.2587	99.7565	
  1010	-1.7602	-0.3009	-2.0612	-1.9579	-0.5833	-2.5411	-1.3018	-0.3537	-1.6555	56.3830	99.7433	
  1011	-1.6374	-0.2714	-1.9089	-1.8241	-0.5672	-2.3912	-1.1507	-0.3516	-1.5023	56.6745	99.7428	
  1012	-1.5881	-0.2563	-1.8445	-1.7323	-0.5503	-2.2825	-1.0469	-0.3328	-1.3797	56.8689	99.7461	
  1013	-1.5713	-0.2460	-1.8174	-1.7241	-0.5320	-2.2561	-1.0454	-0.3087	-1.3541	56.7610	99.7463	
  1014	-1.6038	-0.2507	-1.8546	-1.7660	-0.5313	-2.2973	-1.1130	-0.3279	-1.4410	56.6827	99.7525	
  1015	-1.6595	-0.2389	-1.8985	-1.7998	-0.5124	-2.3120	-1.1478	-0.3033	-1.4511	56.6368	99.7552	
  1016	-1.6448	-0.2605	-1.9054	-1.7959	-0.5630	-2.3589	-1.1507	-0.3516	-1.5023	56.7286	99.7499	
  1017	-1.7013	-0.3874	-2.0889	-1.8584	-0.6678	-2.5260	-1.1440	-0.4403	-1.5842	56.8609	99.7411	
  1018	-1.6520	-0.3724	-2.0245	-1.7639	-0.6096	-2.3734	-1.0184	-0.3613	-1.3798	56.8668	99.7456	
  1019	-1.5251	-0.2789	-1.8041	-1.6613	-0.5331	-2.1943	-0.9516	-0.3542	-1.3057	57.0502	99.7566	
  1020	-1.5681	-0.3208	-1.8889	-1.7366	-0.6192	-2.3557	-1.0778	-0.4451	-1.5230	56.9912	99.7531	
  1021	-1.6887	-0.4411	-2.1298	-1.8836	-0.7363	-2.6199	-1.2355	-0.5558	-1.7914	56.8467	99.7504	
  1022	-1.7673	-0.5355	-2.3029	-1.9307	-0.8183	-2.7489	-1.3068	-0.6354	-1.9422	56.8386	99.7580	
  1023	-1.7526	-0.5571	-2.3099	-1.9251	-0.8414	-2.7664	-1.3264	-0.6593	-1.9857	56.7679	99.7598	
  1024	-1.7295	-0.5736	-2.3032	-1.9115	-0.8462	-2.7576	-1.2894	-0.6477	-1.9372	56.7298	99.7550	
  1025	-1.7453	-0.5680	-2.3133	-1.8969	-0.8373	-2.7341	-1.2274	-0.6204	-1.8477	56.8789	99.7500	
  1026	-1.6771	-0.5106	-2.1878	-1.8025	-0.7791	-2.5815	-1.1095	-0.5695	-1.6791	57.0728	99.7517	
  1027	-1.5952	-0.4909	-2.0862	-1.7461	-0.7708	-2.5168	-1.0733	-0.5700	-1.6433	57.0572	99.7511	
  1028	-1.5774	-0.4646	-2.0421	-1.7161	-0.7392	-2.4552	-1.0238	-0.5505	-1.5743	57.1808	99.7531	
  1029	-1.4137	-0.4252	-1.8390	-1.6324	-0.7406	-2.3728	-0.9492	-0.5152	-1.4644	56.9991	99.7327	
  1030	-1.4568	-0.3443	-1.8012	-1.6071	-0.6720	-2.2790	-0.9736	-0.5189	-1.4925	57.3086	99.7571	
  1031	-1.5743	-0.4167	-1.9910	-1.7362	-0.7250	-2.4611	-1.0892	-0.5336	-1.6228	57.0375	99.7505	
  1032	-1.5900	-0.4110	-2.0012	-1.6935	-0.7119	-2.4053	-1.0161	-0.5224	-1.5385	57.2927	99.7547	
  1033	-1.6834	-0.4838	-2.1673	-1.7627	-0.7016	-2.4642	-1.0243	-0.4579	-1.4822	56.9780	99.7535	
  1034	-1.1724	-0.1846	-1.3571	-1.0459	-0.2997	-1.3455	-0.2011	 0.0710	-0.1300	57.1475	99.7589	
  1035	-0.4644	 0.4201	-0.0444	-0.1759	 0.3157	 0.1399	 0.6953	 0.6111	 1.3064	57.9821	99.7878	
  1036	-0.0447	 0.6785	 0.6336	 0.0383	 0.5006	 0.5390	 0.6188	 0.6442	 1.2630	57.4270	99.8126	
  1037	-0.1476	 0.7072	 0.5595	-0.0549	 0.5758	 0.5210	 0.6667	 0.8369	 1.5036	57.1109	99.7873	
  1038	 0.1482	 0.9200	 1.0681	 0.3465	 0.8496	 1.1962	 1.0873	 1.1012	 2.1886	57.3227	99.8056	
  1039	 0.2447	 1.0408	 1.2854	 0.5218	 0.9708	 1.4927	 1.2812	 1.2115	 2.4927	57.6292	99.8128	
  1040	 0.2562	 1.0939	 1.3500	 0.5445	 0.9980	 1.5426	 1.2883	 1.2275	 2.5157	57.7238	99.8139	
  1041	 0.2467	 1.0728	 1.3194	 0.5282	 0.9615	 1.4898	 1.2484	 1.1676	 2.4160	57.8017	99.8169	
  1042	 0.2300	 1.0624	 1.2923	 0.5355	 0.9660	 1.5016	 1.2728	 1.1713	 2.4441	57.8693	99.8193	
  1043	 0.2310	 1.0784	 1.3093	 0.5363	 0.9798	 1.5162	 1.2680	 1.1915	 2.4595	57.8185	99.8187	
  1044	 0.2394	 1.0836	 1.3229	 0.5363	 0.9798	 1.5162	 1.2539	 1.1595	 2.4134	57.9034	99.8232	
  1045	 0.1534	 0.9999	 1.1532	 0.4085	 0.8347	 1.2433	 1.0416	 0.9448	 1.9864	58.0664	99.8298	
  1046	-0.0973	 0.7382	 0.6408	 0.0455	 0.5051	 0.5507	 0.5524	 0.5444	 1.0968	57.9536	99.8334	
  1047	-0.5924	 0.3106	-0.2819	-0.5491	 0.0460	-0.5030	-0.0832	 0.1218	 0.0386	57.5048	99.8185	
  1048	-0.9994	-0.0014	-1.0008	-1.0561	-0.2398	-1.2957	-0.4795	-0.1388	-0.6183	57.2996	99.7960	
  1049	-1.3498	-0.1864	-1.5364	-1.4113	-0.4453	-1.8565	-0.8470	-0.3233	-1.1703	57.1346	99.7901	
  1050	-1.5922	-0.3203	-1.9126	-1.6648	-0.5882	-2.2529	-1.1163	-0.4809	-1.5971	57.0799	99.7914	
  1051	-1.7947	-0.4603	-2.2551	-1.9264	-0.7494	-2.6757	-1.4664	-0.6777	-2.1441	56.7996	99.7974	
  1052	-2.0224	-0.6158	-2.6382	-2.2162	-0.9147	-3.1308	-1.8276	-0.8582	-2.6858	56.4135	99.7997	
  1053	-2.0904	-0.7958	-2.8863	-2.3513	-1.0642	-3.4154	-1.9332	-1.0058	-2.9390	56.2716	99.7931	
  1054	-2.1238	-1.0619	-3.1857	-2.4587	-1.3291	-3.7877	-2.0376	-1.2340	-3.2716	56.1108	99.7785	
  1055	-2.4259	-1.2479	-3.6739	-2.6455	-1.5237	-4.1692	-2.1468	-1.4419	-3.5887	56.8168	99.7818	
  1056	-2.6830	-1.3601	-4.0433	-2.8691	-1.6350	-4.5039	-2.2554	-1.4405	-3.6960	56.7167	99.7527	
  1057	-2.3798	-1.1581	-3.5381	-2.3575	-1.3860	-3.7434	-1.5470	-1.1115	-2.6584	57.5811	99.7465	
  1058	-2.1186	-0.9820	-3.1007	-2.1877	-1.2417	-3.4293	-1.4562	-1.0080	-2.4641	57.3666	99.7486	
  1059	-1.9884	-0.9632	-2.9518	-2.0429	-1.2718	-3.3145	-1.3086	-1.2635	-2.5721	58.7287	99.7798	
  1060	-1.7922	-0.9191	-2.7114	-2.1805	-1.2372	-3.4176	-1.6600	-1.1825	-2.8425	56.8252	99.7604	
  1061	-1.7482	-0.7386	-2.4870	-2.0582	-1.0691	-3.1272	-1.5969	-1.0383	-2.6353	56.8975	99.7787	
  1062	-1.5897	-0.7791	-2.3689	-1.8360	-1.0913	-2.9271	-1.3316	-1.0458	-2.3774	57.3028	99.7806	
  1063	-1.5916	-0.9338	-2.5255	-1.8856	-1.2146	-3.1001	-1.3737	-1.1419	-2.5155	57.0696	99.7744	
  1064	-1.7301	-1.0804	-2.8106	-2.1062	-1.3903	-3.4964	-1.6200	-1.3199	-2.9399	56.8727	99.7641	
  1065	-1.9356	-1.2684	-3.2041	-2.4114	-1.5783	-3.9896	-1.9506	-1.4928	-3.4433	56.3857	99.7527	
  1066	-2.2924	-1.4266	-3.7191	-2.6503	-1.7122	-4.3625	-2.1445	-1.6030	-3.7475	56.5938	99.7595	
  1067	-2.6010	-1.4631	-4.0643	-2.8268	-1.7415	-4.5682	-2.1379	-1.4944	-3.6323	56.8053	99.7287	
  1068	-2.1132	-1.1475	-3.2607	-2.0981	-1.3720	-3.4700	-1.2462	-1.1314	-2.3776	58.0435	99.7471	
  1069	-1.7785	-0.9567	-2.7353	-1.9065	-1.2143	-3.1207	-1.1698	-0.9674	-2.1372	57.3855	99.7398	
  1070	-1.6505	-0.8473	-2.4979	-1.7057	-1.1303	-2.8358	-0.9448	-0.9421	-1.8869	58.0696	99.7514	
  1071	-1.5065	-0.9889	-2.4955	-1.6694	-1.3333	-3.0026	-1.0378	-1.0818	-2.1196	57.5462	99.7342	
  1072	-1.4701	-0.6748	-2.1450	-1.6970	-0.9924	-2.6894	-1.0047	-0.9332	-1.9379	57.9606	99.7577	
  1073	-1.6736	-0.8308	-2.5045	-1.8839	-1.1871	-3.0708	-1.2703	-1.0305	-2.3008	57.4822	99.7461	
  1074	-1.6882	-0.9319	-2.6202	-1.9553	-1.3238	-3.2790	-1.4833	-1.2572	-2.7405	57.4625	99.7663	
  1075	-1.9611	-1.0385	-2.9996	-2.2318	-1.3882	-3.6199	-1.7619	-1.2697	-3.0317	56.8934	99.7635	
  1076	-1.9307	-0.9430	-2.8738	-2.1685	-1.2696	-3.4381	-1.6829	-1.1621	-2.8450	56.9304	99.7708	
  1077	-1.8646	-0.9177	-2.7824	-2.1296	-1.2059	-3.3354	-1.6486	-1.0940	-2.7427	56.6612	99.7736	
  1078	-1.7785	-0.9567	-2.7353	-2.0348	-1.2535	-3.2882	-1.5514	-1.1839	-2.7352	57.0454	99.7798	
  1079	-1.9442	-1.1508	-3.0951	-2.2143	-1.4436	-3.6579	-1.7426	-1.3505	-3.0932	56.8975	99.7758	
  1080	-2.1204	-1.2593	-3.3799	-2.4251	-1.5735	-3.9984	-1.9979	-1.4761	-3.4739	56.6585	99.7731	
  1081	-2.3965	-1.2912	-3.6878	-2.7263	-1.5868	-4.3130	-2.1704	-1.4336	-3.6040	56.4731	99.7478	
  1082	-2.3158	-1.1647	-3.4806	-2.5947	-1.4924	-4.0870	-1.9633	-1.3034	-3.2666	56.8317	99.7333	
  1083	-2.0712	-1.1216	-3.1929	-2.3315	-1.5291	-3.8604	-1.8154	-1.4543	-3.2696	57.5395	99.7571	
  1084	-2.3124	-1.3622	-3.6747	-2.6393	-1.7584	-4.3976	-2.1189	-1.6798	-3.7987	57.3045	99.7492	
  1085	-2.2054	-1.3270	-3.5325	-2.4029	-1.6658	-4.0686	-1.6672	-1.5005	-3.1676	57.8959	99.7313	
  1086	-1.7332	-1.1284	-2.8616	-1.8336	-1.5007	-3.3342	-1.1858	-1.4302	-2.6159	58.6930	99.7650	
  1087	-1.9062	-1.3116	-3.2179	-2.1563	-1.6332	-3.7894	-1.5271	-1.4821	-3.0093	57.5868	99.7442	
  1088	-2.4130	-1.5469	-3.9601	-2.6223	-1.9335	-4.5556	-2.0859	-1.8333	-3.9192	57.7406	99.7576	
  1089	-2.4719	-1.4604	-3.9324	-2.6410	-1.7860	-4.4269	-2.0380	-1.6406	-3.6786	57.4818	99.7561	
  1090	-2.1991	-1.3538	-3.5530	-2.3700	-1.6986	-4.0685	-1.7440	-1.5719	-3.3159	57.8485	99.7537	
  1091	-2.1277	-1.3712	-3.4990	-2.2508	-1.6914	-3.9421	-1.5689	-1.4735	-3.0424	57.7639	99.7404	
  1092	-2.0354	-1.1917	-3.2272	-2.1032	-1.4547	-3.5579	-1.3537	-1.2106	-2.5642	57.6955	99.7436	
  1093	-1.7847	-1.0527	-2.8374	-1.8549	-1.3945	-3.2494	-1.1345	-1.2819	-2.4164	58.5846	99.7574	
  1094	-1.7404	-1.2403	-2.9808	-2.0174	-1.5344	-3.5516	-1.2970	-1.3724	-2.6694	57.7017	99.7325	
  1095	-1.7658	-1.0104	-2.7763	-2.0596	-1.4279	-3.4874	-1.5638	-1.3891	-2.9528	57.7110	99.7609	
  1096	-1.9778	-1.0488	-3.0267	-2.2207	-1.4343	-3.6550	-1.6584	-1.3556	-3.0140	57.6448	99.7565	
  1097	-1.9642	-1.0864	-3.0507	-2.2024	-1.4760	-3.6783	-1.6118	-1.3844	-2.9962	57.7709	99.7505	
  1098	-2.0659	-1.1644	-3.2304	-2.2969	-1.5342	-3.8310	-1.6794	-1.4037	-3.0831	57.6195	99.7441	
  1099	-2.2338	-1.2677	-3.5016	-2.5131	-1.6410	-4.1540	-1.9187	-1.5657	-3.4844	57.6030	99.7500	
  1100	-2.3522	-1.4788	-3.8311	-2.5953	-1.8374	-4.4325	-2.0634	-1.7611	-3.8245	57.5685	99.7631	
  1101	-2.4958	-1.7053	-4.2012	-2.7210	-2.0606	-4.7815	-2.1601	-1.9611	-4.1212	57.7331	99.7573	
  1102	-2.8022	-1.8326	-4.6349	-3.0373	-2.2024	-5.2397	-2.4201	-2.0665	-4.4866	57.6617	99.7398	
  1103	-2.6679	-1.7499	-4.4179	-2.7664	-2.1150	-4.8813	-1.9887	-1.9231	-3.9118	58.4296	99.7266	
  1104	-2.3930	-1.6113	-4.0045	-2.4693	-1.9453	-4.4145	-1.6677	-1.7098	-3.3775	58.3362	99.7243	
  1105	-2.2325	-1.4972	-3.7298	-2.3376	-1.8509	-4.1884	-1.5847	-1.6344	-3.2190	58.2643	99.7278	
  1106	-2.3019	-1.4478	-3.7497	-2.5098	-1.8112	-4.3209	-1.8389	-1.6432	-3.4820	57.7857	99.7333	
  1107	-2.4206	-1.2907	-3.7114	-2.5550	-1.6403	-4.1952	-1.9663	-1.6536	-3.6200	58.2355	99.7847	
  1108	-2.0481	-1.1381	-3.1863	-2.4323	-1.5779	-4.0102	-2.0093	-1.5645	-3.5737	57.2483	99.7600	
  1109	-2.1183	-1.2274	-3.3458	-2.4713	-1.6417	-4.1128	-1.9571	-1.6014	-3.5585	57.4735	99.7514	
  1110	-2.0699	-1.3510	-3.4211	-2.3572	-1.7172	-4.0743	-1.7978	-1.6638	-3.4617	57.7594	99.7581	
  1111	-2.0352	-1.4371	-3.4724	-2.3243	-1.7499	-4.0742	-1.7435	-1.6645	-3.4081	57.5663	99.7579	
  1112	-2.0666	-1.5485	-3.6152	-2.4812	-1.9129	-4.3940	-1.9780	-1.8467	-3.8247	57.2765	99.7481	
  1113	-2.5250	-1.9075	-4.4326	-2.9925	-2.2676	-5.2600	-2.4851	-2.1422	-4.6273	56.7962	99.7299	
  1114	-2.7917	-1.9181	-4.7099	-3.1391	-2.2651	-5.4041	-2.5826	-2.1570	-4.7397	57.1834	99.7428	
  1115	-2.8579	-1.8208	-4.6788	-3.1159	-2.1183	-5.2341	-2.3674	-1.8941	-4.2615	57.2477	99.7164	
  1116	-2.3459	-1.5056	-3.8516	-2.4025	-1.7716	-4.1740	-1.5781	-1.5258	-3.1038	58.0575	99.7334	
  1117	-2.1288	-1.2645	-3.3934	-2.2404	-1.5260	-3.7663	-1.4271	-1.3264	-2.7535	57.9488	99.7383	
  1118	-1.6438	-1.2422	-2.8861	-1.8183	-1.7033	-3.5215	-1.1849	-1.6154	-2.8003	58.9201	99.7413	
  1119	-1.6250	-1.1999	-2.8249	-2.1162	-1.6615	-3.7775	-1.6394	-1.5411	-3.1805	57.1232	99.7183	
  1120	-1.8957	-1.2745	-3.1703	-2.4525	-1.7892	-4.2416	-2.2016	-1.8479	-4.0494	56.9920	99.7621	
  1121	-2.1590	-1.4826	-3.6418	-2.7141	-1.9503	-4.6644	-2.3175	-1.9672	-4.2847	57.1004	99.7433	
  1122	-1.9743	-1.4917	-3.4660	-2.3675	-1.8826	-4.2500	-1.8716	-1.8843	-3.7559	57.7778	99.7591	
  1123	-2.0286	-1.7093	-3.7381	-2.5634	-2.1093	-4.6725	-2.1500	-2.0941	-4.2442	57.1461	99.7482	
  1124	-2.5638	-2.0080	-4.5719	-3.1096	-2.3530	-5.4625	-2.6365	-2.2489	-4.8854	56.4977	99.7309	
  1125	-2.8662	-1.9487	-4.8149	-3.3164	-2.3081	-5.6244	-2.7729	-2.2069	-4.9798	56.8277	99.7313	
  1126	-2.8159	-1.7949	-4.6110	-3.0432	-2.0736	-5.1167	-2.2378	-1.8474	-4.0852	57.4648	99.7156	
  1127	-2.2577	-1.5127	-3.7705	-2.4115	-1.8037	-4.2151	-1.6834	-1.5687	-3.2521	57.6505	99.7322	
  1128	-2.1350	-1.3604	-3.4955	-2.3162	-1.7317	-4.0478	-1.4953	-1.5550	-3.0503	58.4287	99.7148	
  1129	-1.7571	-1.3733	-3.1305	-1.9535	-1.8528	-3.8062	-1.3706	-1.7901	-3.1607	58.9213	99.7460	
  1130	-1.9722	-1.4597	-3.4320	-2.4672	-2.0235	-4.4906	-2.1785	-2.0656	-4.2441	57.6417	99.7530	
  1131	-2.1789	-1.5409	-3.7200	-2.7176	-2.0055	-4.7230	-2.3322	-2.0113	-4.3435	57.1004	99.7450	
  1132	-2.2240	-1.6147	-3.8388	-2.6766	-2.0200	-4.6964	-2.1796	-1.9851	-4.1647	57.3826	99.7430	
  1133	-2.0267	-1.5546	-3.5814	-2.4184	-1.9139	-4.3322	-1.8771	-1.8762	-3.7533	57.6388	99.7516	
  1134	-2.0454	-1.7196	-3.7652	-2.5989	-2.1179	-4.7166	-2.1807	-2.1018	-4.2825	57.0804	99.7454	
  1135	-2.5166	-1.9023	-4.4190	-3.0309	-2.2117	-5.2426	-2.4718	-2.1222	-4.5940	56.7478	99.7324	
  1136	-2.7444	-1.9351	-4.6796	-3.1981	-2.3147	-5.5127	-2.6705	-2.2122	-4.8828	56.9421	99.7295	
  1137	-2.8043	-1.8645	-4.6689	-3.0737	-2.2248	-5.2984	-2.3344	-2.0475	-4.3819	57.7669	99.7140	
  1138	-2.5241	-1.7688	-4.2930	-2.7364	-2.0833	-4.8197	-1.9592	-1.8349	-3.7941	57.7085	99.7114	
  1139	-2.3396	-1.5324	-3.8720	-2.5188	-1.8432	-4.3619	-1.6663	-1.6857	-3.3519	58.3671	99.7236	
  1140	-2.1841	-1.6208	-3.8051	-2.4057	-2.1579	-4.5635	-1.8289	-2.0781	-3.9071	58.9029	99.7301	
  1141	-2.1128	-1.5156	-3.6285	-2.5227	-2.0180	-4.5406	-1.9960	-2.0438	-4.0398	58.3547	99.7395	
  1142	-2.3069	-1.6504	-3.9574	-2.8335	-2.1829	-5.0163	-2.2992	-2.1647	-4.4639	57.8844	99.7105	
  1143	-2.2869	-1.7148	-4.0018	-2.7442	-2.2074	-4.9515	-2.1293	-2.1508	-4.2801	58.1378	99.7078	
  1144	-2.2260	-1.7694	-3.9954	-2.6250	-2.2002	-4.8251	-2.0812	-2.1554	-4.2367	57.9783	99.7368	
  1145	-2.2258	-1.8921	-4.1180	-2.6720	-2.2822	-4.9541	-2.1957	-2.2506	-4.4463	57.5870	99.7484	
  1146	-2.6561	-2.0649	-4.7211	-3.1203	-2.4126	-5.5328	-2.5378	-2.3146	-4.8524	57.1995	99.7268	
  1147	-2.9489	-2.1071	-5.0561	-3.3358	-2.5056	-5.8412	-2.7532	-2.3803	-5.1335	57.3626	99.7222	
  1148	-2.8934	-1.9961	-4.8896	-3.1378	-2.3571	-5.4949	-2.3465	-2.1480	-4.4945	57.9566	99.7035	
  1149	-2.4979	-1.7373	-4.2353	-2.6501	-2.0434	-4.6934	-1.8713	-1.7797	-3.6509	57.8004	99.7172	
  1150	-2.3050	-1.4957	-3.8008	-2.4632	-1.8488	-4.3119	-1.6696	-1.6413	-3.3110	58.1956	99.7179	
  1151	-1.9659	-1.4865	-3.4525	-2.1381	-1.9003	-4.0383	-1.3451	-1.8670	-3.2120	59.4847	99.7375	
  1152	-1.8326	-1.4198	-3.2525	-2.2108	-1.9450	-4.1557	-1.7489	-1.8537	-3.6026	57.9476	99.7273	
  1153	-2.0866	-1.4841	-3.5708	-2.6129	-2.0072	-4.6200	-2.2620	-2.0484	-4.3104	57.4800	99.7478	
  1154	-2.0918	-1.5640	-3.6559	-2.6074	-2.0303	-4.6376	-2.1157	-2.0261	-4.1418	57.6286	99.7319	
  1155	-1.7328	-1.4965	-3.2294	-2.0898	-1.9103	-4.0000	-1.5457	-1.8885	-3.4342	58.2876	99.7497	
  1156	-1.7579	-1.6347	-3.3927	-2.2706	-2.0084	-4.2789	-1.7492	-1.9584	-3.7076	57.4869	99.7355	
  1157	-2.0045	-1.7098	-3.7144	-2.6125	-2.1130	-4.7255	-2.1090	-2.1148	-4.2238	57.3223	99.7303	
  1158	-2.5059	-2.1106	-4.6166	-3.1811	-2.4898	-5.6707	-2.7011	-2.4172	-5.1182	56.5284	99.7136	
  1159	-2.8724	-2.0446	-4.9170	-3.4225	-2.4397	-5.8621	-2.8541	-2.3508	-5.2049	56.8827	99.7115	
  1160	-2.8242	-1.9228	-4.7471	-3.1809	-2.2644	-5.4452	-2.3902	-2.0709	-4.4611	57.5317	99.6962	
  1161	-2.3237	-1.6607	-3.9845	-2.5603	-1.9483	-4.5085	-1.7534	-1.7288	-3.4823	57.7931	99.7150	
  1162	-2.1234	-1.4300	-3.5535	-2.3824	-1.7858	-4.1681	-1.5784	-1.6304	-3.2088	58.2227	99.7138	
  1163	-1.6941	-1.3959	-3.0901	-1.8142	-1.8598	-3.6738	-1.0162	-1.8229	-2.8391	60.0140	99.7347	
  1164	-1.5932	-1.4566	-3.0499	-2.0526	-1.8741	-3.9266	-1.4855	-1.7927	-3.2782	57.8379	99.7238	
  1165	-2.1202	-1.5048	-3.6250	-2.6321	-1.9793	-4.6113	-2.0729	-1.9180	-3.9909	57.5613	99.7118	
  1166	-2.2880	-1.6081	-3.8962	-2.7856	-2.0871	-4.8726	-2.2272	-2.0730	-4.3003	57.8117	99.7211	
  1167	-2.3951	-1.6433	-4.0385	-2.8501	-2.1136	-4.9636	-2.2823	-2.0844	-4.3667	57.8269	99.7235	
  1168	-2.3824	-1.6969	-4.0795	-2.9036	-2.1863	-5.0898	-2.4492	-2.2473	-4.6965	57.7730	99.7432	
  1169	-2.6122	-1.8844	-4.4966	-3.1998	-2.3423	-5.5420	-2.6686	-2.2807	-4.9494	57.0920	99.7069	
  1170	-2.6027	-1.8632	-4.4661	-2.9780	-2.2586	-5.2365	-2.2435	-2.1413	-4.3847	57.9955	99.7067	
  1171	-2.4065	-1.8191	-4.2257	-2.7023	-2.2081	-4.9103	-1.9919	-2.0760	-4.0679	58.2143	99.7184	
  1172	-2.3593	-1.7134	-4.0728	-2.5655	-2.0310	-4.5964	-1.8073	-1.8207	-3.6281	57.9329	99.7213	
  1173	-2.2125	-1.5616	-3.7742	-2.4722	-1.8808	-4.3530	-1.7409	-1.7209	-3.4618	57.8558	99.7279	
  1174	-2.0835	-1.4361	-3.5197	-2.3278	-1.8051	-4.1327	-1.5680	-1.6588	-3.2268	58.2640	99.7208	
  1175	-1.9533	-1.4174	-3.3708	-2.2149	-1.7886	-4.0034	-1.4405	-1.6483	-3.0889	58.3846	99.7177	
  1176	-1.8348	-1.3291	-3.1640	-2.0769	-1.7035	-3.7803	-1.2788	-1.5699	-2.8486	58.5799	99.7180	
  1177	-1.6522	-1.2474	-2.8997	-1.8850	-1.6516	-3.5365	-1.1255	-1.5316	-2.6570	58.7447	99.7221	
  1178	-1.4864	-1.1760	-2.6625	-1.7268	-1.5807	-3.3074	-0.9825	-1.4650	-2.4475	58.7544	99.7242	
  1179	-1.3038	-1.0943	-2.3982	-1.5678	-1.4960	-3.0637	-0.8277	-1.4026	-2.2303	58.8157	99.7269	
  1180	-1.1873	-1.0379	-2.2254	-1.4460	-1.4474	-2.8933	-0.7225	-1.3596	-2.0821	58.8768	99.7296	
  1181	-1.0950	-0.9811	-2.0762	-1.3370	-1.3803	-2.7172	-0.6095	-1.2886	-1.8981	58.8989	99.7323	
  1182	-0.9869	-0.9299	-1.9169	-1.2297	-1.3407	-2.5703	-0.5411	-1.2573	-1.7984	58.8926	99.7370	
  1183	-0.9450	-0.9040	-1.8491	-1.2071	-1.3135	-2.5204	-0.5042	-1.2457	-1.7499	58.9473	99.7360	
  1184	-0.9030	-0.8782	-1.7813	-1.1635	-1.2866	-2.4500	-0.4783	-1.2178	-1.6962	58.8926	99.7386	
  1185	-0.8778	-0.8627	-1.7406	-1.1280	-1.2780	-2.4059	-0.4484	-1.2222	-1.6706	59.0019	99.7417	
  1186	-0.8789	-0.8787	-1.7576	-1.1498	-1.2915	-2.4411	-0.4617	-1.2422	-1.7039	58.9957	99.7397	
  1187	-0.8789	-0.8787	-1.7576	-1.1224	-1.3011	-2.4235	-0.4554	-1.2383	-1.6937	58.9988	99.7416	
  1188	-0.8379	-0.8688	-1.7069	-1.0861	-1.2787	-2.3647	-0.4059	-1.2188	-1.6247	59.0081	99.7419	
  1189	-0.8043	-0.8482	-1.6526	-1.0570	-1.2608	-2.3178	-0.3871	-1.2069	-1.5940	59.0050	99.7434	
  1190	-0.8117	-0.8374	-1.6492	-1.0498	-1.2563	-2.3060	-0.3745	-1.1990	-1.5736	59.0658	99.7429	
  1191	-0.8117	-0.8374	-1.6492	-1.0498	-1.2563	-2.3060	-0.3801	-1.1909	-1.5710	59.0112	99.7421	
  1192	-0.7960	-0.8430	-1.6391	-1.0425	-1.2519	-2.2943	-0.3912	-1.1747	-1.5658	58.8443	99.7430	
  1193	-0.8033	-0.8322	-1.6356	-1.0489	-1.2426	-2.2914	-0.3912	-1.1747	-1.5658	58.8989	99.7437	
  1194	-0.8191	-0.8265	-1.6457	-1.0489	-1.2426	-2.2914	-0.3849	-1.1707	-1.5556	58.9598	99.7432	
  1195	-0.8107	-0.8214	-1.6321	-1.0344	-1.2336	-2.2679	-0.3668	-1.1710	-1.5377	59.0174	99.7456	
  1196	-0.7949	-0.8270	-1.6220	-1.0280	-1.2429	-2.2708	-0.3605	-1.1670	-1.5275	58.9629	99.7417	
  1197	-0.8023	-0.8162	-1.6186	-1.0271	-1.2291	-2.2562	-0.3598	-1.1549	-1.5147	58.9660	99.7435	
  1198	-0.7939	-0.8110	-1.6050	-1.0263	-1.2154	-2.2415	-0.3472	-1.1470	-1.4943	58.9691	99.7436	
  1199	-0.7855	-0.8059	-1.5915	-1.0053	-1.2157	-2.2209	-0.3347	-1.1392	-1.4738	58.9722	99.7438	
  1200	-0.7771	-0.8007	-1.5779	-0.9908	-1.2068	-2.1974	-0.3277	-1.1231	-1.4508	58.9209	99.7448	
  1201	-0.7761	-0.7847	-1.5609	-0.9899	-1.1930	-2.1828	-0.3206	-1.1071	-1.4278	58.9240	99.7434	
  1202	-0.7435	-0.7800	-1.5237	-0.9609	-1.1751	-2.1358	-0.2837	-1.0955	-1.3792	58.9303	99.7452	
  1203	-0.7026	-0.7702	-1.4729	-0.9190	-1.1758	-2.0946	-0.2586	-1.0797	-1.3383	58.8759	99.7429	
  1204	-0.7026	-0.7702	-1.4729	-0.9117	-1.1713	-2.0829	-0.2523	-1.0758	-1.3281	58.8791	99.7447	
  1205	-0.7099	-0.7594	-1.4694	-0.9181	-1.1620	-2.0800	-0.2405	-1.0800	-1.3205	58.9908	99.7446	
  1206	-0.7016	-0.7542	-1.4559	-0.9173	-1.1482	-2.0654	-0.2335	-1.0640	-1.2974	58.9396	99.7440	
  1207	-0.6932	-0.7490	-1.4423	-0.9173	-1.1482	-2.0654	-0.2516	-1.0637	-1.3153	58.8759	99.7445	
  1208	-0.7089	-0.7434	-1.4524	-0.9245	-1.1527	-2.0771	-0.2704	-1.0756	-1.3460	58.9240	99.7465	
  1209	-0.7425	-0.7640	-1.5066	-0.9673	-1.1658	-2.1329	-0.3074	-1.0872	-1.3945	58.8665	99.7457	
  1210	-0.8359	-0.8369	-1.6728	-1.0481	-1.2288	-2.2767	-0.3945	-1.1303	-1.5249	58.7545	99.7457	
  1211	-0.9953	-0.9351	-1.9305	-1.2199	-1.2949	-2.5146	-0.5423	-1.1767	-1.7190	58.5334	99.7426	
  1212	-1.1591	-0.9745	-2.1336	-1.3545	-1.3248	-2.6792	-0.6509	-1.1753	-1.8263	58.4379	99.7385	
  1213	-1.2399	-0.9782	-2.2182	-1.4229	-1.3006	-2.7234	-0.7038	-1.1505	-1.8543	58.3393	99.7423	
  1214	-1.2347	-0.8983	-2.1331	-1.4267	-1.2500	-2.6766	-0.7441	-1.1178	-1.8619	58.3156	99.7445	
  1215	-1.2809	-0.8653	-2.1464	-1.5523	-1.2479	-2.8001	-0.8974	-1.1561	-2.0535	58.1991	99.7411	
  1216	-1.4447	-0.9047	-2.3495	-1.7442	-1.2998	-3.0439	-1.0758	-1.2101	-2.2859	58.1161	99.7342	
  1217	-1.5622	-0.9771	-2.5394	-1.8276	-1.4042	-3.2317	-1.1374	-1.3301	-2.4676	58.4949	99.7326	
  1218	-1.6366	-1.1303	-2.7670	-1.8918	-1.5365	-3.4281	-1.1252	-1.4269	-2.5521	58.6349	99.7205	
  1219	-1.6722	-1.1829	-2.8553	-1.8999	-1.5547	-3.4545	-1.1558	-1.4346	-2.5904	58.4768	99.7302	
  1220	-1.8863	-1.2534	-3.1398	-2.1345	-1.6198	-3.7542	-1.3948	-1.4919	-2.8867	58.2262	99.7275	
  1221	-2.0531	-1.3407	-3.3940	-2.2799	-1.7093	-3.9891	-1.5156	-1.5910	-3.1066	58.3846	99.7277	
  1222	-2.1612	-1.3919	-3.5532	-2.4008	-1.7441	-4.1448	-1.6737	-1.6091	-3.2828	58.0289	99.7305	
  1223	-2.2042	-1.4337	-3.6381	-2.4025	-1.7716	-4.1740	-1.6604	-1.5891	-3.2496	57.9509	99.7271	
