OxySoft export of:	C:\Users\TO3 TechSupport\Documents\Train2Adapt\Post_tests\T2A_53_POST_NIRS
Export date:	2022/12/15 10:36:47
Start of measurement:	2022-12-15 09:45:05.719

Datafile sample rate:	10.00	Hz
Datafile duration:	3084.200	s
Datafile total number of samples:	30842

Description:	

Optode-template:	PortaMon TSI Fit Factor
Optode distance (mm):	 35.00
Optode gradients (mm):	 5.00
DPF:	6.45

Device id:	334
# Receivers:	1
# Light sources:	6
# ADC:	2

Light source wavelengths:
device	index	wavelength
1	1	849	nm
1	2	759	nm
1	3	846	nm
1	4	757	nm
1	5	848	nm
1	6	757	nm

Export sample rate:	10.00	Hz
Selected time span:	0	3084.200
Selected time span (sample numbers):	0	30842


Legend:
Column	Trace (Measurement)
1	(Sample number)
2	Rx1-Tx1 O2Hb (T2A_53_POST_NIRS)
3	Rx1-Tx1 HHb (T2A_53_POST_NIRS)
4	Rx1-Tx1 tHb (T2A_53_POST_NIRS)
5	Rx1-Tx2 O2Hb (T2A_53_POST_NIRS)
6	Rx1-Tx2 HHb (T2A_53_POST_NIRS)
7	Rx1-Tx2 tHb (T2A_53_POST_NIRS)
8	Rx1-Tx3 O2Hb (T2A_53_POST_NIRS)
9	Rx1-Tx3 HHb (T2A_53_POST_NIRS)
10	Rx1-Tx3 tHb (T2A_53_POST_NIRS)
11	Rx1-Tx1,Tx2,Tx3 TSI% (T2A_53_POST_NIRS)
12	Rx1-Tx1,Tx2,Tx3 TSI Fit Factor (T2A_53_POST_NIRS)
13	(Event)


1	2	3	4	5	6	7	8	9	10	11	12	13
     0	147.8215	84.4273	232.2487	125.2294	74.4186	199.6481	106.5679	69.2134	175.7813	11.5652	98.7634	
     1	-0.2080	-0.1713	-0.3792	-0.2221	-0.0870	-0.3090	-0.2287	-0.1219	-0.3506	67.5250	99.8486	
     2	-0.1626	-0.1722	-0.3348	-0.1759	-0.0835	-0.2593	-0.2117	-0.1221	-0.3338	67.4429	99.8541	
     3	-0.1626	-0.1722	-0.3348	-0.1699	-0.0922	-0.2620	-0.2124	-0.1335	-0.3458	67.5277	99.8548	
     4	-0.1941	-0.1916	-0.3857	-0.1972	-0.1090	-0.3062	-0.2700	-0.1478	-0.4178	67.3629	99.8593	
     5	-0.2562	-0.2154	-0.4717	-0.2442	-0.1255	-0.3696	-0.3224	-0.1699	-0.4922	67.3636	99.8638	
     6	-0.3026	-0.2295	-0.5321	-0.3032	-0.1245	-0.4277	-0.3682	-0.1768	-0.5450	67.2801	99.8641	
     7	-0.3401	-0.2238	-0.5639	-0.3169	-0.1329	-0.4497	-0.3793	-0.1729	-0.5522	67.3629	99.8624	
     8	-0.3322	-0.2189	-0.5511	-0.3032	-0.1245	-0.4277	-0.3446	-0.1620	-0.5066	67.4437	99.8604	
     9	-0.3016	-0.2145	-0.5161	-0.2767	-0.1207	-0.3973	-0.2988	-0.1550	-0.4538	67.5250	99.8567	
    10	-0.2937	-0.2097	-0.5034	-0.2639	-0.1252	-0.3890	-0.2981	-0.1437	-0.4418	67.4413	99.8548	
    11	-0.2218	-0.1510	-0.3727	-0.2016	-0.0744	-0.2759	-0.1919	-0.0770	-0.2689	67.5181	99.8436	
    12	-0.0562	-0.0490	-0.1052	 0.0128	-0.0046	 0.0084	 0.0243	 0.0262	 0.0504	67.7547	99.8385	
    13	 0.0829	-0.0067	 0.0762	 0.1658	 0.0274	 0.1933	 0.1381	 0.0322	 0.1704	68.0036	99.8489	
    14	 0.0434	-0.0309	 0.0125	 0.0710	-0.0185	 0.0526	 0.0333	-0.0118	 0.0215	67.8502	99.8395	
    15	-0.0414	-0.0543	-0.0957	-0.0675	-0.0291	-0.0965	-0.0864	-0.0216	-0.1080	67.5224	99.8319	
    16	 0.0315	 0.0194	 0.0510	-0.0727	-0.0074	-0.0800	-0.1329	-0.0399	-0.1728	67.6228	99.8268	
    17	-0.0463	-0.0141	-0.0605	-0.1855	-0.0271	-0.2126	-0.2423	-0.0650	-0.3072	67.3736	99.8249	
    18	-0.1015	-0.0481	-0.1497	-0.2197	-0.0482	-0.2677	-0.2606	-0.0874	-0.3481	67.4561	99.8278	
    19	-0.0858	-0.0384	-0.1242	-0.1530	-0.0320	-0.1849	-0.1499	-0.0397	-0.1896	67.6116	99.8231	
    20	 0.0000	-0.0000	-0.0000	-0.0000	-0.0000	 0.0000	 0.0000	-0.0000	-0.0000	67.9346	99.8299	
    21	-0.0581	-0.0790	-0.1372	-0.0282	-0.0298	-0.0578	-0.0132	-0.0301	-0.0433	67.8448	99.8395	
    22	-0.1379	-0.1426	-0.2806	-0.0904	-0.0806	-0.1709	-0.0787	-0.0822	-0.1610	67.8459	99.8443	
    23	-0.1606	-0.1422	-0.3028	-0.1161	-0.0715	-0.1875	-0.0957	-0.0820	-0.1778	67.8459	99.8457	
    24	-0.1212	-0.1179	-0.2391	-0.0956	-0.0589	-0.1544	-0.0898	-0.0783	-0.1681	67.8502	99.8452	
    25	-0.1666	-0.1170	-0.2836	-0.2349	-0.0825	-0.3173	-0.2575	-0.1291	-0.3866	67.6191	99.8384	
    26	-0.0917	-0.0132	-0.1049	-0.2522	-0.0433	-0.2954	-0.3523	-0.1014	-0.4537	67.2974	99.8295	
    27	-0.0977	 0.0120	-0.0857	-0.3044	-0.0381	-0.3424	-0.3922	-0.1047	-0.4969	67.3018	99.8197	
    28	-0.1834	-0.0264	-0.2099	-0.3377	-0.0462	-0.3838	-0.3922	-0.1047	-0.4969	67.3799	99.8253	
    29	-0.2712	-0.0948	-0.3660	-0.4068	-0.1012	-0.5079	-0.4755	-0.1679	-0.6434	67.3823	99.8335	
    30	-0.3490	-0.1284	-0.4774	-0.4863	-0.1128	-0.5990	-0.5449	-0.1897	-0.7346	67.2974	99.8372	
    31	-0.3323	-0.1036	-0.4359	-0.4598	-0.1089	-0.5686	-0.4859	-0.1526	-0.6385	67.3775	99.8240	
    32	-0.2465	-0.0652	-0.3118	-0.3188	-0.0594	-0.3782	-0.3405	-0.0940	-0.4345	67.5373	99.8309	
    33	-0.1923	-0.0463	-0.2386	-0.2120	-0.0310	-0.2429	-0.2311	-0.0689	-0.3001	67.7815	99.8396	
    34	-0.2347	-0.0003	-0.2351	-0.2694	-0.0041	-0.2734	-0.3155	-0.0565	-0.3720	67.7055	99.8412	
    35	-0.1304	 0.2081	 0.0777	-0.2597	 0.1513	-0.1083	-0.3493	 0.0423	-0.3069	67.6382	99.8378	
    36	-0.0851	 0.3225	 0.2373	-0.2581	 0.1772	-0.0808	-0.4788	 0.0591	-0.4196	67.4015	99.8384	
    37	-0.0182	 0.4214	 0.4032	-0.1464	 0.2833	 0.1370	-0.3594	 0.1559	-0.2035	67.5663	99.8462	
    38	 0.0124	 0.4258	 0.4382	-0.1489	 0.2445	 0.0957	-0.4198	 0.0962	-0.3236	67.6677	99.8471	
    39	-0.1591	 0.3490	 0.1899	-0.3589	 0.1400	-0.2188	-0.6162	 0.0382	-0.5780	67.3242	99.8262	
    40	-0.2617	 0.2859	 0.0243	-0.5023	 0.0517	-0.4505	-0.7408	-0.0510	-0.7918	67.4196	99.8130	
    41	-0.3622	 0.2528	-0.1094	-0.5894	 0.0229	-0.5664	-0.8095	-0.0615	-0.8710	67.3296	99.8089	
    42	-0.3997	 0.2586	-0.1411	-0.6014	 0.0404	-0.5609	-0.7970	-0.0427	-0.8397	67.4129	99.8106	
    43	-0.3682	 0.2780	-0.0902	-0.5520	 0.0957	-0.4562	-0.7190	 0.0282	-0.6908	67.2294	99.8122	
    44	-0.2647	 0.3562	 0.0915	-0.4010	 0.2012	-0.1997	-0.5604	 0.1169	-0.4435	67.3942	99.8261	
    45	-0.1799	 0.3795	 0.1996	-0.2926	 0.2556	-0.0369	-0.4785	 0.1575	-0.3210	67.3047	99.8411	
    46	-0.1730	 0.3694	 0.1964	-0.2934	 0.2426	-0.0507	-0.5329	 0.1014	-0.4315	67.3998	99.8551	
    47	-0.3543	 0.2577	-0.0967	-0.5247	 0.1126	-0.4121	-0.7838	-0.0126	-0.7965	67.0611	99.8454	
    48	-0.5900	 0.1271	-0.4629	-0.7612	 0.0042	-0.7569	-0.9535	-0.0974	-1.0510	66.9722	99.8345	
    49	-0.8364	-0.0535	-0.8898	-0.9729	-0.1262	-1.0990	-1.0972	-0.2204	-1.3176	67.0565	99.8355	
    50	-1.0847	-0.2640	-1.3488	-1.1802	-0.2912	-1.4713	-1.3005	-0.3918	-1.6923	67.0583	99.8482	
    51	-1.2602	-0.4009	-1.6610	-1.2962	-0.3627	-1.6588	-1.4191	-0.4773	-1.8964	66.9691	99.8680	
    52	-1.3065	-0.4150	-1.7215	-1.3552	-0.3617	-1.7168	-1.4473	-0.4731	-1.9204	66.8808	99.8640	
    53	-1.2563	-0.3408	-1.5971	-1.3066	-0.3193	-1.6259	-1.3928	-0.4171	-1.8099	66.9671	99.8560	
    54	-1.0612	-0.1342	-1.1954	-1.1420	-0.2054	-1.3473	-1.2728	-0.3089	-1.5817	67.2335	99.8453	
    55	-0.8621	 0.0172	-0.8449	-1.0235	-0.0951	-1.1184	-1.2058	-0.2341	-1.4400	67.1542	99.8428	
    56	-0.7409	 0.1351	-0.6058	-0.8656	 0.0146	-0.8509	-1.0726	-0.0959	-1.1685	66.9727	99.8447	
    57	-0.6364	 0.2282	-0.4082	-0.7435	 0.0774	-0.6661	-0.9678	-0.0519	-1.0197	67.3235	99.8481	
    58	-0.6572	 0.2587	-0.3984	-0.7419	 0.1033	-0.6386	-0.9297	 0.0157	-0.9139	67.2287	99.8371	
    59	-0.6039	 0.2627	-0.3412	-0.7026	 0.1026	-0.5999	-0.9081	-0.0034	-0.9116	67.3189	99.8407	
    60	-0.6976	 0.2194	-0.4781	-0.8263	 0.0139	-0.8122	-1.0556	-0.0961	-1.1517	67.4179	99.8331	
    61	-0.8297	 0.1669	-0.6627	-0.9869	-0.0352	-1.0220	-1.1820	-0.1210	-1.3029	67.1542	99.8197	
    62	-0.8672	 0.1727	-0.6945	-1.0006	-0.0436	-1.0441	-1.1990	-0.1207	-1.3197	67.2420	99.8191	
    63	-0.8672	 0.1727	-0.6945	-1.0066	-0.0349	-1.0413	-1.1872	-0.1133	-1.3005	67.2405	99.8174	
    64	-0.8120	 0.2067	-0.6053	-0.9299	 0.0373	-0.8924	-1.0914	-0.0313	-1.1228	67.0577	99.8225	
    65	-0.6641	 0.2689	-0.3952	-0.7395	 0.1421	-0.5973	-0.9165	 0.0458	-0.8707	67.1390	99.8433	
    66	-0.6020	 0.2927	-0.3092	-0.6720	 0.1712	-0.5007	-0.8707	 0.0528	-0.8179	67.2266	99.8520	
    67	-0.6128	 0.2428	-0.3700	-0.7291	 0.0987	-0.6302	-1.0011	-0.0401	-1.0412	67.0634	99.8565	
    68	-0.8405	 0.1170	-0.7234	-0.9929	-0.0265	-1.0193	-1.2285	-0.1393	-1.3677	66.8015	99.8418	
    69	-1.0613	-0.0189	-1.0802	-1.2226	-0.1306	-1.3531	-1.3929	-0.2317	-1.6247	66.7126	99.8338	
    70	-1.2692	-0.1902	-1.4594	-1.4138	-0.2484	-1.6621	-1.5595	-0.3582	-1.9177	66.6243	99.8425	
    71	-1.5156	-0.3707	-1.8864	-1.5921	-0.3707	-1.9627	-1.7097	-0.4962	-2.2059	66.8000	99.8586	
    72	-1.6053	-0.4692	-2.0745	-1.6219	-0.4263	-2.0481	-1.7406	-0.5374	-2.2780	66.7094	99.8696	
    73	-1.6290	-0.4837	-2.1127	-1.6090	-0.4309	-2.0398	-1.6941	-0.5191	-2.2132	66.7935	99.8670	
    74	-1.4762	-0.3464	-1.8227	-1.4785	-0.3380	-1.8164	-1.5584	-0.4339	-1.9923	67.0548	99.8586	
    75	-1.2505	-0.1354	-1.3860	-1.3584	-0.2018	-1.5600	-1.5241	-0.3360	-1.8600	66.8897	99.8533	
    76	-1.1333	 0.0377	-1.0957	-1.2519	-0.0739	-1.3257	-1.4707	-0.2043	-1.6750	66.7139	99.8519	
    77	-1.0279	 0.1458	-0.8821	-1.1145	 0.0231	-1.0913	-1.3527	-0.1301	-1.4829	66.9783	99.8611	
    78	-1.0329	 0.1860	-0.8468	-1.1471	 0.0280	-1.1190	-1.3441	-0.0811	-1.4252	66.8884	99.8381	
    79	-0.9225	 0.2540	-0.6685	-0.9993	 0.0817	-0.9175	-1.2334	-0.0333	-1.2667	67.0634	99.8471	
    80	-1.0654	 0.1516	-0.9138	-1.2543	-0.1128	-1.3670	-1.5453	-0.2184	-1.7638	66.9022	99.8225	
    81	-1.2665	 0.0855	-1.1811	-1.4680	-0.1697	-1.6375	-1.6894	-0.2544	-1.9438	66.8110	99.8070	
    82	-1.3050	 0.0762	-1.2288	-1.5005	-0.1648	-1.6652	-1.7109	-0.2352	-1.9461	66.6298	99.8057	
    83	-1.2419	 0.1150	-1.1269	-1.4041	-0.0930	-1.4969	-1.5988	-0.1648	-1.7636	66.6269	99.8146	
    84	-1.1857	 0.1640	-1.0217	-1.3274	-0.0208	-1.3481	-1.5031	-0.0828	-1.5859	66.5356	99.8170	
    85	-1.0053	 0.2607	-0.7447	-1.0619	 0.1303	-0.9315	-1.2626	 0.0465	-1.2161	66.6199	99.8460	
    86	-0.9126	 0.2889	-0.6238	-0.9679	 0.1633	-0.8046	-1.2227	 0.0498	-1.1729	66.6212	99.8600	
    87	-0.9461	 0.2394	-0.7067	-1.0490	 0.1257	-0.9232	-1.3223	-0.0019	-1.3242	66.3582	99.8611	
    88	-1.0723	 0.1618	-0.9106	-1.1993	 0.0332	-1.1659	-1.4750	-0.0869	-1.5619	66.2698	99.8546	
    89	-1.2872	 0.0007	-1.2865	-1.4442	-0.1053	-1.5494	-1.6637	-0.2055	-1.8693	66.0912	99.8424	
    90	-1.5099	-0.1653	-1.6753	-1.6362	-0.2360	-1.8721	-1.8074	-0.3285	-2.1359	66.1807	99.8432	
    91	-1.6932	-0.3070	-2.0003	-1.7539	-0.3334	-2.0872	-1.9156	-0.4293	-2.3449	66.2698	99.8574	
    92	-1.8845	-0.4536	-2.3380	-1.9382	-0.4469	-2.3851	-2.1109	-0.5629	-2.6739	66.1804	99.8680	
    93	-1.9879	-0.5317	-2.5196	-2.0322	-0.4799	-2.5120	-2.2341	-0.6294	-2.8636	66.0006	99.8847	
    94	-2.0649	-0.5502	-2.6151	-2.0920	-0.4919	-2.5838	-2.2793	-0.6251	-2.9043	65.9117	99.8830	
    95	-2.0333	-0.5308	-2.5641	-2.0707	-0.4663	-2.5369	-2.2255	-0.5804	-2.8059	65.8241	99.8755	
    96	-1.8885	-0.3983	-2.2868	-1.9342	-0.3822	-2.3163	-2.0773	-0.4764	-2.5537	66.0033	99.8627	
    97	-1.6786	-0.1970	-1.8756	-1.8141	-0.2459	-2.0599	-1.9854	-0.3641	-2.3495	66.0012	99.8503	
    98	-1.5436	 0.0158	-1.5278	-1.6590	-0.0757	-1.7346	-1.9092	-0.2289	-2.1380	66.0901	99.8638	
    99	-1.4293	 0.1438	-1.2855	-1.5738	 0.0266	-1.5472	-1.8669	-0.0932	-1.9601	65.5500	99.8565	
   100	-1.3447	 0.2825	-1.0622	-1.4425	 0.1324	-1.3100	-1.7646	 0.0038	-1.7608	65.8212	99.8629	
   101	-1.3743	 0.2931	-1.0812	-1.4963	 0.1117	-1.3845	-1.7934	-0.0034	-1.7968	65.9104	99.8489	
   102	-1.4916	 0.2353	-1.2563	-1.6927	 0.0156	-1.6770	-1.9860	-0.0917	-2.0777	65.7242	99.8298	
   103	-1.6641	 0.1435	-1.5206	-1.9095	-0.0931	-2.0025	-2.1838	-0.1724	-2.3562	65.4460	99.8115	
   104	-1.7627	 0.1405	-1.6223	-1.9814	-0.0875	-2.0688	-2.2289	-0.1680	-2.3969	65.5397	99.8129	
   105	-1.7775	 0.1458	-1.6318	-1.9746	-0.0833	-2.0578	-2.2328	-0.1377	-2.3705	65.3593	99.8119	
   106	-1.7223	 0.1798	-1.5426	-1.9107	-0.0066	-1.9172	-2.1370	-0.0557	-2.1927	65.1861	99.8152	
   107	-1.5952	 0.2725	-1.3227	-1.7316	 0.1286	-1.6028	-1.9476	 0.0742	-1.8733	65.1988	99.8299	
   108	-1.4227	 0.3643	-1.0584	-1.5139	 0.2503	-1.2635	-1.7772	 0.1704	-1.6068	65.2043	99.8527	
   109	-1.3694	 0.3682	-1.0012	-1.4942	 0.2499	-1.2442	-1.8021	 0.1329	-1.6692	65.1957	99.8609	
   110	-1.4335	 0.3143	-1.1191	-1.5890	 0.2040	-1.3849	-1.9070	 0.0889	-1.8181	64.9204	99.8593	
   111	-1.5616	 0.2066	-1.3550	-1.7545	 0.0772	-1.6772	-2.0787	-0.0300	-2.1087	64.8176	99.8508	
   112	-1.7764	 0.0455	-1.7309	-1.9730	-0.0574	-2.0303	-2.2171	-0.1606	-2.3777	65.0009	99.8419	
   113	-1.9962	-0.1907	-2.1869	-2.1409	-0.2231	-2.3639	-2.3569	-0.3139	-2.6708	64.9154	99.8531	
   114	-2.2110	-0.3518	-2.5628	-2.2995	-0.3458	-2.6452	-2.5005	-0.4369	-2.9374	65.0075	99.8635	
   115	-2.4180	-0.5081	-2.9261	-2.4634	-0.4467	-2.9100	-2.6605	-0.5483	-3.2088	64.9174	99.8777	
   116	-2.4811	-0.5469	-3.0280	-2.5104	-0.4632	-2.9734	-2.7129	-0.5703	-3.2832	64.8272	99.8842	
   117	-2.4880	-0.5367	-3.0248	-2.5035	-0.4590	-2.9624	-2.6716	-0.5444	-3.2160	64.9243	99.8769	
   118	-2.4022	-0.4984	-2.9006	-2.4232	-0.4344	-2.8575	-2.5949	-0.4962	-3.0911	64.8378	99.8709	
   119	-2.3284	-0.4096	-2.7380	-2.3670	-0.3749	-2.7417	-2.5228	-0.4290	-2.9518	64.9293	99.8611	
   120	-2.1431	-0.2379	-2.3810	-2.2553	-0.2687	-2.5239	-2.4499	-0.3505	-2.8004	65.0075	99.8526	
   121	-2.1107	-0.0882	-2.1988	-2.2625	-0.1735	-2.4359	-2.5079	-0.2779	-2.7858	64.9042	99.8505	
   122	-1.9610	 0.1194	-1.8416	-2.1203	 0.0012	-2.1189	-2.4532	-0.1235	-2.5767	64.6226	99.8609	
   123	-1.9157	 0.2338	-1.6820	-2.0881	 0.0958	-1.9922	-2.4293	-0.0103	-2.4397	64.3496	99.8542	
   124	-1.8547	 0.3578	-1.4968	-1.9969	 0.1893	-1.8075	-2.3145	 0.1055	-2.2091	64.5454	99.8457	
   125	-1.7748	 0.4214	-1.3534	-1.9330	 0.2660	-1.6669	-2.2430	 0.1613	-2.0818	64.5480	99.8489	
   126	-1.8793	 0.3283	-1.5510	-2.1318	 0.1311	-2.0007	-2.4540	 0.0505	-2.4035	64.1558	99.8261	
   127	-2.0420	 0.2714	-1.7706	-2.3017	 0.0389	-2.2627	-2.6178	-0.0306	-2.6484	64.2353	99.8151	
   128	-2.1031	 0.2626	-1.8406	-2.3411	 0.0395	-2.3014	-2.6446	-0.0038	-2.6484	64.0589	99.8124	
   129	-2.0627	 0.3019	-1.7609	-2.2764	 0.1292	-2.1471	-2.5422	 0.0933	-2.4490	63.8999	99.8180	
   130	-1.9671	 0.3751	-1.5920	-2.1519	 0.2308	-1.9210	-2.4111	 0.1975	-2.2136	63.8290	99.8259	
   131	-1.8025	 0.4621	-1.3404	-1.9326	 0.3783	-1.5541	-2.1987	 0.3309	-1.8678	63.7683	99.8475	
   132	-1.6931	 0.5150	-1.1781	-1.8020	 0.4712	-1.3307	-2.1037	 0.4016	-1.7021	63.5976	99.8655	
   133	-1.6546	 0.5243	-1.1303	-1.7824	 0.4709	-1.3114	-2.1162	 0.3828	-1.7333	63.5839	99.8693	
   134	-1.7275	 0.4505	-1.2770	-1.9266	 0.3696	-1.5569	-2.2834	 0.2450	-2.0384	63.6346	99.8661	
   135	-1.9247	 0.3292	-1.5955	-2.1382	 0.2392	-1.8989	-2.4819	 0.1530	-2.3289	63.3492	99.8538	
   136	-2.0626	 0.1866	-1.8761	-2.3302	 0.1085	-2.2216	-2.6387	-0.0001	-2.6387	63.4190	99.8477	
   137	-2.2785	 0.0104	-2.2680	-2.5418	-0.0219	-2.5636	-2.8118	-0.1416	-2.9534	63.4146	99.8516	
   138	-2.4628	-0.1463	-2.6090	-2.6885	-0.1620	-2.8504	-2.9908	-0.2868	-3.2776	63.3994	99.8640	
   139	-2.6480	-0.3180	-2.9660	-2.8403	-0.2804	-3.1206	-3.1404	-0.4135	-3.5538	63.3046	99.8766	
   140	-2.7288	-0.3966	-3.1254	-2.8564	-0.3277	-3.1840	-3.1549	-0.4663	-3.6212	63.5025	99.8888	
   141	-2.7919	-0.4354	-3.2273	-2.9170	-0.3526	-3.2695	-3.2073	-0.4883	-3.6956	63.4103	99.8894	
   142	-2.7998	-0.4403	-3.2401	-2.9110	-0.3614	-3.2722	-3.2132	-0.4920	-3.7052	63.4103	99.8911	
   143	-2.7998	-0.4403	-3.2401	-2.9110	-0.3614	-3.2722	-3.1837	-0.4735	-3.6572	63.4211	99.8844	
   144	-2.7535	-0.4262	-3.1796	-2.8520	-0.3624	-3.2142	-3.1032	-0.4556	-3.5588	63.6168	99.8779	
   145	-2.7298	-0.4116	-3.1414	-2.8186	-0.3543	-3.1728	-3.0050	-0.4266	-3.4315	63.9105	99.8659	
   146	-2.6450	-0.3882	-3.0332	-2.7263	-0.3472	-3.0734	-2.8897	-0.3978	-3.2875	64.1032	99.8574	
   147	-2.5908	-0.3693	-2.9600	-2.6392	-0.3184	-2.9575	-2.7849	-0.3538	-3.1387	64.2087	99.8578	
   148	-2.5592	-0.3499	-2.9091	-2.5785	-0.2935	-2.8719	-2.7318	-0.3204	-3.0522	64.2162	99.8618	
   149	-2.5188	-0.3106	-2.8294	-2.5548	-0.2291	-2.7838	-2.6826	-0.2567	-2.9393	64.0459	99.8604	
   150	-2.3345	-0.1539	-2.4884	-2.3713	-0.1285	-2.4996	-2.5403	-0.1564	-2.6968	64.2222	99.8577	
   151	-2.2093	-0.0912	-2.3005	-2.2371	-0.0832	-2.3203	-2.4480	-0.1311	-2.5791	64.3974	99.8655	
   152	-2.2053	-0.1464	-2.3517	-2.2745	-0.1560	-2.4305	-2.4802	-0.1950	-2.6753	64.3892	99.8553	
   153	-2.3246	-0.2342	-2.5588	-2.4034	-0.2230	-2.6263	-2.6263	-0.2650	-2.8914	64.1096	99.8601	
   154	-2.3986	-0.2077	-2.6063	-2.5556	-0.2420	-2.7975	-2.7527	-0.2899	-3.0426	64.0903	99.8403	
   155	-2.4036	-0.1675	-2.5711	-2.6002	-0.2197	-2.8197	-2.7690	-0.2783	-3.0473	64.1763	99.8300	
   156	-2.4499	-0.1816	-2.6315	-2.6873	-0.2485	-2.9357	-2.8783	-0.3034	-3.1817	63.8856	99.8245	
   157	-2.4795	-0.1710	-2.6505	-2.7190	-0.2306	-2.9495	-2.8783	-0.3034	-3.1817	64.0722	99.8242	
   158	-2.4795	-0.1710	-2.6505	-2.7327	-0.2390	-2.9716	-2.9301	-0.3141	-3.2441	63.8766	99.8271	
   159	-2.4943	-0.1657	-2.6600	-2.7712	-0.2254	-2.9965	-2.9752	-0.3097	-3.2849	63.6848	99.8281	
   160	-2.4933	-0.1507	-2.6440	-2.7507	-0.2128	-2.9634	-2.9568	-0.2872	-3.2440	63.6907	99.8288	
   161	-2.4924	-0.1357	-2.6280	-2.7371	-0.2044	-2.9414	-2.9391	-0.2761	-3.2152	63.7865	99.8283	
   162	-2.4776	-0.1410	-2.6185	-2.7037	-0.1963	-2.9000	-2.8874	-0.2654	-3.1528	63.8892	99.8298	
   163	-2.4341	-0.1719	-2.6060	-2.6379	-0.1931	-2.8309	-2.8076	-0.2589	-3.0665	63.9035	99.8359	
   164	-2.4430	-0.1918	-2.6348	-2.5781	-0.1812	-2.7591	-2.7604	-0.2292	-2.9896	63.8308	99.8486	
   165	-2.3957	-0.1627	-2.5583	-2.5311	-0.1647	-2.6956	-2.7139	-0.2109	-2.9248	63.9228	99.8463	
   166	-2.3730	-0.1631	-2.5361	-2.5106	-0.1521	-2.6625	-2.6844	-0.1924	-2.8768	63.8380	99.8458	
   167	-2.4370	-0.2170	-2.6540	-2.5379	-0.1689	-2.7067	-2.7198	-0.2146	-2.9344	63.7536	99.8582	
   168	-2.4992	-0.2408	-2.7400	-2.6198	-0.2193	-2.8391	-2.8023	-0.2665	-3.0689	63.8308	99.8519	
   169	-2.5780	-0.2893	-2.8674	-2.7010	-0.2569	-2.9577	-2.8620	-0.3149	-3.1770	63.9193	99.8521	
   170	-2.6244	-0.3034	-2.9278	-2.7692	-0.2989	-3.0681	-2.9373	-0.3405	-3.2778	63.8181	99.8427	
   171	-2.6401	-0.3132	-2.9533	-2.7897	-0.3115	-3.1012	-2.9498	-0.3592	-3.3090	63.9070	99.8415	
   172	-2.6786	-0.3224	-3.0010	-2.8291	-0.3109	-3.1398	-3.0067	-0.3623	-3.3690	63.7197	99.8463	
   173	-2.7013	-0.3220	-3.0232	-2.8812	-0.3057	-3.1868	-3.0532	-0.3806	-3.4338	63.7101	99.8468	
   174	-2.7249	-0.3365	-3.0615	-2.9077	-0.3096	-3.2172	-3.1168	-0.3987	-3.5154	63.5150	99.8560	
   175	-2.7555	-0.3409	-3.0964	-2.9342	-0.3134	-3.2476	-3.1685	-0.4093	-3.5778	63.4146	99.8614	
   176	-2.7782	-0.3405	-3.1187	-2.9539	-0.3131	-3.2669	-3.1914	-0.4128	-3.6042	63.4125	99.8628	
   177	-2.8009	-0.3400	-3.1409	-2.9736	-0.3128	-3.2863	-3.2143	-0.4163	-3.6306	63.4103	99.8643	
   178	-2.8315	-0.3444	-3.1759	-3.0001	-0.3166	-3.3166	-3.2483	-0.4159	-3.6642	63.3159	99.8651	
   179	-2.8324	-0.3594	-3.1919	-3.0198	-0.3163	-3.3360	-3.2490	-0.4272	-3.6762	63.3159	99.8646	
   180	-2.8472	-0.3541	-3.2014	-3.0266	-0.3205	-3.3470	-3.2601	-0.4233	-3.6834	63.3159	99.8633	
   181	-2.8472	-0.3541	-3.2014	-3.0266	-0.3205	-3.3470	-3.2542	-0.4196	-3.6738	63.3182	99.8618	
   182	-2.8541	-0.3440	-3.1981	-3.0326	-0.3118	-3.3443	-3.2535	-0.4083	-3.6618	63.3204	99.8603	
   183	-2.8532	-0.3289	-3.1821	-3.0181	-0.2904	-3.3084	-3.2292	-0.3821	-3.6113	63.3293	99.8608	
   184	-2.8305	-0.3294	-3.1599	-3.0053	-0.2949	-3.3001	-3.2122	-0.3823	-3.5945	63.3293	99.8576	
   185	-2.8453	-0.3241	-3.1694	-3.0129	-0.3121	-3.3249	-3.2070	-0.3899	-3.5970	63.5150	99.8514	
   186	-2.8463	-0.3391	-3.1854	-3.0198	-0.3163	-3.3360	-3.1841	-0.3864	-3.5706	63.5233	99.8467	
   187	-2.8463	-0.3391	-3.1854	-3.0258	-0.3076	-3.3332	-3.1782	-0.3827	-3.5610	63.5254	99.8465	
   188	-2.8689	-0.3387	-3.2076	-3.0258	-0.3076	-3.3332	-3.1886	-0.3675	-3.5561	63.4383	99.8480	
   189	-2.8611	-0.3338	-3.1949	-3.0250	-0.2946	-3.3195	-3.1598	-0.3603	-3.5201	63.5357	99.8455	
   190	-2.8601	-0.3188	-3.1789	-2.9985	-0.2907	-3.2891	-3.1310	-0.3531	-3.4841	63.7235	99.8460	
   191	-2.8453	-0.3241	-3.1694	-2.9916	-0.2865	-3.2781	-3.1192	-0.3457	-3.4649	63.6346	99.8452	
   192	-2.8522	-0.3139	-3.1661	-2.9848	-0.2823	-3.2670	-3.1185	-0.3343	-3.4529	63.6366	99.8456	
   193	-2.8364	-0.3042	-3.1407	-2.9651	-0.2827	-3.2477	-3.1067	-0.3269	-3.4337	63.6366	99.8442	
   194	-2.8443	-0.3091	-3.1534	-2.9651	-0.2827	-3.2477	-3.1067	-0.3269	-3.4337	63.6386	99.8460	
   195	-2.8364	-0.3042	-3.1407	-2.9643	-0.2697	-3.2339	-3.0890	-0.3158	-3.4048	63.6425	99.8443	
   196	-2.8128	-0.2897	-3.1024	-2.9318	-0.2746	-3.2063	-3.0720	-0.3160	-3.3881	63.7311	99.8437	
   197	-2.8128	-0.2897	-3.1024	-2.9318	-0.2746	-3.2063	-3.0661	-0.3123	-3.3785	63.7330	99.8422	
   198	-2.8197	-0.2795	-3.0992	-2.9250	-0.2704	-3.1953	-3.0543	-0.3049	-3.3592	63.8272	99.8416	
   199	-2.8197	-0.2795	-3.0992	-2.9370	-0.2529	-3.1898	-3.0537	-0.2936	-3.3472	63.7386	99.8423	
   200	-2.8039	-0.2698	-3.0737	-2.9242	-0.2574	-3.1815	-3.0425	-0.2975	-3.3400	63.8272	99.8397	
   201	-2.7960	-0.2649	-3.0610	-2.8985	-0.2665	-3.1649	-3.0314	-0.3014	-3.3328	63.9176	99.8409	
   202	-2.7891	-0.2751	-3.0642	-2.8985	-0.2665	-3.1649	-3.0314	-0.3014	-3.3328	63.8272	99.8416	
   203	-2.7891	-0.2751	-3.0642	-2.8985	-0.2665	-3.1649	-3.0314	-0.3014	-3.3328	63.8272	99.8416	
   204	-2.7970	-0.2799	-3.0769	-2.9053	-0.2707	-3.1759	-3.0373	-0.3051	-3.3424	63.8272	99.8416	
   205	-2.8118	-0.2746	-3.0864	-2.9182	-0.2662	-3.1842	-3.0373	-0.3051	-3.3424	63.9193	99.8408	
   206	-2.8039	-0.2698	-3.0737	-2.9113	-0.2620	-3.1732	-3.0314	-0.3014	-3.3328	63.9193	99.8408	
   207	-2.7891	-0.2751	-3.0642	-2.8985	-0.2665	-3.1649	-3.0203	-0.3053	-3.3257	63.9193	99.8408	
   208	-2.7891	-0.2751	-3.0642	-2.9053	-0.2707	-3.1759	-3.0314	-0.3014	-3.3328	63.8272	99.8382	
   209	-2.8118	-0.2746	-3.0864	-2.9121	-0.2749	-3.1870	-3.0432	-0.3088	-3.3521	63.9176	99.8409	
   210	-2.8197	-0.2795	-3.0992	-2.9318	-0.2746	-3.2063	-3.0491	-0.3125	-3.3617	63.9176	99.8389	
   211	-2.8128	-0.2897	-3.1024	-2.9190	-0.2791	-3.1980	-3.0491	-0.3125	-3.3617	63.8272	99.8416	
   212	-2.8206	-0.2945	-3.1152	-2.9258	-0.2833	-3.2090	-3.0439	-0.3202	-3.3641	63.9193	99.8408	
   213	-2.8285	-0.2994	-3.1279	-2.9326	-0.2875	-3.2201	-3.0498	-0.3239	-3.3737	63.9193	99.8408	
   214	-2.8433	-0.2941	-3.1374	-2.9395	-0.2917	-3.2311	-3.0668	-0.3237	-3.3905	63.9176	99.8409	
   215	-2.8512	-0.2989	-3.1501	-2.9523	-0.2872	-3.2394	-3.0727	-0.3274	-3.4001	63.9176	99.8423	
   216	-2.8512	-0.2989	-3.1501	-2.9395	-0.2917	-3.2311	-3.0668	-0.3237	-3.3905	63.9193	99.8427	
   217	-2.8216	-0.3095	-3.1312	-2.9395	-0.2917	-3.2311	-3.0557	-0.3276	-3.3833	63.8272	99.8397	
   218	-2.8216	-0.3095	-3.1312	-2.9395	-0.2917	-3.2311	-3.0557	-0.3276	-3.3833	63.8272	99.8397	
   219	-2.8443	-0.3091	-3.1534	-2.9531	-0.3001	-3.2532	-3.0675	-0.3350	-3.4025	63.9176	99.8389	
   220	-2.8601	-0.3188	-3.1789	-2.9599	-0.3043	-3.2642	-3.0793	-0.3424	-3.4217	63.9176	99.8423	
   221	-2.8601	-0.3188	-3.1789	-2.9668	-0.3086	-3.2752	-3.0852	-0.3461	-3.4313	63.9158	99.8405	
   222	-2.8601	-0.3188	-3.1789	-2.9668	-0.3086	-3.2752	-3.0741	-0.3500	-3.4241	64.0080	99.8396	
   223	-2.8453	-0.3241	-3.1694	-2.9668	-0.3086	-3.2752	-3.0741	-0.3500	-3.4241	63.9158	99.8385	
   224	-2.8532	-0.3289	-3.1821	-2.9607	-0.3173	-3.2779	-3.0800	-0.3537	-3.4337	63.9158	99.8405	
   225	-2.8532	-0.3289	-3.1821	-2.9736	-0.3128	-3.2863	-3.0859	-0.3575	-3.4433	63.9141	99.8401	
   226	-2.8680	-0.3236	-3.1916	-2.9676	-0.3215	-3.2890	-3.0859	-0.3575	-3.4433	64.0063	99.8397	
   227	-2.8384	-0.3343	-3.1726	-2.9479	-0.3218	-3.2696	-3.0689	-0.3577	-3.4266	63.9158	99.8405	
   228	-2.8384	-0.3343	-3.1726	-2.9479	-0.3218	-3.2696	-3.0637	-0.3653	-3.4290	64.0063	99.8412	
   229	-2.8384	-0.3343	-3.1726	-2.9487	-0.3348	-3.2834	-3.0696	-0.3690	-3.4386	64.0046	99.8379	
   230	-2.8541	-0.3440	-3.1981	-2.9684	-0.3345	-3.3027	-3.0814	-0.3764	-3.4578	64.0046	99.8393	
   231	-2.8541	-0.3440	-3.1981	-2.9684	-0.3345	-3.3027	-3.0925	-0.3725	-3.4650	63.9123	99.8402	
   232	-2.8393	-0.3493	-3.1886	-2.9555	-0.3390	-3.2944	-3.0703	-0.3803	-3.4506	64.0046	99.8393	
   233	-2.8245	-0.3546	-3.1791	-2.9495	-0.3477	-3.2972	-3.0762	-0.3841	-3.4602	63.9105	99.8384	
   234	-2.8393	-0.3493	-3.1886	-2.9563	-0.3519	-3.3082	-3.0821	-0.3878	-3.4698	64.0012	99.8376	
   235	-2.8324	-0.3594	-3.1919	-2.9632	-0.3562	-3.3192	-3.0939	-0.3952	-3.4890	63.9070	99.8381	
   236	-2.8472	-0.3541	-3.2014	-2.9897	-0.3600	-3.3496	-3.1115	-0.4063	-3.5178	63.9944	99.8351	
   237	-2.8393	-0.3493	-3.1886	-2.9837	-0.3688	-3.3523	-3.1063	-0.4139	-3.5203	64.0838	99.8325	
   238	-2.8245	-0.3546	-3.1791	-3.0033	-0.3684	-3.3717	-3.1174	-0.4100	-3.5274	63.8982	99.8268	
   239	-2.8315	-0.3444	-3.1759	-3.0093	-0.3597	-3.3689	-3.1115	-0.4063	-3.5178	63.9910	99.8258	
   240	-2.8315	-0.3444	-3.1759	-3.0230	-0.3681	-3.3910	-3.1404	-0.4135	-3.5538	63.8928	99.8245	
   241	-2.8551	-0.3590	-3.2141	-3.0760	-0.3759	-3.4518	-3.1980	-0.4279	-3.6259	63.7005	99.8237	
   242	-2.8709	-0.3687	-3.2396	-3.0965	-0.3885	-3.4849	-3.2105	-0.4466	-3.6571	63.7903	99.8224	
   243	-2.8561	-0.3740	-3.2301	-3.1033	-0.3927	-3.4959	-3.2111	-0.4580	-3.6691	63.7865	99.8201	
   244	-2.8630	-0.3638	-3.2268	-3.1033	-0.3927	-3.4959	-3.2282	-0.4578	-3.6859	63.7827	99.8219	
   245	-2.8630	-0.3638	-3.2268	-3.1101	-0.3969	-3.5069	-3.2399	-0.4652	-3.7051	63.7790	99.8216	
   246	-2.8551	-0.3590	-3.2141	-3.1093	-0.3839	-3.4932	-3.2393	-0.4538	-3.6931	63.6868	99.8224	
   247	-2.8403	-0.3643	-3.2046	-3.0965	-0.3885	-3.4849	-3.2223	-0.4540	-3.6763	63.6888	99.8207	
   248	-2.8245	-0.3546	-3.1791	-3.0700	-0.3846	-3.4545	-3.2052	-0.4543	-3.6595	63.7809	99.8235	
   249	-2.8176	-0.3647	-3.1824	-3.0700	-0.3846	-3.4545	-3.1941	-0.4582	-3.6523	63.7827	99.8234	
   250	-2.8176	-0.3647	-3.1824	-3.0768	-0.3888	-3.4655	-3.2111	-0.4580	-3.6691	63.6868	99.8224	
   251	-2.8334	-0.3745	-3.2079	-3.0905	-0.3972	-3.4876	-3.2118	-0.4693	-3.6811	63.7809	99.8214	
   252	-2.8640	-0.3789	-3.2428	-3.1041	-0.4056	-3.5096	-3.2295	-0.4804	-3.7100	63.8730	99.8242	
   253	-2.8728	-0.3987	-3.2716	-3.1049	-0.4186	-3.5234	-3.2354	-0.4841	-3.7196	63.7827	99.8255	
   254	-2.8886	-0.4084	-3.2970	-3.1186	-0.4270	-3.5455	-3.2413	-0.4878	-3.7292	63.7846	99.8238	
   255	-2.8719	-0.3837	-3.2556	-3.0648	-0.4063	-3.4710	-3.1941	-0.4582	-3.6523	63.8856	99.8275	
   256	-2.8028	-0.3701	-3.1729	-2.9981	-0.3901	-3.3882	-3.1306	-0.4401	-3.5707	63.8892	99.8278	
   257	-2.8009	-0.3400	-3.1409	-2.9905	-0.3730	-3.3634	-3.1351	-0.4211	-3.5563	63.8874	99.8279	
   258	-2.7989	-0.3100	-3.1089	-3.0555	-0.3632	-3.4187	-3.2268	-0.4351	-3.6619	63.6769	99.8240	
   259	-2.7960	-0.2649	-3.0610	-3.1326	-0.3360	-3.4685	-3.3236	-0.4414	-3.7650	63.4597	99.8195	
   260	-2.7891	-0.2751	-3.0642	-3.1727	-0.3483	-3.5209	-3.4166	-0.4780	-3.8947	63.1452	99.8257	
   261	-2.8355	-0.2892	-3.1247	-3.2326	-0.3602	-3.5927	-3.4979	-0.5072	-4.0051	63.0329	99.8309	
   262	-2.8808	-0.2883	-3.1691	-3.2916	-0.3592	-3.6507	-3.5548	-0.5103	-4.0651	62.9299	99.8294	
   263	-2.9203	-0.3126	-3.2328	-3.3044	-0.3547	-3.6590	-3.5600	-0.5027	-4.0626	62.8481	99.8362	
   264	-2.9212	-0.3276	-3.2488	-3.2787	-0.3638	-3.6424	-3.5378	-0.5105	-4.0483	62.9508	99.8411	
   265	-2.9133	-0.3227	-3.2361	-3.2531	-0.3729	-3.6258	-3.4979	-0.5072	-4.0051	63.1501	99.8366	
   266	-2.8414	-0.2640	-3.1054	-3.1984	-0.3392	-3.5375	-3.4271	-0.4628	-3.8898	63.2492	99.8254	
   267	-2.8256	-0.2543	-3.0799	-3.1984	-0.3392	-3.5375	-3.4212	-0.4590	-3.8802	63.2469	99.8198	
   268	-2.8720	-0.2684	-3.1404	-3.2189	-0.3518	-3.5706	-3.3518	-0.4372	-3.7890	63.5617	99.8022	
   269	-2.8937	-0.2530	-3.1466	-3.1318	-0.3231	-3.4547	-3.2560	-0.3553	-3.6113	63.6007	99.8082	
   270	-2.7971	-0.1647	-2.9618	-2.9422	-0.2312	-3.1733	-3.0745	-0.2630	-3.3375	63.9944	99.8235	
   271	-2.5673	-0.1241	-2.6915	-2.6989	-0.1186	-2.8174	-2.8951	-0.2048	-3.0999	63.8181	99.8573	
   272	-2.4756	-0.1109	-2.5866	-2.5808	-0.1206	-2.7014	-2.8041	-0.2022	-3.0063	64.0029	99.8611	
   273	-2.5485	-0.1847	-2.7332	-2.7258	-0.2348	-2.9606	-2.9242	-0.3104	-3.2345	64.0739	99.8405	
   274	-2.7713	-0.3506	-3.1219	-2.9905	-0.3730	-3.3634	-3.1862	-0.4205	-3.6066	63.4125	99.8334	
   275	-2.7812	-0.2702	-3.0515	-3.0258	-0.3076	-3.3332	-3.1945	-0.3712	-3.5657	63.5025	99.8266	
   276	-2.7616	-0.2005	-2.9620	-3.0567	-0.2768	-3.3334	-3.2168	-0.3633	-3.5801	63.6710	99.8160	
   277	-2.7773	-0.2102	-2.9875	-3.1105	-0.2975	-3.4079	-3.2921	-0.3888	-3.6809	63.4662	99.8129	
   278	-2.8177	-0.2495	-3.0672	-3.1719	-0.3353	-3.5072	-3.3570	-0.4296	-3.7866	63.3616	99.8111	
   279	-2.8887	-0.2932	-3.1819	-3.2274	-0.3819	-3.6092	-3.4107	-0.4743	-3.8851	63.4532	99.8120	
   280	-2.9597	-0.3368	-3.2965	-3.2691	-0.4201	-3.6892	-3.4298	-0.5081	-3.9379	63.6489	99.8125	
   281	-2.9774	-0.3766	-3.3540	-3.2776	-0.4502	-3.7277	-3.4364	-0.5232	-3.9596	63.5596	99.8120	
   282	-2.9863	-0.3965	-3.3827	-3.2784	-0.4632	-3.7415	-3.4260	-0.5384	-3.9644	63.6570	99.8131	
   283	-3.0011	-0.3912	-3.3922	-3.2921	-0.4716	-3.7635	-3.4666	-0.5530	-4.0196	63.6469	99.8163	
   284	-3.0089	-0.3960	-3.4050	-3.3314	-0.4709	-3.8022	-3.5072	-0.5676	-4.0748	63.5427	99.8161	
   285	-3.0159	-0.3858	-3.4017	-3.3442	-0.4664	-3.8105	-3.5412	-0.5672	-4.1084	63.4400	99.8185	
   286	-3.0316	-0.3956	-3.4272	-3.3639	-0.4661	-3.8299	-3.5648	-0.5820	-4.1468	63.4356	99.8234	
   287	-3.0474	-0.4053	-3.4527	-3.3707	-0.4703	-3.8409	-3.5884	-0.5969	-4.1852	63.4312	99.8303	
   288	-3.0641	-0.4300	-3.4941	-3.3912	-0.4829	-3.8740	-3.6068	-0.6193	-4.2261	63.4289	99.8334	
   289	-3.1203	-0.4790	-3.5993	-3.4262	-0.5169	-3.9429	-3.6880	-0.6485	-4.3365	63.1354	99.8447	
   290	-3.2140	-0.5222	-3.7362	-3.4997	-0.5372	-4.0368	-3.7817	-0.6965	-4.4782	63.1255	99.8589	
   291	-3.3146	-0.5553	-3.8699	-3.6330	-0.5695	-4.2024	-3.9375	-0.7399	-4.6774	62.8100	99.8600	
   292	-3.3747	-0.5491	-3.9238	-3.7048	-0.5640	-4.2687	-3.9944	-0.7429	-4.7374	62.8045	99.8579	
   293	-3.3816	-0.5389	-3.9206	-3.7048	-0.5640	-4.2687	-4.0003	-0.7466	-4.7470	62.8979	99.8587	
   294	-3.3807	-0.5239	-3.9046	-3.7032	-0.5381	-4.2412	-3.9702	-0.7168	-4.6869	62.9113	99.8557	
   295	-3.3412	-0.4996	-3.8409	-3.6639	-0.5388	-4.2025	-3.9466	-0.7019	-4.6485	62.9087	99.8512	
   296	-3.3176	-0.4851	-3.8027	-3.6631	-0.5258	-4.1888	-3.9289	-0.6908	-4.6197	62.9087	99.8458	
   297	-3.3245	-0.4749	-3.7994	-3.6767	-0.5342	-4.2108	-3.9459	-0.6906	-4.6365	62.9033	99.8407	
   298	-3.3324	-0.4798	-3.8122	-3.6835	-0.5384	-4.2219	-3.9348	-0.6945	-4.6293	63.0046	99.8382	
   299	-3.3334	-0.4948	-3.8281	-3.6775	-0.5472	-4.2246	-3.9466	-0.7019	-4.6485	62.9060	99.8426	
   300	-3.3491	-0.5045	-3.8536	-3.6904	-0.5426	-4.2329	-3.9525	-0.7057	-4.6581	62.9087	99.8458	
   301	-3.3728	-0.5191	-3.8919	-3.7040	-0.5511	-4.2550	-3.9591	-0.7207	-4.6798	63.0072	99.8483	
   302	-3.3974	-0.5486	-3.9461	-3.7177	-0.5595	-4.2770	-3.9879	-0.7279	-4.7158	62.8155	99.8551	
   303	-3.4526	-0.5826	-4.0353	-3.7390	-0.5850	-4.3239	-4.0062	-0.7504	-4.7566	62.9193	99.8596	
   304	-3.4920	-0.6069	-4.0990	-3.7338	-0.6067	-4.3404	-4.0128	-0.7654	-4.7782	63.0226	99.8660	
   305	-3.5088	-0.6316	-4.1404	-3.7542	-0.6193	-4.3735	-4.0083	-0.7844	-4.7927	63.1230	99.8650	
   306	-3.5246	-0.6413	-4.1659	-3.7679	-0.6278	-4.3956	-4.0024	-0.7807	-4.7831	63.1304	99.8605	
   307	-3.5157	-0.6215	-4.1372	-3.7490	-0.6410	-4.3900	-3.9559	-0.7623	-4.7182	63.3320	99.8467	
   308	-3.4694	-0.6074	-4.0767	-3.7294	-0.6414	-4.3706	-3.9042	-0.7517	-4.6558	63.4312	99.8338	
   309	-3.4615	-0.6025	-4.0640	-3.7225	-0.6372	-4.3596	-3.8924	-0.7443	-4.6366	63.4334	99.8322	
   310	-3.4447	-0.5778	-4.0225	-3.6952	-0.6203	-4.3155	-3.8577	-0.7334	-4.5910	63.6264	99.8324	
   311	-3.4063	-0.5685	-3.9748	-3.6687	-0.6165	-4.2851	-3.8230	-0.7224	-4.5454	63.6285	99.8272	
   312	-3.3895	-0.5438	-3.9333	-3.6346	-0.5954	-4.2299	-3.7817	-0.6965	-4.4782	63.7306	99.8270	
   313	-3.3659	-0.5292	-3.8951	-3.5944	-0.5832	-4.1775	-3.7411	-0.6819	-4.4230	63.8303	99.8284	
   314	-3.3580	-0.5244	-3.8824	-3.5679	-0.5793	-4.1471	-3.7234	-0.6708	-4.3942	63.8341	99.8307	
   315	-3.3649	-0.5142	-3.8791	-3.5611	-0.5751	-4.1361	-3.7175	-0.6671	-4.3845	63.9295	99.8318	
   316	-3.3570	-0.5094	-3.8664	-3.5474	-0.5667	-4.1140	-3.6887	-0.6599	-4.3485	64.0282	99.8312	
   317	-3.3343	-0.5098	-3.8441	-3.5209	-0.5628	-4.0836	-3.6717	-0.6601	-4.3318	64.0282	99.8347	
   318	-3.3343	-0.5098	-3.8441	-3.5209	-0.5628	-4.0836	-3.6769	-0.6525	-4.3293	63.9349	99.8340	
   319	-3.3343	-0.5098	-3.8441	-3.5209	-0.5628	-4.0836	-3.6717	-0.6601	-4.3318	64.0282	99.8347	
   320	-3.3343	-0.5098	-3.8441	-3.5209	-0.5628	-4.0836	-3.6880	-0.6485	-4.3365	63.8397	99.8349	
   321	-3.3491	-0.5045	-3.8536	-3.5338	-0.5583	-4.0919	-3.6828	-0.6562	-4.3389	64.0282	99.8347	
   322	-3.3491	-0.5045	-3.8536	-3.5398	-0.5495	-4.0892	-3.6880	-0.6485	-4.3365	63.9349	99.8355	
   323	-3.3412	-0.4996	-3.8409	-3.5201	-0.5498	-4.0699	-3.6651	-0.6450	-4.3101	64.0317	99.8350	
   324	-3.3264	-0.5049	-3.8314	-3.5073	-0.5544	-4.0616	-3.6651	-0.6450	-4.3101	63.9367	99.8359	
   325	-3.3264	-0.5049	-3.8314	-3.5073	-0.5544	-4.0616	-3.6651	-0.6450	-4.3101	63.9367	99.8359	
   326	-3.3412	-0.4996	-3.8409	-3.5141	-0.5586	-4.0726	-3.6710	-0.6488	-4.3197	64.0299	99.8351	
   327	-3.3491	-0.5045	-3.8536	-3.5270	-0.5540	-4.0809	-3.6821	-0.6448	-4.3269	63.9367	99.8359	
   328	-3.3491	-0.5045	-3.8536	-3.5270	-0.5540	-4.0809	-3.6710	-0.6488	-4.3197	64.0317	99.8350	
   329	-3.3412	-0.4996	-3.8409	-3.5201	-0.5498	-4.0699	-3.6592	-0.6413	-4.3005	64.0334	99.8333	
   330	-3.3334	-0.4948	-3.8281	-3.5005	-0.5502	-4.0505	-3.6422	-0.6416	-4.2837	64.1282	99.8344	
   331	-3.3186	-0.5001	-3.8187	-3.5005	-0.5502	-4.0505	-3.6311	-0.6455	-4.2765	64.1282	99.8324	
   332	-3.3255	-0.4899	-3.8154	-3.4876	-0.5547	-4.0422	-3.6363	-0.6379	-4.2741	64.1282	99.8329	
   333	-3.3255	-0.4899	-3.8154	-3.4876	-0.5547	-4.0422	-3.6252	-0.6418	-4.2669	64.2228	99.8320	
   334	-3.3255	-0.4899	-3.8154	-3.4748	-0.5592	-4.0339	-3.6304	-0.6341	-4.2645	64.1298	99.8333	
   335	-3.3255	-0.4899	-3.8154	-3.4679	-0.5550	-4.0229	-3.6075	-0.6307	-4.2381	64.2275	99.8327	
   336	-3.3028	-0.4904	-3.7932	-3.4483	-0.5554	-4.0035	-3.5793	-0.6348	-4.2141	64.3217	99.8317	
   337	-3.2959	-0.5005	-3.7964	-3.4483	-0.5554	-4.0035	-3.5793	-0.6348	-4.2141	64.2290	99.8326	
   338	-3.3038	-0.5054	-3.8092	-3.4551	-0.5596	-4.0146	-3.5800	-0.6461	-4.2262	64.3217	99.8333	
   339	-3.3264	-0.5049	-3.8314	-3.4491	-0.5683	-4.0173	-3.5800	-0.6461	-4.2262	64.4173	99.8347	
   340	-3.3264	-0.5049	-3.8314	-3.4491	-0.5683	-4.0173	-3.5800	-0.6461	-4.2262	64.4173	99.8347	
   341	-3.3264	-0.5049	-3.8314	-3.4423	-0.5641	-4.0063	-3.5682	-0.6387	-4.2070	64.4201	99.8350	
   342	-3.3038	-0.5054	-3.8092	-3.4226	-0.5645	-3.9869	-3.5401	-0.6429	-4.1830	64.5139	99.8341	
   343	-3.2890	-0.5107	-3.7997	-3.4097	-0.5690	-3.9786	-3.5290	-0.6468	-4.1758	64.5139	99.8341	
   344	-3.2890	-0.5107	-3.7997	-3.3969	-0.5735	-3.9703	-3.5290	-0.6468	-4.1758	64.5139	99.8361	
   345	-3.2890	-0.5107	-3.7997	-3.4029	-0.5648	-3.9676	-3.5231	-0.6431	-4.1662	64.5152	99.8360	
   346	-3.2890	-0.5107	-3.7997	-3.3901	-0.5693	-3.9593	-3.5231	-0.6431	-4.1662	64.5152	99.8379	
   347	-3.2890	-0.5107	-3.7997	-3.3901	-0.5693	-3.9593	-3.5061	-0.6433	-4.1494	64.6100	99.8354	
   348	-3.2663	-0.5112	-3.7774	-3.3636	-0.5655	-3.9289	-3.4832	-0.6398	-4.1230	64.6113	99.8373	
   349	-3.2584	-0.5063	-3.7647	-3.3439	-0.5658	-3.9096	-3.4662	-0.6400	-4.1062	64.7046	99.8384	
   350	-3.2584	-0.5063	-3.7647	-3.3379	-0.5745	-3.9123	-3.4662	-0.6400	-4.1062	64.7046	99.8369	
   351	-3.2663	-0.5112	-3.7774	-3.3379	-0.5745	-3.9123	-3.4662	-0.6400	-4.1062	64.7058	99.8387	
   352	-3.2663	-0.5112	-3.7774	-3.3507	-0.5700	-3.9206	-3.4662	-0.6400	-4.1062	64.7058	99.8368	
   353	-3.2663	-0.5112	-3.7774	-3.3507	-0.5700	-3.9206	-3.4551	-0.6440	-4.0990	64.7989	99.8359	
   354	-3.2515	-0.5165	-3.7679	-3.3182	-0.5749	-3.8930	-3.4321	-0.6405	-4.0726	64.8011	99.8381	
   355	-3.2436	-0.5116	-3.7552	-3.3054	-0.5794	-3.8847	-3.4210	-0.6444	-4.0654	64.8928	99.8373	
   356	-3.2367	-0.5218	-3.7585	-3.2925	-0.5839	-3.8763	-3.4210	-0.6444	-4.0654	64.8011	99.8400	
   357	-3.2367	-0.5218	-3.7585	-3.2925	-0.5839	-3.8763	-3.4099	-0.6483	-4.0583	64.8939	99.8391	
   358	-3.2367	-0.5218	-3.7585	-3.2985	-0.5752	-3.8736	-3.4099	-0.6483	-4.0583	64.8939	99.8407	
   359	-3.2367	-0.5218	-3.7585	-3.2857	-0.5797	-3.8653	-3.3981	-0.6409	-4.0390	64.8960	99.8394	
   360	-3.2209	-0.5121	-3.7330	-3.2592	-0.5759	-3.8349	-3.3641	-0.6414	-4.0055	65.0809	99.8396	
   361	-3.1982	-0.5125	-3.7107	-3.2395	-0.5762	-3.8156	-3.3471	-0.6416	-3.9887	65.0809	99.8396	
   362	-3.1913	-0.5227	-3.7140	-3.2267	-0.5807	-3.8073	-3.3471	-0.6416	-3.9887	64.9894	99.8423	
   363	-3.1982	-0.5125	-3.7107	-3.2267	-0.5807	-3.8073	-3.3360	-0.6455	-3.9815	65.1731	99.8406	
   364	-3.1834	-0.5178	-3.7012	-3.2198	-0.5765	-3.7963	-3.3301	-0.6418	-3.9719	65.0817	99.8414	
   365	-3.1834	-0.5178	-3.7012	-3.2002	-0.5769	-3.7769	-3.3072	-0.6383	-3.9455	65.1756	99.8427	
   366	-3.1528	-0.5134	-3.6663	-3.1608	-0.5775	-3.7382	-3.2672	-0.6350	-3.9023	65.2682	99.8422	
   367	-3.1153	-0.5192	-3.6345	-3.1411	-0.5779	-3.7189	-3.2502	-0.6353	-3.8855	65.1764	99.8411	
   368	-3.1153	-0.5192	-3.6345	-3.1343	-0.5736	-3.7079	-3.2443	-0.6316	-3.8759	65.1772	99.8430	
   369	-3.1075	-0.5143	-3.6218	-3.1146	-0.5740	-3.6885	-3.2273	-0.6318	-3.8591	65.2690	99.8440	
   370	-3.0996	-0.5095	-3.6091	-3.1078	-0.5698	-3.6775	-3.2214	-0.6281	-3.8495	65.2690	99.8440	
   371	-3.0917	-0.5046	-3.5963	-3.0881	-0.5701	-3.6582	-3.1926	-0.6209	-3.8135	65.3620	99.8419	
   372	-3.0463	-0.5055	-3.5519	-3.0420	-0.5666	-3.6084	-3.1416	-0.6215	-3.7631	65.4540	99.8428	
   373	-3.0236	-0.5060	-3.5296	-3.0223	-0.5669	-3.5891	-3.1246	-0.6217	-3.7463	65.4540	99.8428	
   374	-3.0157	-0.5011	-3.5169	-3.0026	-0.5672	-3.5698	-3.1076	-0.6220	-3.7295	65.5451	99.8439	
   375	-3.0079	-0.4963	-3.5041	-2.9890	-0.5588	-3.5477	-3.0958	-0.6146	-3.7103	65.5457	99.8457	
   376	-2.9931	-0.5016	-3.4947	-2.9821	-0.5546	-3.5367	-3.0840	-0.6071	-3.6911	65.4558	99.8449	
   377	-2.9625	-0.4972	-3.4597	-2.9428	-0.5553	-3.4980	-3.0441	-0.6039	-3.6479	65.5473	99.8444	
   378	-2.9398	-0.4976	-3.4374	-2.9103	-0.5601	-3.4703	-3.0277	-0.6154	-3.6432	65.6371	99.8485	
   379	-2.9408	-0.5127	-3.4534	-2.9308	-0.5728	-3.5034	-3.0343	-0.6305	-3.6648	65.6366	99.8448	
   380	-2.9339	-0.5228	-3.4567	-2.9308	-0.5728	-3.5034	-3.0343	-0.6305	-3.6648	65.5462	99.8456	
   381	-2.9339	-0.5228	-3.4567	-2.9436	-0.5682	-3.5117	-3.0343	-0.6305	-3.6648	65.5462	99.8437	
   382	-2.9269	-0.5330	-3.4599	-2.9504	-0.5724	-3.5228	-3.0343	-0.6305	-3.6648	65.4558	99.8411	
   383	-2.9200	-0.5431	-3.4632	-2.9376	-0.5770	-3.5145	-3.0232	-0.6344	-3.6576	65.4564	99.8429	
   384	-2.9052	-0.5485	-3.4537	-2.9248	-0.5815	-3.5062	-3.0069	-0.6460	-3.6528	65.5468	99.8436	
   385	-2.8904	-0.5538	-3.4442	-2.9179	-0.5773	-3.4951	-3.0010	-0.6423	-3.6432	65.4564	99.8444	
   386	-2.8747	-0.5441	-3.4187	-2.8983	-0.5776	-3.4758	-2.9840	-0.6425	-3.6264	65.5468	99.8436	
   387	-2.8589	-0.5343	-3.3932	-2.8786	-0.5780	-3.4564	-2.9781	-0.6388	-3.6168	65.5462	99.8437	
   388	-2.8589	-0.5343	-3.3932	-2.8846	-0.5692	-3.4537	-2.9663	-0.6314	-3.5976	65.5473	99.8421	
   389	-2.8352	-0.5198	-3.3550	-2.8444	-0.5569	-3.4013	-2.9146	-0.6207	-3.5352	65.7295	99.8425	
   390	-2.7741	-0.5110	-3.2851	-2.7914	-0.5492	-3.3405	-2.8740	-0.6061	-3.4800	65.6395	99.8418	
   391	-2.7356	-0.5017	-3.2373	-2.7838	-0.5320	-3.3157	-2.8674	-0.5910	-3.4584	65.4582	99.8397	
   392	-2.7031	-0.4673	-3.1704	-2.7762	-0.5149	-3.2909	-2.8608	-0.5760	-3.4367	65.4564	99.8342	
   393	-2.6627	-0.4280	-3.0907	-2.7754	-0.5019	-3.2772	-2.8653	-0.5570	-3.4223	65.3627	99.8240	
   394	-2.6390	-0.4134	-3.0525	-2.7549	-0.4893	-3.2441	-2.8358	-0.5385	-3.3743	65.3640	99.8206	
   395	-2.6085	-0.4090	-3.0175	-2.7147	-0.4770	-3.1916	-2.7834	-0.5164	-3.2999	65.3674	99.8196	
   396	-2.5908	-0.3693	-2.9600	-2.6549	-0.4651	-3.1199	-2.6970	-0.4949	-3.1918	65.8212	99.8144	
   397	-2.5375	-0.3653	-2.9028	-2.5669	-0.4233	-2.9902	-2.5686	-0.4360	-3.0046	65.8261	99.8164	
   398	-2.4379	-0.3473	-2.7852	-2.4609	-0.4078	-2.8687	-2.4933	-0.4105	-2.9037	65.7377	99.8196	
   399	-2.4724	-0.4117	-2.8841	-2.4557	-0.4295	-2.8852	-2.4960	-0.4558	-2.9519	65.8273	99.8380	
   400	-2.5512	-0.4603	-3.0115	-2.4847	-0.4723	-2.9568	-2.5661	-0.4890	-3.0551	65.7385	99.8493	
   401	-2.5512	-0.4603	-3.0115	-2.4787	-0.4810	-2.9596	-2.5609	-0.4966	-3.0575	65.8270	99.8485	
   402	-2.5897	-0.4695	-3.0592	-2.5582	-0.4926	-3.0507	-2.6421	-0.5258	-3.1679	65.7354	99.8465	
   403	-2.5464	-0.3852	-2.9316	-2.6071	-0.4356	-3.0426	-2.6977	-0.5062	-3.2039	65.6399	99.8383	
   404	-2.5277	-0.3304	-2.8581	-2.7235	-0.4077	-3.1312	-2.8161	-0.4933	-3.3094	65.1756	99.8187	
   405	-2.5198	-0.3256	-2.8454	-2.7886	-0.3980	-3.1864	-2.9261	-0.5297	-3.4558	64.8844	99.8256	
   406	-2.5740	-0.3445	-2.9186	-2.8219	-0.4061	-3.2279	-2.9889	-0.5365	-3.5254	64.6974	99.8346	
   407	-2.5986	-0.3741	-2.9728	-2.8235	-0.4320	-3.2554	-3.0080	-0.5703	-3.5783	64.7887	99.8423	
   408	-2.6154	-0.3989	-3.0143	-2.8123	-0.4624	-3.2746	-2.9976	-0.5856	-3.5831	64.8844	99.8422	
   409	-2.5602	-0.3649	-2.9251	-2.7729	-0.4631	-3.2359	-2.9458	-0.5749	-3.5207	65.0691	99.8302	
   410	-2.5760	-0.3746	-2.9506	-2.7781	-0.4414	-3.2194	-2.9327	-0.5448	-3.4774	64.8907	99.8326	
   411	-2.5750	-0.3596	-2.9346	-2.7577	-0.4288	-3.1863	-2.8456	-0.5119	-3.3574	65.1764	99.8207	
   412	-2.5819	-0.3494	-2.9313	-2.6986	-0.4298	-3.1283	-2.7571	-0.4563	-3.2133	65.2786	99.8118	
   413	-2.5376	-0.2500	-2.7877	-2.5279	-0.3246	-2.8525	-2.5794	-0.3337	-2.9131	65.6486	99.8261	
   414	-2.3740	-0.1781	-2.5521	-2.3452	-0.2370	-2.5821	-2.4045	-0.2565	-2.6610	65.7404	99.8348	
   415	-2.2013	-0.2016	-2.4030	-2.1605	-0.2228	-2.3832	-2.2757	-0.2847	-2.5604	65.8283	99.8583	
   416	-2.2289	-0.2763	-2.5051	-2.2216	-0.3600	-2.5816	-2.3964	-0.4042	-2.8006	65.8228	99.8489	
   417	-2.4389	-0.3623	-2.8012	-2.4052	-0.4606	-2.8657	-2.5241	-0.4517	-2.9758	65.8245	99.8312	
   418	-2.4823	-0.3313	-2.8137	-2.5934	-0.4272	-3.0206	-2.7331	-0.5284	-3.2615	65.7238	99.8372	
   419	-2.5721	-0.3145	-2.8866	-2.7107	-0.4123	-3.1228	-2.7525	-0.4752	-3.2278	65.6371	99.8105	
   420	-2.5188	-0.3106	-2.8294	-2.6902	-0.3997	-3.0897	-2.7990	-0.4935	-3.2926	65.3579	99.8243	
   421	-2.5365	-0.3503	-2.8869	-2.7448	-0.4333	-3.1780	-2.8921	-0.5302	-3.4222	64.9836	99.8266	
   422	-2.5917	-0.3843	-2.9760	-2.7850	-0.4456	-3.2305	-2.9281	-0.5638	-3.4919	65.0754	99.8359	
   423	-2.6331	-0.4386	-3.0717	-2.8010	-0.4928	-3.2938	-2.9465	-0.5862	-3.5327	64.9865	99.8358	
   424	-2.6400	-0.4284	-3.0685	-2.7874	-0.4844	-3.2717	-2.8771	-0.5644	-3.4415	65.2690	99.8273	
   425	-2.6223	-0.3887	-3.0110	-2.7721	-0.4501	-3.2221	-2.8449	-0.5005	-3.3454	65.0915	99.8176	
   426	-2.4538	-0.2417	-2.6955	-2.5127	-0.2903	-2.8029	-2.5506	-0.3265	-2.8771	65.4689	99.8248	
   427	-2.2487	-0.1155	-2.3642	-2.2677	-0.1518	-2.4194	-2.3618	-0.2079	-2.5698	65.4723	99.8447	
   428	-2.0969	-0.1085	-2.2053	-2.0854	-0.1765	-2.2619	-2.2573	-0.2622	-2.5195	65.9138	99.8597	
   429	-2.3383	-0.3292	-2.6675	-2.3268	-0.3626	-2.6893	-2.4881	-0.4181	-2.9062	65.5552	99.8577	
   430	-2.4290	-0.3274	-2.7564	-2.4232	-0.4344	-2.8575	-2.6008	-0.4999	-3.1007	65.9994	99.8491	
   431	-2.5927	-0.3993	-2.9920	-2.7095	-0.4987	-3.2081	-2.8563	-0.5949	-3.4512	65.6300	99.8357	
   432	-2.7061	-0.3970	-3.1032	-2.9139	-0.5126	-3.4263	-3.0513	-0.6303	-3.6816	65.3446	99.8233	
   433	-2.6884	-0.3573	-3.0457	-2.9183	-0.4779	-3.3961	-3.0663	-0.5960	-3.6623	65.1571	99.8212	
   434	-2.6273	-0.3485	-2.9758	-2.8645	-0.4572	-3.3216	-3.0663	-0.5960	-3.6623	64.9658	99.8347	
   435	-2.6538	-0.4081	-3.0620	-2.8729	-0.4873	-3.3601	-3.0853	-0.6298	-3.7152	64.8738	99.8443	
   436	-2.6785	-0.4377	-3.1162	-2.8472	-0.4964	-3.3435	-3.0395	-0.6228	-3.6624	64.9767	99.8482	
   437	-2.6706	-0.4328	-3.1034	-2.8267	-0.4838	-3.3104	-3.0218	-0.6117	-3.6336	64.9787	99.8517	
   438	-2.6696	-0.4178	-3.0875	-2.8396	-0.4792	-3.3187	-3.0270	-0.6041	-3.6311	64.9777	99.8466	
   439	-2.6263	-0.3335	-2.9598	-2.8090	-0.4106	-3.2195	-2.9410	-0.4955	-3.4365	64.8960	99.8265	
   440	-2.3780	-0.1229	-2.5009	-2.4191	-0.1579	-2.5769	-2.5760	-0.2770	-2.8530	65.3714	99.8624	
   441	-2.1097	-0.0731	-2.1829	-2.1633	-0.1622	-2.3255	-2.4368	-0.3204	-2.7572	65.7250	99.8752	
   442	-2.2881	-0.2550	-2.5431	-2.3244	-0.3237	-2.6480	-2.4881	-0.4181	-2.9062	65.8202	99.8538	
   443	-2.3935	-0.3632	-2.7567	-2.5308	-0.4758	-3.0065	-2.7161	-0.5287	-3.2447	65.2660	99.8281	
   444	-2.5513	-0.3450	-2.8963	-2.6456	-0.4220	-3.0675	-2.8077	-0.5426	-3.3503	65.6314	99.8495	
   445	-2.5365	-0.3503	-2.8869	-2.7336	-0.4637	-3.1972	-2.8719	-0.5720	-3.4439	65.4422	99.8236	
   446	-2.5977	-0.3591	-2.9568	-2.8002	-0.4799	-3.2800	-2.9236	-0.5827	-3.5063	65.4416	99.8180	
   447	-2.6154	-0.3989	-3.0143	-2.8480	-0.5093	-3.3573	-2.9833	-0.6311	-3.6144	65.3446	99.8213	
   448	-2.6942	-0.4474	-3.1417	-2.8838	-0.5563	-3.4400	-3.0017	-0.6536	-3.6553	65.4409	99.8197	
   449	-2.7268	-0.4818	-3.2086	-2.8726	-0.5867	-3.4592	-2.9617	-0.6503	-3.6121	65.5386	99.8151	
   450	-2.7356	-0.5017	-3.2373	-2.8400	-0.5916	-3.4315	-2.9395	-0.6582	-3.5977	65.6319	99.8257	
   451	-2.7662	-0.5061	-3.2723	-2.8280	-0.6091	-3.4370	-2.9520	-0.6769	-3.6289	65.8141	99.8331	
   452	-2.7681	-0.5362	-3.3043	-2.8212	-0.6049	-3.4259	-2.9298	-0.6848	-3.6146	65.8155	99.8401	
   453	-2.7129	-0.5022	-3.2151	-2.7144	-0.5764	-3.2907	-2.8302	-0.6331	-3.4633	65.9088	99.8426	
   454	-2.5798	-0.4347	-3.0145	-2.5786	-0.5053	-3.0838	-2.6775	-0.5481	-3.2256	65.9112	99.8387	
   455	-2.4833	-0.3464	-2.8296	-2.4662	-0.3862	-2.8522	-2.5169	-0.4253	-2.9422	65.9150	99.8385	
   456	-2.3275	-0.2793	-2.6068	-2.3252	-0.3367	-2.6618	-2.4023	-0.4079	-2.8102	66.1809	99.8438	
   457	-2.3462	-0.3341	-2.6803	-2.3558	-0.4053	-2.7610	-2.4804	-0.4787	-2.9591	66.0907	99.8471	
   458	-2.4635	-0.3919	-2.8554	-2.5060	-0.4978	-3.0037	-2.6331	-0.5638	-3.1968	66.0893	99.8357	
   459	-2.5296	-0.3605	-2.8901	-2.6328	-0.4266	-3.0592	-2.7209	-0.6080	-3.3289	66.4516	99.8507	
   460	-2.5661	-0.3397	-2.9058	-2.7926	-0.4627	-3.2552	-2.9420	-0.6052	-3.5472	65.5290	99.8264	
   461	-2.5652	-0.3247	-2.8898	-2.8380	-0.4533	-3.2912	-3.0218	-0.6117	-3.6336	65.2427	99.8276	
   462	-2.6125	-0.3538	-2.9663	-2.8789	-0.4786	-3.3574	-3.0919	-0.6449	-3.7368	65.1450	99.8350	
   463	-2.6696	-0.4178	-3.0875	-2.9267	-0.5080	-3.4346	-3.1398	-0.6859	-3.8257	65.0514	99.8442	
   464	-2.7564	-0.4712	-3.2276	-2.9625	-0.5549	-3.5173	-3.1707	-0.7271	-3.8977	65.2419	99.8499	
   465	-2.7721	-0.4809	-3.2531	-2.9368	-0.5640	-3.5007	-3.1249	-0.7201	-3.8450	65.4339	99.8494	
   466	-2.7100	-0.4571	-3.1671	-2.9043	-0.5689	-3.4731	-3.0502	-0.7059	-3.7562	65.6211	99.8308	
   467	-2.6765	-0.4077	-3.0842	-2.8087	-0.5100	-3.3186	-2.8674	-0.5910	-3.4584	65.8151	99.8166	
   468	-2.5977	-0.3591	-2.9568	-2.7071	-0.4599	-3.1669	-2.7907	-0.5428	-3.3335	65.8162	99.8245	
   469	-2.4370	-0.2170	-2.6540	-2.4272	-0.2874	-2.7145	-2.5377	-0.3948	-2.9325	66.1803	99.8542	
   470	-2.2536	-0.1906	-2.4442	-2.2108	-0.2911	-2.5017	-2.4665	-0.4373	-2.9038	66.3601	99.8799	
   471	-2.3364	-0.2992	-2.6355	-2.2923	-0.4409	-2.7332	-2.5355	-0.5461	-3.0816	66.5414	99.8646	
   472	-2.4616	-0.3618	-2.8234	-2.4409	-0.5076	-2.9484	-2.6202	-0.6320	-3.2522	66.9045	99.8557	
   473	-2.5798	-0.4347	-3.0145	-2.5602	-0.6309	-3.1910	-2.8259	-0.7504	-3.5764	66.8216	99.8583	
   474	-2.8056	-0.5304	-3.3360	-2.9493	-0.6589	-3.6081	-3.0752	-0.7434	-3.8186	65.7167	99.8209	
   475	-2.7386	-0.4315	-3.1701	-2.8770	-0.5521	-3.4289	-2.9906	-0.6575	-3.6481	65.8106	99.8258	
   476	-2.6519	-0.3781	-3.0300	-2.8352	-0.5139	-3.3490	-2.9788	-0.6501	-3.6289	65.8074	99.8278	
   477	-2.7061	-0.3970	-3.1032	-2.8950	-0.5258	-3.4207	-3.0357	-0.6532	-3.6888	65.6221	99.8260	
   478	-2.6844	-0.4125	-3.0969	-2.8549	-0.5135	-3.3683	-3.0017	-0.6536	-3.6553	65.6236	99.8368	
   479	-2.7081	-0.4271	-3.1352	-2.8549	-0.5135	-3.3683	-3.0364	-0.6645	-3.7009	65.5302	99.8494	
   480	-2.7317	-0.4416	-3.1734	-2.8874	-0.5087	-3.3960	-3.0704	-0.6641	-3.7344	65.3446	99.8525	
   481	-2.7643	-0.4761	-3.2403	-2.9010	-0.5171	-3.4180	-3.0652	-0.6717	-3.7369	65.3482	99.8561	
   482	-2.8608	-0.5644	-3.4252	-2.9239	-0.5686	-3.4924	-3.0620	-0.7133	-3.7754	65.5386	99.8652	
   483	-2.8687	-0.5692	-3.4380	-2.8496	-0.5352	-3.3848	-2.9152	-0.6320	-3.5473	65.6418	99.8626	
   484	-2.6312	-0.4086	-3.0397	-2.5661	-0.4104	-2.9764	-2.6355	-0.5108	-3.1463	66.1808	99.8642	
   485	-2.4625	-0.3769	-2.8394	-2.4626	-0.4337	-2.8962	-2.5577	-0.5383	-3.0960	66.3594	99.8521	
   486	-2.5276	-0.4457	-2.9733	-2.5204	-0.5192	-3.0395	-2.6188	-0.6093	-3.2281	66.4494	99.8478	
   487	-2.6547	-0.5384	-3.1931	-2.6646	-0.6205	-3.2850	-2.7715	-0.6944	-3.4659	66.2698	99.8421	
   488	-2.7789	-0.5861	-3.3650	-2.7859	-0.6703	-3.4561	-2.8652	-0.7424	-3.6075	66.3602	99.8375	
   489	-2.7720	-0.5962	-3.3683	-2.7859	-0.6703	-3.4561	-2.8541	-0.7463	-3.6003	66.3601	99.8375	
   490	-2.7720	-0.5962	-3.3683	-2.7799	-0.6790	-3.4588	-2.8547	-0.7576	-3.6124	66.4506	99.8382	
   491	-2.7641	-0.5914	-3.3555	-2.7867	-0.6832	-3.4698	-2.8665	-0.7650	-3.6316	66.4510	99.8361	
   492	-2.7493	-0.5967	-3.3460	-2.7935	-0.6874	-3.4809	-2.8783	-0.7724	-3.6508	66.3606	99.8348	
   493	-2.7641	-0.5914	-3.3555	-2.8064	-0.6829	-3.4892	-2.8895	-0.7685	-3.6580	66.3606	99.8348	
   494	-2.7405	-0.5768	-3.3173	-2.7851	-0.6573	-3.4423	-2.8541	-0.7463	-3.6003	66.3604	99.8350	
   495	-2.6922	-0.5327	-3.2249	-2.7244	-0.6324	-3.3568	-2.8017	-0.7243	-3.5259	66.5414	99.8352	
   496	-2.6320	-0.5389	-3.1709	-2.6919	-0.6373	-3.3291	-2.7846	-0.7245	-3.5091	66.3605	99.8332	
   497	-2.6320	-0.5389	-3.1709	-2.6987	-0.6415	-3.3402	-2.7794	-0.7321	-3.5115	66.4512	99.8304	
   498	-2.6320	-0.5389	-3.1709	-2.7048	-0.6328	-3.3374	-2.7846	-0.7245	-3.5091	66.3605	99.8312	
   499	-2.6468	-0.5336	-3.1804	-2.7184	-0.6412	-3.3595	-2.8023	-0.7356	-3.5379	66.4515	99.8301	
   500	-2.6547	-0.5384	-3.1931	-2.7252	-0.6454	-3.3705	-2.8141	-0.7430	-3.5572	66.4516	99.8317	
   501	-2.6399	-0.5437	-3.1836	-2.7313	-0.6366	-3.3678	-2.8141	-0.7430	-3.5572	66.3608	99.8322	
   502	-2.6241	-0.5340	-3.1582	-2.7116	-0.6370	-3.3485	-2.8030	-0.7469	-3.5500	66.4519	99.8330	
   503	-2.6162	-0.5292	-3.1454	-2.7116	-0.6370	-3.3485	-2.8141	-0.7430	-3.5572	66.3610	99.8320	
   504	-2.6084	-0.5243	-3.1327	-2.7116	-0.6370	-3.3485	-2.8141	-0.7430	-3.5572	66.3610	99.8301	
   505	-2.6162	-0.5292	-3.1454	-2.7184	-0.6412	-3.3595	-2.8200	-0.7467	-3.5668	66.3610	99.8301	
   506	-2.6084	-0.5243	-3.1327	-2.7176	-0.6282	-3.3457	-2.8141	-0.7430	-3.5572	66.3610	99.8316	
   507	-2.5778	-0.5199	-3.0977	-2.6783	-0.6289	-3.3071	-2.7742	-0.7397	-3.5140	66.4520	99.8311	
   508	-2.5472	-0.5155	-3.0627	-2.6586	-0.6292	-3.2877	-2.7683	-0.7360	-3.5044	66.3610	99.8301	
   509	-2.5620	-0.5102	-3.0722	-2.6586	-0.6292	-3.2877	-2.7683	-0.7360	-3.5044	66.4522	99.8312	
   510	-2.5472	-0.5155	-3.0627	-2.6518	-0.6250	-3.2767	-2.7624	-0.7323	-3.4948	66.3610	99.8320	
   511	-2.5393	-0.5107	-3.0500	-2.6381	-0.6166	-3.2546	-2.7506	-0.7249	-3.4755	66.3609	99.8339	
   512	-2.5236	-0.5009	-3.0245	-2.6176	-0.6040	-3.2215	-2.7159	-0.7140	-3.4299	66.4516	99.8333	
   513	-2.4851	-0.4917	-2.9768	-2.5586	-0.6050	-3.1635	-2.6701	-0.7070	-3.3771	66.5422	99.8347	
   514	-2.4545	-0.4873	-2.9418	-2.5253	-0.5969	-3.1221	-2.6465	-0.6922	-3.3387	66.4512	99.8359	
   515	-2.4397	-0.4926	-2.9323	-2.5056	-0.5972	-3.1027	-2.6184	-0.6964	-3.3147	66.5416	99.8368	
   516	-2.4397	-0.4926	-2.9323	-2.4859	-0.5976	-3.0834	-2.6066	-0.6889	-3.2955	66.5412	99.8390	
   517	-2.4318	-0.4877	-2.9196	-2.4663	-0.5979	-3.0641	-2.5889	-0.6778	-3.2667	66.5408	99.8378	
   518	-2.4092	-0.4882	-2.8974	-2.4201	-0.5944	-3.0143	-2.5483	-0.6632	-3.2115	66.5400	99.8402	
   519	-2.3628	-0.4741	-2.8369	-2.3406	-0.5827	-2.9232	-2.4678	-0.6453	-3.1131	66.7181	99.8427	
   520	-2.2928	-0.4454	-2.7382	-2.2466	-0.5498	-2.7963	-2.3800	-0.6011	-2.9810	66.7162	99.8454	
   521	-2.2001	-0.4172	-2.6173	-2.1519	-0.5038	-2.6556	-2.2693	-0.5533	-2.8226	66.7139	99.8461	
   522	-2.1380	-0.3934	-2.5314	-2.0904	-0.4660	-2.5563	-2.2044	-0.5126	-2.7169	66.6240	99.8474	
   523	-2.1301	-0.3885	-2.5186	-2.0836	-0.4618	-2.5452	-2.1769	-0.5280	-2.7050	66.8893	99.8479	
   524	-2.0926	-0.3943	-2.4869	-2.0330	-0.4929	-2.5258	-2.1672	-0.5546	-2.7218	66.9799	99.8503	
   525	-2.0709	-0.4097	-2.4807	-2.0226	-0.5363	-2.5587	-2.1987	-0.6072	-2.8059	67.0739	99.8518	
   526	-2.0955	-0.4393	-2.5349	-2.0748	-0.5310	-2.6057	-2.2085	-0.5806	-2.7891	66.7149	99.8440	
   527	-2.1182	-0.4389	-2.5571	-2.1021	-0.5479	-2.6499	-2.2616	-0.6140	-2.8755	66.8066	99.8474	
   528	-2.1015	-0.4141	-2.5156	-2.0928	-0.5048	-2.5976	-2.2012	-0.5542	-2.7554	66.7142	99.8390	
   529	-2.1084	-0.4040	-2.5124	-2.1065	-0.5132	-2.6196	-2.2123	-0.5503	-2.7626	66.7145	99.8322	
   530	-2.1311	-0.4035	-2.5346	-2.1262	-0.5129	-2.6390	-2.2345	-0.5424	-2.7770	66.6256	99.8315	
   531	-2.1301	-0.3885	-2.5186	-2.1647	-0.4993	-2.6639	-2.2516	-0.5422	-2.7938	66.6264	99.8254	
   532	-2.1449	-0.3832	-2.5281	-2.2109	-0.5028	-2.7136	-2.2974	-0.5492	-2.8466	66.5382	99.8202	
   533	-2.1666	-0.3677	-2.5344	-2.2434	-0.4980	-2.7412	-2.3203	-0.5527	-2.8730	66.6282	99.8170	
   534	-2.1824	-0.3774	-2.5599	-2.2562	-0.4934	-2.7495	-2.3373	-0.5525	-2.8897	66.5386	99.8215	
   535	-2.1824	-0.3774	-2.5599	-2.2691	-0.4889	-2.7579	-2.3550	-0.5636	-2.9186	66.5392	99.8244	
   536	-2.2209	-0.3867	-2.6076	-2.3024	-0.4970	-2.7993	-2.3668	-0.5710	-2.9378	66.6285	99.8219	
   537	-2.2524	-0.4061	-2.6585	-2.2896	-0.5015	-2.7910	-2.3439	-0.5675	-2.9114	66.7158	99.8274	
   538	-2.2376	-0.4114	-2.6490	-2.2631	-0.4976	-2.7606	-2.3210	-0.5640	-2.8850	66.7152	99.8312	
   539	-2.2376	-0.4114	-2.6490	-2.2631	-0.4976	-2.7606	-2.3321	-0.5601	-2.8922	66.6264	99.8321	
   540	-2.2534	-0.4211	-2.6745	-2.2699	-0.5018	-2.7716	-2.3269	-0.5677	-2.8946	66.7149	99.8330	
   541	-2.2682	-0.4158	-2.6840	-2.2691	-0.4889	-2.7579	-2.3203	-0.5527	-2.8730	66.7139	99.8352	
   542	-2.2603	-0.4110	-2.6713	-2.2554	-0.4805	-2.7358	-2.3196	-0.5413	-2.8609	66.6250	99.8379	
   543	-2.2593	-0.3959	-2.6553	-2.2546	-0.4675	-2.7220	-2.3130	-0.5263	-2.8393	66.6248	99.8363	
   544	-2.2505	-0.3761	-2.6266	-2.2538	-0.4546	-2.7083	-2.3012	-0.5189	-2.8201	66.7135	99.8336	
   545	-2.2426	-0.3712	-2.6138	-2.2538	-0.4546	-2.7083	-2.3123	-0.5149	-2.8273	66.6253	99.8326	
   546	-2.2584	-0.3809	-2.6393	-2.3000	-0.4581	-2.7580	-2.3529	-0.5296	-2.8825	66.5372	99.8309	
   547	-2.2741	-0.3906	-2.6648	-2.3265	-0.4620	-2.7884	-2.3758	-0.5330	-2.9089	66.4482	99.8298	
   548	-2.2889	-0.3853	-2.6743	-2.3393	-0.4574	-2.7967	-2.3981	-0.5252	-2.9233	66.3590	99.8307	
   549	-2.2968	-0.3902	-2.6870	-2.3530	-0.4659	-2.8187	-2.4099	-0.5326	-2.9425	66.3591	99.8289	
   550	-2.3037	-0.3800	-2.6838	-2.3530	-0.4659	-2.8187	-2.3988	-0.5365	-2.9353	66.5376	99.8271	
   551	-2.2968	-0.3902	-2.6870	-2.3538	-0.4788	-2.8325	-2.4276	-0.5437	-2.9713	66.3593	99.8287	
   552	-2.3274	-0.3946	-2.7220	-2.3931	-0.4781	-2.8712	-2.4564	-0.5509	-3.0073	66.3594	99.8283	
   553	-2.3432	-0.4043	-2.7475	-2.4325	-0.4775	-2.9098	-2.4852	-0.5581	-3.0433	66.2698	99.8269	
   554	-2.3728	-0.3937	-2.7664	-2.4522	-0.4771	-2.9292	-2.5133	-0.5540	-3.0673	66.2698	99.8270	
   555	-2.3728	-0.3937	-2.7664	-2.4453	-0.4729	-2.9182	-2.4963	-0.5542	-3.0505	66.3594	99.8279	
   556	-2.3422	-0.3893	-2.7315	-2.4060	-0.4736	-2.8795	-2.4675	-0.5470	-3.0145	66.3594	99.8283	
   557	-2.3264	-0.3796	-2.7060	-2.3923	-0.4652	-2.8574	-2.4387	-0.5398	-2.9785	66.4487	99.8258	
   558	-2.3264	-0.3796	-2.7060	-2.3795	-0.4697	-2.8491	-2.4387	-0.5398	-2.9785	66.4487	99.8278	
   559	-2.3422	-0.3893	-2.7315	-2.3863	-0.4739	-2.8601	-2.4446	-0.5435	-2.9881	66.4486	99.8297	
   560	-2.3501	-0.3941	-2.7442	-2.3803	-0.4827	-2.8629	-2.4557	-0.5396	-2.9953	66.3592	99.8309	
   561	-2.3501	-0.3941	-2.7442	-2.3538	-0.4788	-2.8325	-2.4217	-0.5400	-2.9617	66.5372	99.8348	
   562	-2.3047	-0.3950	-2.6997	-2.3076	-0.4753	-2.7828	-2.3706	-0.5407	-2.9113	66.6258	99.8358	
   563	-2.2751	-0.4057	-2.6808	-2.2683	-0.4759	-2.7441	-2.3529	-0.5296	-2.8825	66.4477	99.8396	
   564	-2.2672	-0.4008	-2.6680	-2.2289	-0.4766	-2.7054	-2.3130	-0.5263	-2.8393	66.6245	99.8419	
   565	-2.2928	-0.4454	-2.7382	-2.2631	-0.4976	-2.7606	-2.3484	-0.5485	-2.8969	66.4473	99.8451	
   566	-2.3313	-0.4547	-2.7859	-2.2811	-0.4714	-2.7524	-2.3346	-0.5071	-2.8416	66.2697	99.8461	
   567	-2.2199	-0.3717	-2.5916	-2.1795	-0.4212	-2.6007	-2.2238	-0.4593	-2.6832	66.5339	99.8388	
   568	-2.1016	-0.2989	-2.4005	-2.0446	-0.3630	-2.4075	-2.0889	-0.3854	-2.4743	66.6201	99.8356	
   569	-2.0385	-0.2600	-2.2985	-2.0113	-0.3549	-2.3661	-2.0771	-0.3780	-2.4551	66.6217	99.8298	
   570	-2.1154	-0.2785	-2.3940	-2.2044	-0.3992	-2.6035	-2.2874	-0.4774	-2.7648	66.5386	99.8231	
   571	-2.2337	-0.3513	-2.5851	-2.3907	-0.4393	-2.8299	-2.4897	-0.5391	-3.0288	65.9982	99.8261	
   572	-2.2722	-0.3606	-2.6328	-2.4292	-0.4257	-2.8548	-2.5407	-0.5385	-3.0792	65.8165	99.8344	
   573	-2.2071	-0.2917	-2.4989	-2.4088	-0.4131	-2.8217	-2.5237	-0.5387	-3.0624	66.0873	99.8218	
   574	-2.2002	-0.3019	-2.5021	-2.4489	-0.4253	-2.8741	-2.5990	-0.5642	-3.1632	65.8099	99.8229	
   575	-2.2702	-0.3306	-2.6008	-2.5421	-0.4454	-2.9873	-2.7261	-0.6004	-3.3265	65.5285	99.8296	
   576	-2.3314	-0.3394	-2.6708	-2.6079	-0.4486	-3.0564	-2.7896	-0.6185	-3.4081	65.5267	99.8324	
   577	-2.3629	-0.3588	-2.7217	-2.6216	-0.4570	-3.0785	-2.8073	-0.6296	-3.4369	65.5273	99.8378	
   578	-2.3856	-0.3583	-2.7440	-2.6224	-0.4699	-3.0922	-2.8080	-0.6410	-3.4489	65.7133	99.8381	
   579	-2.3610	-0.3288	-2.6897	-2.5762	-0.4664	-3.0425	-2.7615	-0.6226	-3.3841	65.8996	99.8337	
   580	-2.3235	-0.3345	-2.6580	-2.5317	-0.4888	-3.0203	-2.6705	-0.6200	-3.2905	66.1777	99.8196	
   581	-2.3254	-0.3646	-2.6900	-2.5196	-0.5062	-3.0258	-2.6313	-0.6281	-3.2594	66.2697	99.8176	
   582	-2.3422	-0.3893	-2.7315	-2.5204	-0.5192	-3.0395	-2.6084	-0.6246	-3.2330	66.2697	99.8148	
   583	-2.3589	-0.4140	-2.7729	-2.4887	-0.5370	-3.0256	-2.5802	-0.6288	-3.2090	66.3605	99.8205	
   584	-2.3589	-0.4140	-2.7729	-2.4682	-0.5244	-2.9925	-2.5508	-0.6102	-3.1610	66.3602	99.8231	
   585	-2.3589	-0.4140	-2.7729	-2.4357	-0.5293	-2.9649	-2.5167	-0.6107	-3.1274	66.5402	99.8255	
   586	-2.3362	-0.4145	-2.7507	-2.4024	-0.5212	-2.9235	-2.4709	-0.6037	-3.0746	66.6292	99.8268	
   587	-2.3136	-0.4149	-2.7285	-2.3502	-0.5264	-2.8765	-2.4258	-0.6081	-3.0338	66.8078	99.8308	
   588	-2.2840	-0.4255	-2.7095	-2.3365	-0.5180	-2.8544	-2.4088	-0.6083	-3.0170	66.7181	99.8332	
   589	-2.2840	-0.4255	-2.7095	-2.3109	-0.5271	-2.8378	-2.4081	-0.5969	-3.0050	66.6282	99.8348	
   590	-2.2909	-0.4154	-2.7062	-2.3040	-0.5229	-2.8268	-2.3970	-0.6009	-2.9978	66.8070	99.8365	
   591	-2.2840	-0.4255	-2.7095	-2.3040	-0.5229	-2.8268	-2.3970	-0.6009	-2.9978	66.7175	99.8373	
   592	-2.2909	-0.4154	-2.7062	-2.3040	-0.5229	-2.8268	-2.3970	-0.6009	-2.9978	66.8070	99.8365	
   593	-2.2682	-0.4158	-2.6840	-2.2835	-0.5102	-2.7937	-2.3623	-0.5900	-2.9522	66.8058	99.8367	
   594	-2.2366	-0.3964	-2.6330	-2.2442	-0.5109	-2.7550	-2.3446	-0.5788	-2.9234	66.8062	99.8353	
   595	-2.2139	-0.3969	-2.6108	-2.2502	-0.5022	-2.7523	-2.3439	-0.5675	-2.9114	66.6277	99.8316	
   596	-2.2061	-0.3920	-2.5981	-2.2442	-0.5109	-2.7550	-2.3557	-0.5749	-2.9306	66.6285	99.8313	
   597	-2.2209	-0.3867	-2.6076	-2.2835	-0.5102	-2.7937	-2.3793	-0.5897	-2.9690	66.7191	99.8279	
   598	-2.2436	-0.3862	-2.6298	-2.2972	-0.5186	-2.8157	-2.4022	-0.5932	-2.9954	66.7195	99.8280	
   599	-2.2514	-0.3911	-2.6425	-2.3169	-0.5183	-2.8351	-2.4081	-0.5969	-3.0050	66.7195	99.8260	
   600	-2.2287	-0.3915	-2.6203	-2.3100	-0.5141	-2.8241	-2.3970	-0.6009	-2.9978	66.7198	99.8257	
   601	-2.2130	-0.3818	-2.5948	-2.2904	-0.5144	-2.8047	-2.3911	-0.5972	-2.9882	66.7201	99.8258	
   602	-2.2278	-0.3765	-2.6043	-2.3169	-0.5183	-2.8351	-2.4199	-0.6043	-3.0242	66.7211	99.8235	
   603	-2.2357	-0.3814	-2.6171	-2.3426	-0.5092	-2.8517	-2.4428	-0.6078	-3.0506	66.6314	99.8257	
   604	-2.2287	-0.3915	-2.6203	-2.3494	-0.5134	-2.8627	-2.4657	-0.6113	-3.0770	66.4510	99.8271	
   605	-2.2505	-0.3761	-2.6266	-2.3691	-0.5131	-2.8821	-2.4886	-0.6148	-3.1034	66.5420	99.8260	
   606	-2.2574	-0.3659	-2.6233	-2.3879	-0.4998	-2.8877	-2.5049	-0.6032	-3.1082	66.4514	99.8249	
   607	-2.2337	-0.3513	-2.5851	-2.3614	-0.4960	-2.8573	-2.4879	-0.6035	-3.0914	66.5424	99.8257	
   608	-2.2327	-0.3363	-2.5691	-2.3871	-0.4869	-2.8739	-2.5278	-0.6067	-3.1346	66.4523	99.8257	
   609	-2.2406	-0.3412	-2.5818	-2.4068	-0.4865	-2.8932	-2.5508	-0.6102	-3.1610	66.3612	99.8263	
   610	-2.2485	-0.3460	-2.5946	-2.4136	-0.4908	-2.9043	-2.5737	-0.6137	-3.1874	66.2697	99.8288	
   611	-2.2495	-0.3611	-2.6106	-2.4333	-0.4904	-2.9236	-2.6202	-0.6320	-3.2522	66.0858	99.8367	
   612	-2.2880	-0.3703	-2.6583	-2.4666	-0.4985	-2.9650	-2.6667	-0.6503	-3.3170	66.0854	99.8414	
   613	-2.3037	-0.3800	-2.6838	-2.5060	-0.4978	-3.0037	-2.7125	-0.6573	-3.3698	65.8999	99.8425	
   614	-2.2949	-0.3602	-2.6550	-2.5188	-0.4933	-3.0120	-2.7354	-0.6608	-3.3962	65.8984	99.8401	
   615	-2.3087	-0.3398	-2.6485	-2.5453	-0.4972	-3.0424	-2.7753	-0.6641	-3.4394	65.8970	99.8362	
   616	-2.3235	-0.3345	-2.6580	-2.5975	-0.4920	-3.0894	-2.8263	-0.6634	-3.4898	65.7085	99.8319	
   617	-2.3758	-0.3234	-2.6992	-2.6180	-0.5046	-3.1225	-2.8493	-0.6669	-3.5162	65.8958	99.8306	
   618	-2.3837	-0.3283	-2.7120	-2.6308	-0.5000	-3.1308	-2.8493	-0.6669	-3.5162	65.8961	99.8305	
   619	-2.3916	-0.3332	-2.7247	-2.6180	-0.5046	-3.1225	-2.8493	-0.6669	-3.5162	65.8964	99.8344	
   620	-2.3768	-0.3385	-2.7152	-2.5915	-0.5007	-3.0921	-2.8152	-0.6673	-3.4826	65.9904	99.8373	
   621	-2.3620	-0.3438	-2.7057	-2.5658	-0.5098	-3.0755	-2.7760	-0.6754	-3.4514	66.1768	99.8358	
   622	-2.3550	-0.3539	-2.7090	-2.5598	-0.5185	-3.0782	-2.7590	-0.6756	-3.4346	66.1769	99.8326	
   623	-2.3639	-0.3738	-2.7377	-2.5546	-0.5402	-3.0947	-2.7361	-0.6721	-3.4082	66.1773	99.8264	
   624	-2.3876	-0.3884	-2.7759	-2.5554	-0.5532	-3.1084	-2.7198	-0.6837	-3.4035	66.3618	99.8269	
   625	-2.3885	-0.4034	-2.7919	-2.5554	-0.5532	-3.1084	-2.7139	-0.6800	-3.3939	66.2697	99.8280	
   626	-2.3885	-0.4034	-2.7919	-2.5485	-0.5490	-3.0974	-2.7080	-0.6763	-3.3843	66.2697	99.8299	
   627	-2.3658	-0.4038	-2.7697	-2.5220	-0.5451	-3.0670	-2.6739	-0.6767	-3.3507	66.3615	99.8309	
   628	-2.3362	-0.4145	-2.7507	-2.4964	-0.5542	-3.0504	-2.6517	-0.6846	-3.3363	66.3615	99.8309	
   629	-2.3599	-0.4290	-2.7889	-2.4972	-0.5671	-3.0642	-2.6642	-0.7033	-3.3675	66.4532	99.8371	
   630	-2.3924	-0.4635	-2.8559	-2.5245	-0.5839	-3.1083	-2.7055	-0.7293	-3.4348	66.3616	99.8445	
   631	-2.4328	-0.5028	-2.9356	-2.5518	-0.6008	-3.1525	-2.7409	-0.7515	-3.4924	66.2697	99.8520	
   632	-2.4496	-0.5275	-2.9770	-2.5466	-0.6225	-3.1689	-2.7416	-0.7629	-3.5044	66.2697	99.8541	
   633	-2.4722	-0.5270	-2.9993	-2.5466	-0.6225	-3.1689	-2.7305	-0.7668	-3.4972	66.4528	99.8560	
   634	-2.4653	-0.5372	-3.0025	-2.5337	-0.6270	-3.1606	-2.7193	-0.7707	-3.4901	66.4527	99.8577	
   635	-2.4830	-0.5769	-3.0600	-2.5542	-0.6396	-3.1937	-2.7384	-0.8045	-3.5429	66.4528	99.8651	
   636	-2.5156	-0.6114	-3.1269	-2.5687	-0.6610	-3.2296	-2.7790	-0.8191	-3.5981	66.2697	99.8715	
   637	-2.5461	-0.6158	-3.1619	-2.6020	-0.6691	-3.2710	-2.8078	-0.8263	-3.6341	66.2697	99.8699	
   638	-2.5777	-0.6352	-3.2129	-2.6353	-0.6771	-3.3124	-2.8432	-0.8486	-3.6918	66.2697	99.8740	
   639	-2.6319	-0.6542	-3.2861	-2.6952	-0.6891	-3.3842	-2.9126	-0.8704	-3.7830	66.1776	99.8773	
   640	-2.6861	-0.6731	-3.3593	-2.7353	-0.7014	-3.4366	-2.9532	-0.8850	-3.8382	66.1776	99.8803	
   641	-2.6852	-0.6581	-3.3433	-2.7353	-0.7014	-3.4366	-2.9414	-0.8776	-3.8190	66.2697	99.8752	
   642	-2.6300	-0.6241	-3.2541	-2.7020	-0.6933	-3.3952	-2.8890	-0.8555	-3.7446	66.3617	99.8638	
   643	-2.5678	-0.6003	-3.1682	-2.6679	-0.6723	-3.3400	-2.8189	-0.8224	-3.6413	66.3614	99.8528	
   644	-2.5344	-0.5508	-3.0852	-2.5936	-0.6390	-3.2324	-2.7246	-0.7631	-3.4876	66.5428	99.8477	
   645	-2.4565	-0.5173	-2.9738	-2.4936	-0.6147	-3.1082	-2.6263	-0.7341	-3.3604	66.7231	99.8485	
   646	-2.4249	-0.4979	-2.9228	-2.4337	-0.6028	-3.0364	-2.5798	-0.7158	-3.2956	66.8126	99.8516	
   647	-2.4022	-0.4984	-2.9006	-2.4004	-0.5947	-2.9950	-2.5451	-0.7049	-3.2500	66.8114	99.8536	
   648	-2.3786	-0.4838	-2.8624	-2.3534	-0.5782	-2.9315	-2.4816	-0.6868	-3.1684	66.9888	99.8542	
   649	-2.3332	-0.4847	-2.8179	-2.3141	-0.5789	-2.8929	-2.4580	-0.6719	-3.1300	66.8090	99.8529	
   650	-2.3174	-0.4750	-2.7924	-2.3004	-0.5704	-2.8708	-2.4351	-0.6685	-3.1036	66.8984	99.8520	
   651	-2.3096	-0.4701	-2.7797	-2.2808	-0.5708	-2.8514	-2.4122	-0.6650	-3.0772	66.9872	99.8515	
   652	-2.3096	-0.4701	-2.7797	-2.2739	-0.5666	-2.8404	-2.4063	-0.6613	-3.0676	66.9867	99.8533	
   653	-2.2948	-0.4754	-2.7702	-2.2671	-0.5624	-2.8294	-2.4004	-0.6576	-3.0580	66.8970	99.8540	
   654	-2.2869	-0.4706	-2.7575	-2.2474	-0.5627	-2.8100	-2.3775	-0.6541	-3.0316	66.9856	99.8535	
   655	-2.2711	-0.4609	-2.7320	-2.2209	-0.5588	-2.7797	-2.3435	-0.6545	-2.9980	67.1633	99.8536	
   656	-2.2484	-0.4613	-2.7097	-2.2141	-0.5546	-2.7686	-2.3376	-0.6508	-2.9884	67.0745	99.8527	
   657	-2.2484	-0.4613	-2.7097	-2.2013	-0.5592	-2.7603	-2.3317	-0.6471	-2.9788	67.0739	99.8530	
   658	-2.2484	-0.4613	-2.7097	-2.1944	-0.5550	-2.7493	-2.3206	-0.6510	-2.9716	67.1626	99.8554	
   659	-2.2336	-0.4666	-2.7003	-2.1944	-0.5550	-2.7493	-2.3258	-0.6434	-2.9692	66.9846	99.8537	
   660	-2.2405	-0.4565	-2.6970	-2.1876	-0.5507	-2.7383	-2.3088	-0.6436	-2.9524	67.1620	99.8539	
   661	-2.2178	-0.4569	-2.6748	-2.1611	-0.5469	-2.7079	-2.2911	-0.6325	-2.9236	67.0722	99.8549	
   662	-2.2021	-0.4472	-2.6493	-2.1346	-0.5430	-2.6775	-2.2629	-0.6366	-2.8996	67.2498	99.8566	
   663	-2.1873	-0.4525	-2.6398	-2.1346	-0.5430	-2.6775	-2.2570	-0.6329	-2.8900	67.1607	99.8541	
   664	-2.1942	-0.4424	-2.6365	-2.1278	-0.5388	-2.6665	-2.2623	-0.6253	-2.8875	67.1607	99.8559	
   665	-2.1863	-0.4375	-2.6238	-2.1210	-0.5346	-2.6554	-2.2452	-0.6255	-2.8708	67.2491	99.8551	
   666	-2.1863	-0.4375	-2.6238	-2.1210	-0.5346	-2.6554	-2.2393	-0.6218	-2.8612	67.2484	99.8536	
   667	-2.1863	-0.4375	-2.6238	-2.1141	-0.5304	-2.6444	-2.2334	-0.6181	-2.8515	67.2476	99.8553	
   668	-2.1557	-0.4331	-2.5888	-2.0876	-0.5265	-2.6140	-2.2046	-0.6109	-2.8155	67.2469	99.8538	
   669	-2.1330	-0.4336	-2.5666	-2.0680	-0.5268	-2.5947	-2.1876	-0.6111	-2.7988	67.2469	99.8538	
   670	-2.1330	-0.4336	-2.5666	-2.0740	-0.5181	-2.5920	-2.1928	-0.6035	-2.7963	67.1581	99.8546	
   671	-2.1330	-0.4336	-2.5666	-2.0611	-0.5226	-2.5837	-2.1869	-0.5998	-2.7867	67.1574	99.8549	
   672	-2.1399	-0.4234	-2.5634	-2.0671	-0.5139	-2.5809	-2.1758	-0.6037	-2.7795	67.3342	99.8547	
   673	-2.1399	-0.4234	-2.5634	-2.0543	-0.5184	-2.5726	-2.1810	-0.5961	-2.7771	67.2455	99.8558	
   674	-2.1321	-0.4185	-2.5506	-2.0406	-0.5100	-2.5506	-2.1581	-0.5926	-2.7507	67.3327	99.8568	
   675	-2.1015	-0.4141	-2.5156	-2.0210	-0.5104	-2.5312	-2.1352	-0.5891	-2.7243	67.3327	99.8535	
   676	-2.1015	-0.4141	-2.5156	-2.0141	-0.5061	-2.5202	-2.1293	-0.5854	-2.7147	67.3319	99.8553	
   677	-2.1015	-0.4141	-2.5156	-2.0202	-0.4974	-2.5175	-2.1234	-0.5817	-2.7051	67.3311	99.8552	
   678	-2.0936	-0.4093	-2.5029	-2.0073	-0.5019	-2.5092	-2.1175	-0.5780	-2.6955	67.3311	99.8538	
   679	-2.0936	-0.4093	-2.5029	-2.0005	-0.4977	-2.4981	-2.1175	-0.5780	-2.6955	67.3311	99.8570	
   680	-2.0936	-0.4093	-2.5029	-2.0005	-0.4977	-2.4981	-2.1057	-0.5706	-2.6763	67.3296	99.8540	
   681	-2.0778	-0.3996	-2.4774	-1.9740	-0.4939	-2.4678	-2.0828	-0.5671	-2.6499	67.4171	99.8550	
   682	-2.0699	-0.3947	-2.4647	-1.9672	-0.4897	-2.4567	-2.0710	-0.5597	-2.6307	67.4163	99.8535	
   683	-2.0551	-0.4000	-2.4552	-1.9603	-0.4854	-2.4457	-2.0710	-0.5597	-2.6307	67.3288	99.8557	
   684	-2.0621	-0.3899	-2.4519	-1.9664	-0.4767	-2.4430	-2.0651	-0.5560	-2.6211	67.4163	99.8549	
   685	-2.0621	-0.3899	-2.4519	-1.9595	-0.4725	-2.4319	-2.0592	-0.5523	-2.6115	67.4154	99.8566	
   686	-2.0621	-0.3899	-2.4519	-1.9595	-0.4725	-2.4319	-2.0533	-0.5485	-2.6019	67.4146	99.8551	
   687	-2.0542	-0.3850	-2.4392	-1.9399	-0.4728	-2.4126	-2.0304	-0.5451	-2.5755	67.5009	99.8546	
   688	-2.0315	-0.3855	-2.4170	-1.9262	-0.4644	-2.3905	-2.0186	-0.5376	-2.5563	67.4129	99.8554	
   689	-2.0236	-0.3806	-2.4042	-1.9134	-0.4690	-2.3822	-2.0127	-0.5339	-2.5467	67.4129	99.8539	
   690	-2.0236	-0.3806	-2.4042	-1.9194	-0.4602	-2.3795	-2.0068	-0.5302	-2.5371	67.4121	99.8539	
   691	-2.0305	-0.3704	-2.4010	-1.9125	-0.4560	-2.3685	-2.0009	-0.5265	-2.5274	67.4991	99.8548	
   692	-2.0157	-0.3758	-2.3915	-1.9057	-0.4518	-2.3574	-1.9950	-0.5228	-2.5178	67.4113	99.8556	
   693	-2.0078	-0.3709	-2.3787	-1.8860	-0.4521	-2.3381	-1.9721	-0.5193	-2.4914	67.4974	99.8551	
   694	-1.9921	-0.3612	-2.3533	-1.8595	-0.4483	-2.3077	-1.9544	-0.5082	-2.4626	67.4965	99.8554	
   695	-1.9842	-0.3563	-2.3405	-1.8527	-0.4441	-2.2967	-1.9433	-0.5121	-2.4554	67.5841	99.8560	
   696	-1.9842	-0.3563	-2.3405	-1.8587	-0.4353	-2.2939	-1.9426	-0.5008	-2.4434	67.4956	99.8553	
   697	-1.9694	-0.3616	-2.3310	-1.8519	-0.4311	-2.2829	-1.9367	-0.4971	-2.4338	67.4080	99.8561	
   698	-1.9763	-0.3515	-2.3278	-1.8451	-0.4269	-2.2719	-1.9197	-0.4973	-2.4170	67.5813	99.8562	
   699	-1.9684	-0.3466	-2.3150	-1.8186	-0.4230	-2.2415	-1.9020	-0.4862	-2.3882	67.5794	99.8582	
   700	-1.9299	-0.3374	-2.2673	-1.7853	-0.4149	-2.2001	-1.8621	-0.4829	-2.3450	67.6657	99.8574	
   701	-1.9073	-0.3378	-2.2451	-1.7656	-0.4153	-2.1808	-1.8503	-0.4755	-2.3258	67.5784	99.8567	
   702	-1.8994	-0.3330	-2.2323	-1.7519	-0.4069	-2.1587	-1.8385	-0.4681	-2.3066	67.5775	99.8584	
   703	-1.8915	-0.3281	-2.2196	-1.7451	-0.4027	-2.1477	-1.8267	-0.4607	-2.2874	67.5766	99.8570	
   704	-1.8836	-0.3233	-2.2069	-1.7314	-0.3942	-2.1256	-1.8149	-0.4533	-2.2682	67.5756	99.8587	
   705	-1.8609	-0.3237	-2.1846	-1.7049	-0.3904	-2.0952	-1.7861	-0.4461	-2.2322	67.5738	99.8589	
   706	-1.8373	-0.3091	-2.1464	-1.6716	-0.3823	-2.0538	-1.7403	-0.4391	-2.1794	67.7445	99.8576	
   707	-1.7998	-0.3149	-2.1147	-1.6451	-0.3784	-2.0234	-1.7174	-0.4356	-2.1530	67.6577	99.8583	
   708	-1.7919	-0.3101	-2.1019	-1.6254	-0.3788	-2.0041	-1.7004	-0.4358	-2.1362	67.7435	99.8593	
   709	-1.7761	-0.3003	-2.0765	-1.6118	-0.3703	-1.9820	-1.6827	-0.4247	-2.1074	67.7424	99.8578	
   710	-1.7682	-0.2955	-2.0637	-1.5853	-0.3665	-1.9517	-1.6709	-0.4173	-2.0882	67.7414	99.8612	
   711	-1.7525	-0.2858	-2.0382	-1.5716	-0.3581	-1.9296	-1.6421	-0.4101	-2.0522	67.8258	99.8589	
   712	-1.7140	-0.2765	-1.9905	-1.5186	-0.3503	-1.8688	-1.5903	-0.3994	-1.9898	67.9087	99.8601	
   713	-1.6686	-0.2774	-1.9461	-1.4853	-0.3422	-1.8274	-1.5615	-0.3922	-1.9538	67.8224	99.8609	
   714	-1.6528	-0.2677	-1.9206	-1.4588	-0.3384	-1.7971	-1.5327	-0.3850	-1.9178	67.9064	99.8603	
   715	-1.6302	-0.2682	-1.8983	-1.4383	-0.3257	-1.7640	-1.5150	-0.3739	-1.8889	67.8191	99.8627	
   716	-1.6144	-0.2585	-1.8729	-1.4118	-0.3219	-1.7336	-1.4810	-0.3743	-1.8554	67.9889	99.8629	
   717	-1.6065	-0.2536	-1.8601	-1.3853	-0.3180	-1.7032	-1.4633	-0.3632	-1.8265	67.9865	99.8648	
   718	-1.5759	-0.2492	-1.8251	-1.3520	-0.3099	-1.6618	-1.4227	-0.3486	-1.7713	67.9829	99.8636	
   719	-1.5227	-0.2453	-1.7679	-1.2990	-0.3022	-1.6011	-1.3658	-0.3456	-1.7113	68.0660	99.8644	
   720	-1.4921	-0.2409	-1.7330	-1.2657	-0.2941	-1.5597	-1.3481	-0.3344	-1.6825	67.9804	99.8669	
   721	-1.4615	-0.2365	-1.6980	-1.2323	-0.2860	-1.5182	-1.3075	-0.3198	-1.6273	67.9768	99.8656	
   722	-1.4379	-0.2219	-1.6598	-1.2050	-0.2692	-1.4741	-1.2669	-0.3052	-1.5721	68.0585	99.8651	
   723	-1.3994	-0.2126	-1.6121	-1.1649	-0.2569	-1.4217	-1.2204	-0.2869	-1.5073	68.0547	99.8639	
   724	-1.3511	-0.1685	-1.5196	-1.1239	-0.2317	-1.3555	-1.1732	-0.2573	-1.4304	68.1384	99.8586	
   725	-1.3127	-0.1592	-1.4719	-1.0974	-0.2278	-1.3251	-1.1503	-0.2538	-1.4040	68.1397	99.8569	
   726	-1.3058	-0.1694	-1.4752	-1.1111	-0.2362	-1.3472	-1.1621	-0.2612	-1.4232	68.0572	99.8543	
   727	-1.3284	-0.1689	-1.4974	-1.1504	-0.2355	-1.3858	-1.1909	-0.2684	-1.4593	68.0597	99.8523	
   728	-1.3354	-0.1588	-1.4941	-1.2086	-0.2216	-1.4301	-1.2190	-0.2642	-1.4832	67.9780	99.8443	
   729	-1.3502	-0.1535	-1.5036	-1.2488	-0.2339	-1.4825	-1.2648	-0.2712	-1.5360	67.8983	99.8380	
   730	-1.4024	-0.1424	-1.5448	-1.3018	-0.2416	-1.5433	-1.3276	-0.2780	-1.6056	67.9029	99.8359	
   731	-1.4488	-0.1565	-1.6053	-1.3419	-0.2539	-1.5957	-1.3682	-0.2926	-1.6608	67.9041	99.8375	
   732	-1.4340	-0.1618	-1.5958	-1.3162	-0.2630	-1.5791	-1.3571	-0.2965	-1.6536	67.9041	99.8393	
   733	-1.4113	-0.1623	-1.5736	-1.3026	-0.2546	-1.5571	-1.3512	-0.2928	-1.6440	67.8191	99.8417	
   734	-1.4182	-0.1521	-1.5703	-1.3026	-0.2546	-1.5571	-1.3505	-0.2815	-1.6320	67.8180	99.8386	
   735	-1.4163	-0.1221	-1.5384	-1.2745	-0.2248	-1.4992	-1.3027	-0.2405	-1.5431	67.8960	99.8370	
   736	-1.3453	-0.0784	-1.4237	-1.1592	-0.1662	-1.3254	-1.1795	-0.1740	-1.3534	67.9685	99.8426	
   737	-1.2655	-0.0148	-1.2803	-1.0978	-0.1284	-1.2261	-1.1493	-0.1441	-1.2934	67.9744	99.8421	
   738	-1.2379	 0.0598	-1.1781	-1.0391	-0.0300	-1.0690	-1.0633	-0.0355	-1.0988	67.8756	99.8444	
   739	-1.0229	 0.1056	-0.9173	-0.7861	 0.0262	-0.7598	-0.8401	-0.0043	-0.8444	68.2045	99.8594	
   740	-0.8345	 0.0919	-0.7427	-0.6380	-0.0195	-0.6574	-0.7186	-0.0588	-0.7774	68.4661	99.8547	
   741	-1.0188	-0.0649	-1.0837	-0.9087	-0.1489	-1.0574	-0.9865	-0.1727	-1.1591	67.8060	99.8450	
   742	-1.1638	-0.0820	-1.2458	-1.0054	-0.1213	-1.1266	-1.0184	-0.1382	-1.1566	67.7921	99.8479	
   743	-1.1776	-0.0617	-1.2393	-1.0737	-0.1634	-1.2370	-1.1114	-0.1748	-1.2863	67.8071	99.8332	
   744	-1.2328	-0.0957	-1.3285	-1.1070	-0.1714	-1.2784	-1.1409	-0.1934	-1.3343	67.8050	99.8417	
   745	-1.2880	-0.1296	-1.4177	-1.1351	-0.2012	-1.3363	-1.1770	-0.2269	-1.4040	67.8903	99.8474	
   746	-1.3275	-0.1539	-1.4814	-1.1368	-0.2271	-1.3638	-1.1954	-0.2494	-1.4448	67.9744	99.8534	
   747	-1.3363	-0.1738	-1.5101	-1.1247	-0.2446	-1.3692	-1.2027	-0.2758	-1.4785	68.0610	99.8604	
   748	-1.3521	-0.1835	-1.5356	-1.1315	-0.2488	-1.3803	-1.2315	-0.2830	-1.5145	67.9780	99.8657	
   749	-1.3521	-0.1835	-1.5356	-1.1384	-0.2530	-1.3913	-1.2426	-0.2791	-1.5216	67.8937	99.8634	
   750	-1.3748	-0.1831	-1.5578	-1.1777	-0.2524	-1.4300	-1.2544	-0.2865	-1.5409	67.9792	99.8592	
   751	-1.3906	-0.1928	-1.5833	-1.1845	-0.2566	-1.4410	-1.2721	-0.2976	-1.5697	67.9804	99.8638	
   752	-1.3836	-0.2029	-1.5866	-1.1785	-0.2653	-1.4437	-1.2669	-0.3052	-1.5721	67.9804	99.8638	
   753	-1.4004	-0.2277	-1.6280	-1.2058	-0.2821	-1.4879	-1.2964	-0.3238	-1.6201	67.8972	99.8643	
   754	-1.4240	-0.2422	-1.6663	-1.2195	-0.2905	-1.5099	-1.3082	-0.3312	-1.6393	67.8960	99.8660	
   755	-1.4467	-0.2418	-1.6885	-1.2323	-0.2860	-1.5182	-1.3193	-0.3273	-1.6465	67.8949	99.8676	
   756	-1.4467	-0.2418	-1.6885	-1.2323	-0.2860	-1.5182	-1.3245	-0.3196	-1.6441	67.8093	99.8669	
   757	-1.4310	-0.2321	-1.6630	-1.2119	-0.2734	-1.4851	-1.3009	-0.3048	-1.6057	67.8071	99.8671	
   758	-1.3758	-0.1981	-1.5738	-1.1384	-0.2530	-1.3913	-1.2204	-0.2869	-1.5073	68.0585	99.8668	
   759	-1.2831	-0.1698	-1.4529	-1.0452	-0.2330	-1.2781	-1.1562	-0.2575	-1.4136	67.9732	99.8678	
   760	-1.2367	-0.1557	-1.3925	-0.9982	-0.2165	-1.2146	-1.1215	-0.2466	-1.3680	67.9732	99.8708	
   761	-1.2061	-0.1513	-1.3575	-0.9717	-0.2126	-1.1843	-1.1044	-0.2468	-1.3512	67.9744	99.8722	
   762	-1.1913	-0.1566	-1.3480	-0.9717	-0.2126	-1.1843	-1.0933	-0.2507	-1.3441	67.9744	99.8705	
   763	-1.1835	-0.1518	-1.3353	-0.9521	-0.2130	-1.1649	-1.0874	-0.2470	-1.3345	67.9744	99.8722	
   764	-1.1677	-0.1421	-1.3098	-0.9316	-0.2003	-1.1318	-1.0586	-0.2398	-1.2984	68.0572	99.8730	
   765	-1.1144	-0.1381	-1.2526	-0.8922	-0.2010	-1.0931	-1.0187	-0.2366	-1.2553	68.0572	99.8700	
   766	-1.0987	-0.1284	-1.2271	-0.8726	-0.2013	-1.0738	-1.0128	-0.2328	-1.2457	68.0585	99.8700	
   767	-1.0987	-0.1284	-1.2271	-0.8657	-0.1971	-1.0628	-1.0017	-0.2368	-1.2385	68.1424	99.8723	
   768	-1.0908	-0.1236	-1.2143	-0.8589	-0.1929	-1.0517	-0.9958	-0.2331	-1.2289	68.1424	99.8723	
   769	-1.0760	-0.1289	-1.2049	-0.8461	-0.1975	-1.0434	-0.9899	-0.2294	-1.2193	68.0572	99.8716	
   770	-1.0533	-0.1293	-1.1826	-0.8196	-0.1936	-1.0131	-0.9670	-0.2259	-1.1929	68.0559	99.8732	
   771	-1.0227	-0.1249	-1.1477	-0.7802	-0.1943	-0.9744	-0.9330	-0.2263	-1.1593	68.1397	99.8741	
   772	-1.0069	-0.1152	-1.1222	-0.7666	-0.1858	-0.9523	-0.9212	-0.2189	-1.1401	68.1397	99.8741	
   773	-0.9991	-0.1104	-1.1094	-0.7597	-0.1816	-0.9413	-0.9153	-0.2152	-1.1305	68.1397	99.8741	
   774	-0.9921	-0.1205	-1.1127	-0.7537	-0.1904	-0.9440	-0.9101	-0.2228	-1.1329	68.1397	99.8741	
   775	-0.9921	-0.1205	-1.1127	-0.7469	-0.1862	-0.9330	-0.9042	-0.2191	-1.1233	68.1384	99.8757	
   776	-0.9616	-0.1161	-1.0777	-0.7204	-0.1823	-0.9026	-0.8701	-0.2196	-1.0897	68.2221	99.8749	
   777	-0.9389	-0.1166	-1.0555	-0.6879	-0.1872	-0.8749	-0.8531	-0.2198	-1.0729	68.2221	99.8765	
   778	-0.9310	-0.1117	-1.0427	-0.6750	-0.1917	-0.8666	-0.8420	-0.2237	-1.0657	68.3070	99.8758	
   779	-0.9162	-0.1170	-1.0332	-0.6682	-0.1875	-0.8556	-0.8413	-0.2124	-1.0537	68.1371	99.8759	
   780	-0.9083	-0.1122	-1.0205	-0.6614	-0.1833	-0.8446	-0.8243	-0.2126	-1.0369	68.2207	99.8751	
   781	-0.9083	-0.1122	-1.0205	-0.6546	-0.1791	-0.8335	-0.8184	-0.2089	-1.0273	68.2193	99.8767	
   782	-0.8856	-0.1126	-0.9983	-0.6220	-0.1840	-0.8059	-0.7903	-0.2130	-1.0033	68.3027	99.8775	
   783	-0.8787	-0.1228	-1.0015	-0.6297	-0.2011	-0.8307	-0.8087	-0.2355	-1.0442	68.3084	99.8772	
   784	-0.9103	-0.1422	-1.0525	-0.6698	-0.2134	-0.8831	-0.8323	-0.2503	-1.0826	68.3084	99.8756	
   785	-0.9260	-0.1519	-1.0780	-0.6767	-0.2176	-0.8942	-0.8382	-0.2540	-1.0922	68.3070	99.8771	
   786	-0.9339	-0.1568	-1.0907	-0.6963	-0.2173	-0.9135	-0.8552	-0.2538	-1.1090	68.2234	99.8763	
   787	-0.9576	-0.1713	-1.1289	-0.7357	-0.2166	-0.9522	-0.8729	-0.2649	-1.1378	68.2234	99.8760	
   788	-0.9812	-0.1859	-1.1671	-0.7562	-0.2292	-0.9853	-0.8906	-0.2760	-1.1666	68.2234	99.8760	
   789	-1.0049	-0.2005	-1.2054	-0.8023	-0.2328	-1.0350	-0.9083	-0.2872	-1.1954	68.2234	99.8728	
   790	-1.0285	-0.2150	-1.2436	-0.8296	-0.2496	-1.0791	-0.9319	-0.3020	-1.2339	68.2248	99.8712	
   791	-1.0443	-0.2247	-1.2691	-0.8365	-0.2538	-1.0902	-0.9489	-0.3018	-1.2506	68.1397	99.8736	
   792	-1.0522	-0.2296	-1.2818	-0.8433	-0.2580	-1.1012	-0.9437	-0.3094	-1.2531	68.2234	99.8728	
   793	-1.0433	-0.2097	-1.2531	-0.8100	-0.2499	-1.0598	-0.9260	-0.2983	-1.2242	68.3070	99.8753	
   794	-1.0197	-0.1952	-1.2149	-0.7835	-0.2461	-1.0294	-0.9083	-0.2872	-1.1954	68.3070	99.8740	
   795	-0.9891	-0.1908	-1.1799	-0.7630	-0.2334	-0.9963	-0.8854	-0.2837	-1.1690	68.3070	99.8753	
   796	-0.9428	-0.1766	-1.1194	-0.7168	-0.2299	-0.9466	-0.8395	-0.2767	-1.1162	68.3904	99.8732	
   797	-0.9122	-0.1722	-1.0845	-0.6903	-0.2260	-0.9162	-0.8225	-0.2769	-1.0994	68.3919	99.8746	
   798	-0.9043	-0.1674	-1.0717	-0.6835	-0.2218	-0.9052	-0.8166	-0.2732	-1.0898	68.3919	99.8746	
   799	-0.8964	-0.1625	-1.0590	-0.6638	-0.2221	-0.8859	-0.8048	-0.2658	-1.0706	68.3904	99.8748	
   800	-0.8885	-0.1577	-1.0462	-0.6570	-0.2179	-0.8748	-0.7989	-0.2621	-1.0610	68.3904	99.8748	
   801	-0.8807	-0.1528	-1.0335	-0.6502	-0.2137	-0.8638	-0.7930	-0.2584	-1.0514	68.3904	99.8748	
   802	-0.8807	-0.1528	-1.0335	-0.6373	-0.2183	-0.8555	-0.7871	-0.2547	-1.0418	68.3890	99.8750	
   803	-0.8649	-0.1431	-1.0080	-0.6168	-0.2057	-0.8224	-0.7583	-0.2475	-1.0058	68.4707	99.8759	
   804	-0.8195	-0.1440	-0.9635	-0.5843	-0.2105	-0.7947	-0.7354	-0.2440	-0.9794	68.3875	99.8737	
   805	-0.8195	-0.1440	-0.9635	-0.5775	-0.2063	-0.7837	-0.7243	-0.2479	-0.9722	68.4707	99.8759	
   806	-0.8116	-0.1392	-0.9508	-0.5775	-0.2063	-0.7837	-0.7184	-0.2442	-0.9626	68.4707	99.8729	
   807	-0.8116	-0.1392	-0.9508	-0.5707	-0.2021	-0.7727	-0.7125	-0.2405	-0.9530	68.4692	99.8745	
   808	-0.8037	-0.1343	-0.9381	-0.5638	-0.1979	-0.7616	-0.7125	-0.2405	-0.9530	68.4707	99.8759	
   809	-0.8037	-0.1343	-0.9381	-0.5638	-0.1979	-0.7616	-0.7125	-0.2405	-0.9530	68.4707	99.8759	
   810	-0.8037	-0.1343	-0.9381	-0.5510	-0.2024	-0.7533	-0.7007	-0.2331	-0.9338	68.4676	99.8747	
   811	-0.7880	-0.1246	-0.9126	-0.5373	-0.1940	-0.7313	-0.6778	-0.2296	-0.9074	68.5506	99.8740	
   812	-0.7584	-0.1352	-0.8936	-0.5305	-0.1898	-0.7202	-0.6667	-0.2335	-0.9002	68.4676	99.8745	
   813	-0.7801	-0.1197	-0.8998	-0.5305	-0.1898	-0.7202	-0.6719	-0.2259	-0.8978	68.5506	99.8740	
   814	-0.7653	-0.1251	-0.8903	-0.5237	-0.1856	-0.7092	-0.6608	-0.2298	-0.8906	68.5506	99.8753	
   815	-0.7722	-0.1149	-0.8871	-0.5108	-0.1902	-0.7009	-0.6660	-0.2222	-0.8882	68.5506	99.8756	
   816	-0.7653	-0.1251	-0.8903	-0.5108	-0.1902	-0.7009	-0.6660	-0.2222	-0.8882	68.4661	99.8763	
   817	-0.7722	-0.1149	-0.8871	-0.5168	-0.1814	-0.6982	-0.6601	-0.2185	-0.8786	68.5490	99.8756	
   818	-0.7495	-0.1153	-0.8649	-0.4903	-0.1775	-0.6678	-0.6313	-0.2113	-0.8426	68.5459	99.8758	
   819	-0.7268	-0.1158	-0.8426	-0.4775	-0.1821	-0.6595	-0.6091	-0.2191	-0.8282	68.6302	99.8734	
   820	-0.7268	-0.1158	-0.8426	-0.4835	-0.1733	-0.6568	-0.6202	-0.2152	-0.8354	68.5475	99.8755	
   821	-0.7268	-0.1158	-0.8426	-0.4835	-0.1733	-0.6568	-0.6143	-0.2115	-0.8258	68.5459	99.8742	
   822	-0.7268	-0.1158	-0.8426	-0.4707	-0.1779	-0.6484	-0.6143	-0.2115	-0.8258	68.5459	99.8758	
   823	-0.7268	-0.1158	-0.8426	-0.4707	-0.1779	-0.6484	-0.6143	-0.2115	-0.8258	68.5459	99.8758	
   824	-0.7337	-0.1056	-0.8394	-0.4767	-0.1691	-0.6457	-0.6084	-0.2078	-0.8162	68.6286	99.8750	
   825	-0.7258	-0.1008	-0.8266	-0.4442	-0.1740	-0.6181	-0.5744	-0.2082	-0.7826	68.7919	99.8753	
   826	-0.6953	-0.0964	-0.7917	-0.4305	-0.1656	-0.5960	-0.5626	-0.2008	-0.7634	68.7095	99.8745	
   827	-0.6805	-0.1017	-0.7822	-0.4177	-0.1701	-0.5877	-0.5626	-0.2008	-0.7634	68.6270	99.8752	
   828	-0.6805	-0.1017	-0.7822	-0.4237	-0.1614	-0.5850	-0.5567	-0.1971	-0.7538	68.6253	99.8752	
   829	-0.6805	-0.1017	-0.7822	-0.4237	-0.1614	-0.5850	-0.5515	-0.2047	-0.7562	68.7095	99.8758	
   830	-0.6884	-0.1065	-0.7949	-0.4305	-0.1656	-0.5960	-0.5626	-0.2008	-0.7634	68.6253	99.8752	
   831	-0.6884	-0.1065	-0.7949	-0.4237	-0.1614	-0.5850	-0.5508	-0.1934	-0.7442	68.6221	99.8754	
   832	-0.6578	-0.1021	-0.7599	-0.3904	-0.1533	-0.5436	-0.5109	-0.1901	-0.7010	68.7028	99.8762	
   833	-0.6272	-0.0977	-0.7250	-0.3707	-0.1536	-0.5242	-0.4991	-0.1827	-0.6818	68.6204	99.8740	
   834	-0.6341	-0.0876	-0.7217	-0.3639	-0.1494	-0.5132	-0.4880	-0.1867	-0.6746	68.7867	99.8755	
   835	-0.6193	-0.0929	-0.7122	-0.3570	-0.1452	-0.5022	-0.4821	-0.1829	-0.6650	68.7028	99.8762	
   836	-0.6114	-0.0880	-0.6995	-0.3442	-0.1498	-0.4939	-0.4762	-0.1792	-0.6554	68.7028	99.8749	
   837	-0.6114	-0.0880	-0.6995	-0.3374	-0.1456	-0.4828	-0.4703	-0.1755	-0.6458	68.7011	99.8765	
   838	-0.6036	-0.0832	-0.6867	-0.3237	-0.1371	-0.4608	-0.4473	-0.1720	-0.6194	68.7815	99.8773	
   839	-0.5651	-0.0739	-0.6390	-0.2775	-0.1336	-0.4110	-0.3956	-0.1614	-0.5570	68.8599	99.8754	
   840	-0.5345	-0.0695	-0.6041	-0.2510	-0.1297	-0.3807	-0.3727	-0.1579	-0.5306	68.8599	99.8754	
   841	-0.5266	-0.0647	-0.5913	-0.2442	-0.1255	-0.3696	-0.3668	-0.1542	-0.5210	68.8599	99.8754	
   842	-0.5188	-0.0598	-0.5786	-0.2306	-0.1171	-0.3476	-0.3550	-0.1468	-0.5018	68.8582	99.8770	
   843	-0.5040	-0.0651	-0.5691	-0.2177	-0.1217	-0.3393	-0.3491	-0.1430	-0.4922	68.7746	99.8763	
   844	-0.5109	-0.0550	-0.5658	-0.2237	-0.1129	-0.3365	-0.3432	-0.1393	-0.4826	68.8564	99.8756	
   845	-0.5109	-0.0550	-0.5658	-0.2169	-0.1087	-0.3255	-0.3262	-0.1396	-0.4658	68.9362	99.8764	
   846	-0.4872	-0.0404	-0.5276	-0.1707	-0.1052	-0.2758	-0.2915	-0.1287	-0.4202	69.0158	99.8775	
   847	-0.4497	-0.0462	-0.4959	-0.1442	-0.1013	-0.2454	-0.2634	-0.1328	-0.3962	69.0158	99.8788	
   848	-0.4418	-0.0413	-0.4831	-0.1442	-0.1013	-0.2454	-0.2575	-0.1291	-0.3866	69.0158	99.8759	
   849	-0.4270	-0.0466	-0.4737	-0.1306	-0.0929	-0.2233	-0.2457	-0.1217	-0.3674	68.9307	99.8782	
   850	-0.4192	-0.0417	-0.4609	-0.1237	-0.0887	-0.2123	-0.2398	-0.1180	-0.3578	68.9307	99.8782	
   851	-0.4261	-0.0316	-0.4577	-0.1169	-0.0845	-0.2013	-0.2228	-0.1182	-0.3410	69.0933	99.8783	
   852	-0.4182	-0.0267	-0.4449	-0.1101	-0.0803	-0.1902	-0.2110	-0.1108	-0.3218	69.0914	99.8769	
   853	-0.3876	-0.0223	-0.4100	-0.0639	-0.0767	-0.1405	-0.1704	-0.0962	-0.2665	69.0856	99.8773	
   854	-0.3422	-0.0232	-0.3655	-0.0306	-0.0686	-0.0991	-0.1364	-0.0966	-0.2330	69.0856	99.8787	
   855	-0.3344	-0.0184	-0.3527	-0.0109	-0.0690	-0.0798	-0.1357	-0.0853	-0.2209	69.0027	99.8796	
   856	-0.3265	-0.0135	-0.3400	-0.0041	-0.0648	-0.0688	-0.1187	-0.0855	-0.2041	69.0837	99.8789	
   857	-0.3186	-0.0087	-0.3273	 0.0096	-0.0564	-0.0467	-0.1069	-0.0781	-0.1849	69.0818	99.8804	
   858	-0.3038	-0.0140	-0.3178	 0.0164	-0.0521	-0.0357	-0.1010	-0.0744	-0.1753	68.9990	99.8811	
   859	-0.3107	-0.0038	-0.3145	 0.0292	-0.0567	-0.0273	-0.0951	-0.0707	-0.1657	69.0799	99.8806	
   860	-0.3028	 0.0010	-0.3018	 0.0429	-0.0483	-0.0053	-0.0663	-0.0635	-0.1297	69.1567	99.8801	
   861	-0.2426	-0.0052	-0.2478	 0.0891	-0.0447	 0.0444	-0.0152	-0.0641	-0.0793	69.1547	99.8801	
   862	-0.2269	 0.0045	-0.2223	 0.1027	-0.0363	 0.0665	-0.0034	-0.0567	-0.0601	69.1547	99.8801	
   863	-0.2111	 0.0142	-0.1969	 0.1164	-0.0279	 0.0886	 0.0084	-0.0493	-0.0409	69.1547	99.8801	
   864	-0.2032	 0.0191	-0.1841	 0.1361	-0.0282	 0.1079	 0.0313	-0.0458	-0.0145	69.2332	99.8795	
   865	-0.1874	 0.0288	-0.1586	 0.1565	-0.0156	 0.1410	 0.0490	-0.0347	 0.0143	69.2312	99.8811	
   866	-0.1647	 0.0284	-0.1364	 0.1762	-0.0160	 0.1604	 0.0549	-0.0310	 0.0239	69.1508	99.8818	
   867	-0.1569	 0.0332	-0.1237	 0.1959	-0.0163	 0.1797	 0.0719	-0.0312	 0.0407	69.2312	99.8826	
   868	-0.1184	 0.0425	-0.0759	 0.2360	-0.0040	 0.2321	 0.1177	-0.0242	 0.0935	69.3094	99.8834	
   869	-0.0651	 0.0464	-0.0187	 0.2822	-0.0005	 0.2818	 0.1472	-0.0057	 0.1415	69.1450	99.8821	
   870	-0.0415	 0.0610	 0.0195	 0.3095	 0.0164	 0.3260	 0.1930	 0.0013	 0.1943	69.3033	99.8822	
   871	 0.0049	 0.0751	 0.0799	 0.3625	 0.0241	 0.3867	 0.2284	 0.0235	 0.2519	69.2192	99.8818	
   872	 0.0364	 0.0945	 0.1309	 0.4095	 0.0406	 0.4502	 0.2808	 0.0455	 0.3264	69.2931	99.8815	
   873	 0.0827	 0.1086	 0.1914	 0.4436	 0.0616	 0.5054	 0.3273	 0.0639	 0.3912	69.2890	99.8802	
   874	 0.1212	 0.1179	 0.2391	 0.4906	 0.0781	 0.5688	 0.3745	 0.0935	 0.4680	69.1995	99.8799	
   875	 0.1843	 0.1567	 0.3410	 0.5725	 0.1286	 0.7012	 0.4970	 0.1487	 0.6457	69.3398	99.8779	
   876	 0.3391	 0.2088	 0.5478	 0.7400	 0.1819	 0.9220	 0.6771	 0.2182	 0.8954	69.3998	99.8753	
   877	 0.4495	 0.2767	 0.7262	 0.8372	 0.2667	 1.1040	 0.8083	 0.3225	 1.1307	69.2196	99.8691	
   878	 0.5284	 0.3253	 0.8536	 0.8858	 0.3091	 1.1950	 0.8666	 0.3482	 1.2148	69.3014	99.8666	
   879	 0.5353	 0.3151	 0.8504	 0.9039	 0.2829	 1.1868	 0.8697	 0.3065	 1.1763	69.5475	99.8699	
   880	 0.5639	 0.2895	 0.8534	 0.9211	 0.2437	 1.1649	 0.8500	 0.2614	 1.1114	69.5626	99.8722	
   881	 0.5393	 0.2599	 0.7992	 0.8657	 0.1971	 1.0629	 0.7681	 0.2208	 0.9889	69.4206	99.8685	
   882	 0.3273	 0.1438	 0.4711	 0.6187	 0.1321	 0.7510	 0.5415	 0.1330	 0.6744	69.1123	99.8733	
   883	 0.2987	 0.1695	 0.4682	 0.6384	 0.1318	 0.7703	 0.5592	 0.1441	 0.7032	69.3479	99.8731	
   884	 0.2918	 0.1796	 0.4714	 0.6376	 0.1189	 0.7565	 0.5421	 0.1443	 0.6865	69.3521	99.8702	
   885	 0.2701	 0.1951	 0.4652	 0.6111	 0.1150	 0.7262	 0.5310	 0.1482	 0.6793	69.4332	99.8635	
   886	 0.2484	 0.2106	 0.4589	 0.5786	 0.1198	 0.6985	 0.5206	 0.1635	 0.6841	69.4311	99.8560	
   887	 0.2109	 0.2163	 0.4272	 0.5195	 0.1208	 0.6405	 0.4918	 0.1563	 0.6481	69.5144	99.8502	
   888	 0.1418	 0.2027	 0.3445	 0.4332	 0.1050	 0.5383	 0.4120	 0.1498	 0.5617	69.3582	99.8452	
   889	 0.0965	 0.2036	 0.3000	 0.4067	 0.1011	 0.5080	 0.4002	 0.1424	 0.5425	69.5166	99.8453	
   890	 0.0876	 0.1837	 0.2713	 0.3931	 0.0927	 0.4859	 0.3825	 0.1312	 0.5137	69.4375	99.8476	
   891	 0.0551	 0.1493	 0.2043	 0.3461	 0.0762	 0.4224	 0.3360	 0.1129	 0.4489	69.2789	99.8489	
   892	-0.0415	 0.0610	 0.0195	 0.3051	 0.0510	 0.3562	 0.2999	 0.0793	 0.3792	69.1838	99.8658	
   893	-0.0878	 0.0469	-0.0410	 0.3188	 0.0594	 0.3783	 0.3301	 0.1092	 0.4393	69.1626	99.8699	
   894	 0.1064	 0.1232	 0.2296	 0.5477	 0.1506	 0.6984	 0.5737	 0.1969	 0.7706	69.3752	99.8748	
   895	 0.3558	 0.2335	 0.5893	 0.7842	 0.2590	 1.0433	 0.7913	 0.3227	 1.1139	69.2023	99.8728	
   896	 0.7009	 0.4171	 1.1179	 1.0087	 0.3848	 1.3936	 0.8922	 0.3970	 1.2893	69.0072	99.8756	
   897	 0.7186	 0.4568	 1.1754	 0.8778	 0.3914	 1.2693	 0.7711	 0.3645	 1.1356	68.8824	99.8598	
   898	 0.5549	 0.3849	 0.9398	 0.7232	 0.3335	 1.0568	 0.6670	 0.3318	 0.9988	68.7939	99.8517	
   899	 0.4938	 0.3761	 0.8699	 0.6345	 0.2788	 0.9133	 0.5629	 0.2991	 0.8620	68.7273	99.8389	
   900	 0.2818	 0.2600	 0.5419	 0.5023	 0.1600	 0.6624	 0.4671	 0.2171	 0.6843	68.9587	99.8359	
   901	 0.1270	 0.2080	 0.3350	 0.3895	 0.1403	 0.5299	 0.3703	 0.2108	 0.5811	68.7872	99.8416	
   902	 0.2462	 0.4111	 0.6573	 0.4562	 0.3682	 0.8246	 0.3948	 0.3353	 0.7302	68.7223	99.8640	
   903	 0.2945	 0.4553	 0.7497	 0.2904	 0.3408	 0.6313	 0.0176	 0.1965	 0.2140	68.1476	99.8756	
   904	 0.1909	 0.4924	 0.6833	 0.2563	 0.3198	 0.5761	 0.2751	 0.3255	 0.6006	68.9127	99.8058	
   905	-0.0073	 0.3560	 0.3488	 0.0864	 0.2276	 0.3141	 0.1054	 0.2407	 0.3461	68.6663	99.8156	
   906	-0.0723	 0.2871	 0.2149	 0.0643	 0.1890	 0.2534	 0.0856	 0.1956	 0.2812	68.7423	99.8273	
   907	-0.1462	 0.1984	 0.0522	 0.1261	 0.1275	 0.2537	 0.1530	 0.1834	 0.3363	68.8737	99.8385	
   908	-0.0683	 0.2319	 0.1636	 0.2542	 0.1815	 0.4358	 0.2932	 0.2497	 0.5428	68.9319	99.8442	
   909	 0.1190	 0.3184	 0.4374	 0.4369	 0.2692	 0.7062	 0.4622	 0.3231	 0.7853	69.0054	99.8485	
   910	 0.2344	 0.3462	 0.5806	 0.5558	 0.2801	 0.8360	 0.5583	 0.3181	 0.8764	69.2490	99.8522	
   911	 0.2956	 0.3550	 0.6505	 0.5867	 0.2494	 0.8361	 0.5341	 0.2919	 0.8260	69.1897	99.8489	
   912	 0.2571	 0.3457	 0.6028	 0.4927	 0.2164	 0.7092	 0.4463	 0.2477	 0.6939	69.2093	99.8395	
   913	 0.1250	 0.2932	 0.4182	 0.3449	 0.1627	 0.5077	 0.3473	 0.2073	 0.5547	69.2093	99.8278	
   914	 0.0550	 0.2646	 0.3195	 0.2518	 0.1427	 0.3945	 0.2963	 0.2080	 0.5043	69.0421	99.8159	
   915	 0.0313	 0.2500	 0.2813	 0.2313	 0.1300	 0.3614	 0.2786	 0.1969	 0.4755	69.0421	99.8159	
   916	 0.0234	 0.2451	 0.2686	 0.1919	 0.1307	 0.3227	 0.2498	 0.1897	 0.4395	68.9660	99.8128	
   917	-0.0150	 0.2359	 0.2208	 0.1329	 0.1317	 0.2647	 0.1870	 0.1829	 0.3699	68.8093	99.8140	
   918	-0.0762	 0.2271	 0.1509	 0.0679	 0.1414	 0.2094	 0.1235	 0.1648	 0.2883	68.8144	99.8220	
   919	-0.1550	 0.1785	 0.0235	 0.0193	 0.0990	 0.1184	 0.0416	 0.1243	 0.1659	68.7373	99.8312	
   920	-0.2575	 0.1154	-0.1421	-0.0550	 0.0657	 0.0108	-0.0351	 0.0761	 0.0410	68.7373	99.8427	
   921	-0.2989	 0.0611	-0.2378	-0.0635	 0.0356	-0.0277	-0.0372	 0.0421	 0.0049	68.8127	99.8503	
   922	-0.3413	-0.0082	-0.3495	-0.0599	-0.0120	-0.0717	-0.0510	 0.0006	-0.0504	68.8075	99.8601	
   923	-0.4280	-0.0616	-0.4896	-0.1085	-0.0544	-0.1627	-0.1211	-0.0325	-0.1536	68.7256	99.8671	
   924	-0.5049	-0.0801	-0.5851	-0.1743	-0.0576	-0.2318	-0.1610	-0.0358	-0.1968	68.7207	99.8673	
   925	-0.4882	-0.0554	-0.5436	-0.1197	-0.0239	-0.1435	-0.0962	 0.0050	-0.0912	68.7888	99.8703	
   926	-0.4014	-0.0020	-0.4035	-0.0317	 0.0178	-0.0138	 0.0093	 0.0604	 0.0697	68.8598	99.8643	
   927	-0.2753	 0.0757	-0.1996	 0.0980	 0.0977	 0.1958	 0.1679	 0.1491	 0.3170	68.9231	99.8600	
   928	-0.1195	 0.1427	 0.0232	 0.2040	 0.1132	 0.3173	 0.2425	 0.1633	 0.4058	69.0181	99.8507	
   929	-0.1135	 0.1176	 0.0040	 0.2015	 0.0744	 0.2760	 0.2051	 0.1070	 0.3121	69.1142	99.8553	
   930	-0.1845	 0.0739	-0.1107	 0.1008	 0.0372	 0.1380	 0.1055	 0.0554	 0.1609	69.0459	99.8552	
   931	-0.2387	 0.0549	-0.1839	 0.0401	 0.0123	 0.0525	 0.0420	 0.0373	 0.0793	68.9696	99.8526	
   932	-0.3018	 0.0161	-0.2858	-0.0213	-0.0256	-0.0468	-0.0288	-0.0072	-0.0360	68.9769	99.8553	
   933	-0.3403	 0.0068	-0.3335	-0.0418	-0.0382	-0.0799	-0.0413	-0.0260	-0.0672	69.1392	99.8568	
   934	-0.3492	-0.0131	-0.3622	-0.0691	-0.0550	-0.1240	-0.0819	-0.0406	-0.1225	68.9824	99.8565	
   935	-0.4034	-0.0320	-0.4354	-0.1486	-0.0666	-0.2152	-0.1395	-0.0550	-0.1945	68.9037	99.8522	
   936	-0.4418	-0.0413	-0.4831	-0.1948	-0.0702	-0.2649	-0.1742	-0.0659	-0.2401	68.9055	99.8520	
   937	-0.4803	-0.0506	-0.5309	-0.2281	-0.0783	-0.3063	-0.2082	-0.0654	-0.2737	68.8231	99.8513	
   938	-0.5030	-0.0501	-0.5531	-0.2349	-0.0825	-0.3173	-0.2141	-0.0691	-0.2833	68.9037	99.8522	
   939	-0.4961	-0.0603	-0.5563	-0.2221	-0.0870	-0.3090	-0.2030	-0.0731	-0.2761	68.9019	99.8539	
   940	-0.4961	-0.0603	-0.5563	-0.2221	-0.0870	-0.3090	-0.1978	-0.0807	-0.2785	68.9842	99.8546	
   941	-0.5118	-0.0700	-0.5818	-0.2486	-0.0909	-0.3394	-0.2318	-0.0802	-0.3121	68.8231	99.8544	
   942	-0.5503	-0.0792	-0.6295	-0.2819	-0.0990	-0.3808	-0.2554	-0.0951	-0.3505	68.9055	99.8551	
   943	-0.5888	-0.0885	-0.6773	-0.3092	-0.1158	-0.4249	-0.2901	-0.1060	-0.3961	68.9073	99.8551	
   944	-0.6045	-0.0982	-0.7027	-0.3357	-0.1197	-0.4553	-0.3019	-0.1134	-0.4153	68.9073	99.8534	
   945	-0.6045	-0.0982	-0.7027	-0.3426	-0.1239	-0.4663	-0.3130	-0.1095	-0.4225	68.8265	99.8511	
   946	-0.6124	-0.1030	-0.7155	-0.3622	-0.1235	-0.4857	-0.3248	-0.1169	-0.4417	68.8283	99.8508	
   947	-0.6351	-0.1026	-0.7377	-0.3887	-0.1274	-0.5160	-0.3478	-0.1204	-0.4681	68.8300	99.8491	
   948	-0.6578	-0.1021	-0.7599	-0.3956	-0.1316	-0.5271	-0.3536	-0.1241	-0.4777	68.9109	99.8500	
   949	-0.6657	-0.1070	-0.7727	-0.4024	-0.1358	-0.5381	-0.3707	-0.1239	-0.4945	68.8300	99.8508	
   950	-0.6805	-0.1017	-0.7822	-0.4024	-0.1358	-0.5381	-0.3536	-0.1241	-0.4777	68.9898	99.8495	
   951	-0.6509	-0.1123	-0.7632	-0.3887	-0.1274	-0.5160	-0.3307	-0.1206	-0.4513	68.9055	99.8502	
   952	-0.6430	-0.1075	-0.7505	-0.3759	-0.1319	-0.5077	-0.3255	-0.1282	-0.4537	68.9898	99.8509	
   953	-0.6509	-0.1123	-0.7632	-0.3699	-0.1407	-0.5105	-0.3366	-0.1243	-0.4609	68.9073	99.8520	
   954	-0.6657	-0.1070	-0.7727	-0.3827	-0.1362	-0.5188	-0.3366	-0.1243	-0.4609	68.9879	99.8512	
   955	-0.6657	-0.1070	-0.7727	-0.3759	-0.1319	-0.5077	-0.3366	-0.1243	-0.4609	68.9879	99.8543	
   956	-0.6736	-0.1119	-0.7854	-0.3759	-0.1319	-0.5077	-0.3307	-0.1206	-0.4513	68.9842	99.8546	
   957	-0.6430	-0.1075	-0.7505	-0.3366	-0.1326	-0.4691	-0.2908	-0.1173	-0.4081	69.0628	99.8540	
   958	-0.6114	-0.0880	-0.6995	-0.3092	-0.1158	-0.4249	-0.2613	-0.0988	-0.3601	69.0609	99.8526	
   959	-0.5730	-0.0788	-0.6518	-0.2631	-0.1122	-0.3752	-0.2214	-0.0955	-0.3169	69.1411	99.8535	
   960	-0.5345	-0.0695	-0.6041	-0.2169	-0.1087	-0.3255	-0.1926	-0.0883	-0.2809	69.1411	99.8552	
   961	-0.5197	-0.0748	-0.5946	-0.1904	-0.1048	-0.2951	-0.1697	-0.0848	-0.2545	69.1372	99.8585	
   962	-0.4961	-0.0603	-0.5563	-0.1571	-0.0968	-0.2537	-0.1350	-0.0739	-0.2089	69.2153	99.8580	
   963	-0.4497	-0.0462	-0.4959	-0.0912	-0.0935	-0.1847	-0.0774	-0.0595	-0.1369	69.2910	99.8577	
   964	-0.3886	-0.0373	-0.4259	-0.0374	-0.0728	-0.1102	-0.0145	-0.0528	-0.0673	69.3686	99.8600	
   965	-0.3353	-0.0334	-0.3687	 0.0088	-0.0693	-0.0604	 0.0313	-0.0458	-0.0145	69.3665	99.8585	
   966	-0.3038	-0.0140	-0.3178	 0.0353	-0.0654	-0.0301	 0.0549	-0.0310	 0.0239	69.3665	99.8540	
   967	-0.2959	-0.0091	-0.3050	 0.0489	-0.0570	-0.0080	 0.0726	-0.0199	 0.0527	69.3624	99.8542	
   968	-0.2880	-0.0043	-0.2923	 0.0686	-0.0574	 0.0113	 0.0903	-0.0087	 0.0815	69.3582	99.8530	
   969	-0.2653	-0.0047	-0.2701	 0.0951	-0.0535	 0.0417	 0.1191	-0.0015	 0.1175	69.3541	99.8532	
   970	-0.2347	-0.0003	-0.2351	 0.1352	-0.0412	 0.0941	 0.1760	 0.0015	 0.1775	69.5079	99.8550	
   971	-0.2042	 0.0041	-0.2001	 0.1746	-0.0419	 0.1328	 0.1989	 0.0050	 0.2039	69.5079	99.8567	
   972	-0.1973	-0.0061	-0.2034	 0.1814	-0.0377	 0.1439	 0.2048	 0.0087	 0.2135	69.4248	99.8591	
   973	-0.2051	-0.0109	-0.2161	 0.1814	-0.0377	 0.1439	 0.1996	 0.0163	 0.2159	69.3418	99.8601	
   974	-0.2199	-0.0056	-0.2256	 0.1686	-0.0331	 0.1356	 0.1996	 0.0163	 0.2159	69.4206	99.8593	
   975	-0.2278	-0.0105	-0.2383	 0.1686	-0.0331	 0.1356	 0.1996	 0.0163	 0.2159	69.4185	99.8609	
   976	-0.2426	-0.0052	-0.2478	 0.1557	-0.0286	 0.1272	 0.1996	 0.0163	 0.2159	69.4972	99.8602	
   977	-0.2121	-0.0008	-0.2128	 0.1891	-0.0205	 0.1687	 0.2395	 0.0196	 0.2591	69.5736	99.8611	
   978	-0.1815	 0.0036	-0.1779	 0.2216	-0.0254	 0.1963	 0.2513	 0.0270	 0.2783	69.4950	99.8604	
   979	-0.1736	 0.0085	-0.1651	 0.2156	-0.0166	 0.1990	 0.2520	 0.0383	 0.2904	69.4143	99.8581	
   980	-0.1736	 0.0085	-0.1651	 0.2156	-0.0166	 0.1990	 0.2631	 0.0344	 0.2975	69.4929	99.8573	
   981	-0.1963	 0.0089	-0.1874	 0.2156	-0.0166	 0.1990	 0.2520	 0.0383	 0.2904	69.4908	99.8606	
   982	-0.1963	 0.0089	-0.1874	 0.2027	-0.0121	 0.1907	 0.2468	 0.0460	 0.2928	69.4102	99.8583	
   983	-0.1963	 0.0089	-0.1874	 0.1967	-0.0033	 0.1935	 0.2468	 0.0460	 0.2928	69.4102	99.8597	
   984	-0.1963	 0.0089	-0.1874	 0.2164	-0.0037	 0.2128	 0.2697	 0.0495	 0.3192	69.4844	99.8608	
   985	-0.1647	 0.0284	-0.1364	 0.2437	 0.0132	 0.2569	 0.3044	 0.0604	 0.3648	69.5626	99.8601	
   986	-0.1332	 0.0478	-0.0854	 0.2830	 0.0125	 0.2956	 0.3332	 0.0676	 0.4008	69.6430	99.8579	
   987	-0.1105	 0.0473	-0.0632	 0.2838	 0.0254	 0.3094	 0.3509	 0.0787	 0.4296	69.5605	99.8556	
   988	-0.0947	 0.0570	-0.0377	 0.3103	 0.0293	 0.3397	 0.3686	 0.0898	 0.4584	69.5583	99.8558	
   989	-0.0780	 0.0818	 0.0037	 0.3376	 0.0461	 0.3839	 0.4040	 0.1120	 0.5161	69.6319	99.8538	
   990	-0.0159	 0.1056	 0.0897	 0.4035	 0.0493	 0.4529	 0.4609	 0.1151	 0.5760	69.7922	99.8523	
   991	 0.0374	 0.1095	 0.1469	 0.4497	 0.0529	 0.5026	 0.5068	 0.1221	 0.6288	69.7899	99.8508	
   992	 0.0827	 0.1086	 0.1914	 0.4950	 0.0435	 0.5386	 0.5349	 0.1179	 0.6528	69.7922	99.8508	
   993	 0.1054	 0.1082	 0.2136	 0.5087	 0.0519	 0.5607	 0.5637	 0.1251	 0.6888	69.7876	99.8494	
   994	 0.1370	 0.1276	 0.2646	 0.5685	 0.0638	 0.6324	 0.6102	 0.1434	 0.7536	69.8605	99.8521	
   995	 0.2060	 0.1412	 0.3472	 0.6163	 0.0933	 0.7097	 0.6737	 0.1615	 0.8352	69.8558	99.8522	
   996	 0.2454	 0.1655	 0.4109	 0.6693	 0.1010	 0.7704	 0.7091	 0.1838	 0.8929	69.8534	99.8509	
   997	 0.2681	 0.1651	 0.4332	 0.6898	 0.1136	 0.8035	 0.7379	 0.1910	 0.9289	69.8488	99.8526	
   998	 0.2672	 0.1500	 0.4172	 0.6898	 0.1136	 0.8035	 0.7372	 0.1796	 0.9168	69.8488	99.8571	
   999	 0.2129	 0.1311	 0.3440	 0.6625	 0.0968	 0.7594	 0.6914	 0.1726	 0.8641	69.7691	99.8611	
  1000	 0.1823	 0.1267	 0.3090	 0.6360	 0.0930	 0.7290	 0.6626	 0.1655	 0.8280	69.7714	99.8625	
  1001	 0.1597	 0.1271	 0.2868	 0.6103	 0.1020	 0.7124	 0.6574	 0.1731	 0.8305	69.7669	99.8611	
  1002	 0.1527	 0.1373	 0.2900	 0.6103	 0.1020	 0.7124	 0.6574	 0.1731	 0.8305	69.8464	99.8604	
  1003	 0.1212	 0.1179	 0.2391	 0.5906	 0.1024	 0.6931	 0.6345	 0.1696	 0.8041	69.7646	99.8657	
  1004	 0.1133	 0.1130	 0.2263	 0.5838	 0.0982	 0.6820	 0.6286	 0.1659	 0.7945	69.7646	99.8657	
  1005	 0.0985	 0.1183	 0.2168	 0.5641	 0.0985	 0.6627	 0.6227	 0.1622	 0.7849	69.8441	99.8634	
  1006	 0.0837	 0.1236	 0.2073	 0.5573	 0.0943	 0.6517	 0.6116	 0.1661	 0.7777	69.8441	99.8620	
  1007	 0.0837	 0.1236	 0.2073	 0.5444	 0.0988	 0.6433	 0.6004	 0.1700	 0.7705	69.7669	99.8611	
  1008	 0.0689	 0.1289	 0.1979	 0.5248	 0.0992	 0.6240	 0.5946	 0.1663	 0.7609	69.8464	99.8588	
  1009	 0.0453	 0.1144	 0.1596	 0.4983	 0.0953	 0.5936	 0.5657	 0.1591	 0.7249	69.7691	99.8609	
  1010	 0.0068	 0.1051	 0.1119	 0.4778	 0.0827	 0.5605	 0.5421	 0.1443	 0.6865	69.8488	99.8632	
  1011	-0.0169	 0.0906	 0.0737	 0.4444	 0.0746	 0.5191	 0.5133	 0.1371	 0.6505	69.7714	99.8623	
  1012	-0.0474	 0.0862	 0.0387	 0.4179	 0.0707	 0.4888	 0.4845	 0.1299	 0.6145	69.7737	99.8637	
  1013	-0.0711	 0.0716	 0.0005	 0.3975	 0.0581	 0.4557	 0.4668	 0.1188	 0.5856	69.7737	99.8637	
  1014	-0.1095	 0.0623	-0.0472	 0.3513	 0.0545	 0.4059	 0.4210	 0.1118	 0.5328	69.6985	99.8643	
  1015	-0.1411	 0.0429	-0.0982	 0.3180	 0.0465	 0.3645	 0.3922	 0.1046	 0.4968	69.6187	99.8650	
  1016	-0.1559	 0.0482	-0.1077	 0.3111	 0.0423	 0.3535	 0.3922	 0.1046	 0.4968	69.6963	99.8629	
  1017	-0.1638	 0.0434	-0.1204	 0.2915	 0.0426	 0.3342	 0.3693	 0.1011	 0.4704	69.6209	99.8634	
  1018	-0.1865	 0.0438	-0.1426	 0.2778	 0.0342	 0.3121	 0.3575	 0.0937	 0.4512	69.7008	99.8627	
  1019	-0.2022	 0.0341	-0.1681	 0.2642	 0.0258	 0.2900	 0.3346	 0.0902	 0.4248	69.6231	99.8634	
  1020	-0.2091	 0.0443	-0.1649	 0.2581	 0.0345	 0.2928	 0.3405	 0.0939	 0.4344	69.7008	99.8627	
  1021	-0.1855	 0.0588	-0.1267	 0.2915	 0.0426	 0.3342	 0.3759	 0.1162	 0.4921	69.6940	99.8601	
  1022	-0.1234	 0.0827	-0.0407	 0.3445	 0.0503	 0.3949	 0.4269	 0.1155	 0.5424	69.8558	99.8584	
  1023	-0.0938	 0.0720	-0.0217	 0.3641	 0.0500	 0.4142	 0.4321	 0.1079	 0.5400	69.7806	99.8619	
  1024	-0.1095	 0.0623	-0.0472	 0.3573	 0.0458	 0.4032	 0.4203	 0.1005	 0.5208	69.7806	99.8649	
  1025	-0.1174	 0.0575	-0.0600	 0.3505	 0.0416	 0.3922	 0.4092	 0.1044	 0.5136	69.7008	99.8643	
  1026	-0.0859	 0.0769	-0.0090	 0.3710	 0.0542	 0.4253	 0.4387	 0.1229	 0.5617	69.6985	99.8599	
  1027	-0.0247	 0.0857	 0.0610	 0.4308	 0.0662	 0.4971	 0.4956	 0.1260	 0.6216	69.7760	99.8621	
  1028	 0.0137	 0.0950	 0.1087	 0.4633	 0.0613	 0.5247	 0.5127	 0.1258	 0.6384	69.7806	99.8605	
  1029	 0.0285	 0.0897	 0.1182	 0.4701	 0.0655	 0.5357	 0.5238	 0.1219	 0.6456	69.7806	99.8619	
  1030	 0.0364	 0.0945	 0.1309	 0.4770	 0.0697	 0.5468	 0.5245	 0.1332	 0.6576	69.7008	99.8613	
  1031	 0.0522	 0.1042	 0.1564	 0.4838	 0.0739	 0.5578	 0.5415	 0.1330	 0.6744	69.7806	99.8589	
  1032	 0.0679	 0.1139	 0.1819	 0.5043	 0.0865	 0.5909	 0.5651	 0.1478	 0.7129	69.7760	99.8591	
  1033	 0.1212	 0.1179	 0.2391	 0.5565	 0.0813	 0.6379	 0.5991	 0.1474	 0.7464	69.7783	99.8591	
  1034	 0.1439	 0.1174	 0.2613	 0.5761	 0.0810	 0.6572	 0.6102	 0.1434	 0.7536	69.7806	99.8605	
  1035	 0.1429	 0.1024	 0.2453	 0.5565	 0.0813	 0.6379	 0.5984	 0.1360	 0.7344	69.7030	99.8611	
  1036	 0.1202	 0.1029	 0.2231	 0.5496	 0.0771	 0.6269	 0.5932	 0.1437	 0.7368	69.6985	99.8599	
  1037	 0.1054	 0.1082	 0.2136	 0.5368	 0.0817	 0.6186	 0.5821	 0.1476	 0.7296	69.6985	99.8599	
  1038	 0.1045	 0.0931	 0.1976	 0.5428	 0.0729	 0.6158	 0.5762	 0.1439	 0.7200	69.6187	99.8622	
  1039	 0.1123	 0.0980	 0.2103	 0.5565	 0.0813	 0.6379	 0.5991	 0.1474	 0.7464	69.6940	99.8631	
  1040	 0.1429	 0.1024	 0.2453	 0.5761	 0.0810	 0.6572	 0.6161	 0.1471	 0.7632	69.6963	99.8615	
  1041	 0.1439	 0.1174	 0.2613	 0.5830	 0.0852	 0.6683	 0.6279	 0.1546	 0.7824	69.7737	99.8593	
  1042	 0.1666	 0.1170	 0.2835	 0.6026	 0.0849	 0.6876	 0.6338	 0.1583	 0.7920	69.6963	99.8601	
  1043	 0.1823	 0.1267	 0.3090	 0.6095	 0.0891	 0.6986	 0.6397	 0.1620	 0.8017	69.6985	99.8584	
  1044	 0.1745	 0.1218	 0.2963	 0.6095	 0.0891	 0.6986	 0.6397	 0.1620	 0.8017	69.6963	99.8601	
  1045	 0.1823	 0.1267	 0.3090	 0.6163	 0.0933	 0.7097	 0.6515	 0.1694	 0.8209	69.6940	99.8586	
  1046	 0.2287	 0.1408	 0.3695	 0.6564	 0.1056	 0.7621	 0.6973	 0.1764	 0.8737	69.7714	99.8579	
  1047	 0.2741	 0.1399	 0.4139	 0.6829	 0.1094	 0.7925	 0.7091	 0.1838	 0.8929	69.6165	99.8578	
  1048	 0.2750	 0.1549	 0.4299	 0.6898	 0.1136	 0.8035	 0.7202	 0.1798	 0.9001	69.7760	99.8577	
  1049	 0.2829	 0.1598	 0.4427	 0.7026	 0.1091	 0.8118	 0.7261	 0.1836	 0.9097	69.7760	99.8562	
  1050	 0.2750	 0.1549	 0.4299	 0.6829	 0.1094	 0.7925	 0.7202	 0.1798	 0.9001	69.7760	99.8546	
  1051	 0.2593	 0.1452	 0.4044	 0.6633	 0.1098	 0.7731	 0.6921	 0.1840	 0.8761	69.6187	99.8561	
  1052	 0.2356	 0.1306	 0.3662	 0.6496	 0.1014	 0.7511	 0.6744	 0.1729	 0.8473	69.6187	99.8592	
  1053	 0.2356	 0.1306	 0.3662	 0.6496	 0.1014	 0.7511	 0.6744	 0.1729	 0.8473	69.6187	99.8592	
  1054	 0.2425	 0.1205	 0.3630	 0.6488	 0.0884	 0.7373	 0.6567	 0.1617	 0.8184	69.5453	99.8597	
  1055	 0.1972	 0.1214	 0.3185	 0.5966	 0.0936	 0.6903	 0.6168	 0.1585	 0.7753	69.5475	99.8595	
  1056	 0.2050	 0.1262	 0.3313	 0.5898	 0.0894	 0.6793	 0.6109	 0.1548	 0.7656	69.5518	99.8562	
  1057	 0.2060	 0.1412	 0.3472	 0.5898	 0.0894	 0.6793	 0.5998	 0.1587	 0.7585	69.5561	99.8546	
  1058	 0.1991	 0.1514	 0.3505	 0.5701	 0.0897	 0.6600	 0.5775	 0.1666	 0.7441	69.4801	99.8505	
  1059	 0.1695	 0.1620	 0.3315	 0.5376	 0.0946	 0.6323	 0.5494	 0.1707	 0.7201	69.4823	99.8488	
  1060	 0.1399	 0.1726	 0.3125	 0.5051	 0.0995	 0.6047	 0.5383	 0.1746	 0.7129	69.5605	99.8449	
  1061	 0.1330	 0.1828	 0.3158	 0.4854	 0.0998	 0.5853	 0.5390	 0.1860	 0.7250	69.5583	99.8369	
  1062	 0.1330	 0.1828	 0.3158	 0.4461	 0.1005	 0.5466	 0.5057	 0.1977	 0.7034	69.3235	99.8292	
  1063	 0.0807	 0.1939	 0.2746	 0.3742	 0.1060	 0.4803	 0.4487	 0.1947	 0.6434	69.3296	99.8253	
  1064	 0.0422	 0.1846	 0.2268	 0.2758	 0.1077	 0.3836	 0.3689	 0.1882	 0.5570	69.0991	99.8184	
  1065	 0.0126	 0.1952	 0.2079	 0.2305	 0.1171	 0.3477	 0.3179	 0.1888	 0.5067	69.0255	99.8187	
  1066	-0.0337	 0.1811	 0.1474	 0.1510	 0.1055	 0.2565	 0.2262	 0.1749	 0.4011	68.7939	99.8170	
  1067	-0.0870	 0.1772	 0.0902	 0.0851	 0.1023	 0.1875	 0.1627	 0.1568	 0.3195	68.8007	99.8180	
  1068	-0.1412	 0.1582	 0.0170	 0.0185	 0.0861	 0.1047	 0.0992	 0.1387	 0.2379	68.7240	99.8167	
  1069	-0.1570	 0.1485	-0.0085	-0.0149	 0.0780	 0.0633	 0.0697	 0.1201	 0.1898	68.7289	99.8162	
  1070	-0.1983	 0.0942	-0.1042	-0.0361	 0.0525	 0.0164	 0.0277	 0.0828	 0.1106	68.6485	99.8289	
  1071	-0.3157	 0.0364	-0.2793	-0.0711	 0.0185	-0.0525	-0.0077	 0.0606	 0.0529	68.7174	99.8409	
  1072	-0.3551	 0.0121	-0.3430	-0.0514	 0.0181	-0.0332	 0.0093	 0.0604	 0.0697	68.7872	99.8521	
  1073	-0.3472	 0.0170	-0.3303	 0.0084	 0.0301	 0.0386	 0.0735	 0.0898	 0.1634	68.8529	99.8556	
  1074	-0.2526	 0.0752	-0.1774	 0.1108	 0.0932	 0.2041	 0.1915	 0.1640	 0.3555	68.8392	99.8534	
  1075	-0.1343	 0.1480	 0.0137	 0.2269	 0.1647	 0.3917	 0.3331	 0.2529	 0.5860	68.8240	99.8466	
  1076	 0.0067	 0.2204	 0.2271	 0.3610	 0.2100	 0.5711	 0.4542	 0.2854	 0.7396	69.0637	99.8457	
  1077	 0.0491	 0.1745	 0.2236	 0.3561	 0.1322	 0.4885	 0.3918	 0.1916	 0.5834	69.0934	99.8456	
  1078	-0.0366	 0.1361	 0.0994	 0.2819	 0.0989	 0.3809	 0.3151	 0.1435	 0.4586	69.1800	99.8507	
  1079	-0.0849	 0.0919	 0.0070	 0.1931	 0.0443	 0.2375	 0.2162	 0.1031	 0.3193	68.9515	99.8427	
  1080	-0.1470	 0.0681	-0.0789	 0.1256	 0.0151	 0.1409	 0.1513	 0.0623	 0.2137	69.0403	99.8429	
  1081	-0.2318	 0.0447	-0.1871	 0.0461	 0.0035	 0.0498	 0.0767	 0.0482	 0.1249	68.9605	99.8452	
  1082	-0.2693	 0.0505	-0.2188	-0.0069	-0.0042	-0.0110	 0.0309	 0.0412	 0.0721	68.9660	99.8400	
  1083	-0.3147	 0.0514	-0.2633	-0.0538	-0.0207	-0.0745	-0.0202	 0.0419	 0.0217	68.8877	99.8342	
  1084	-0.3295	 0.0567	-0.2728	-0.0864	-0.0158	-0.1021	-0.0320	 0.0344	 0.0025	68.9714	99.8313	
  1085	-0.3295	 0.0567	-0.2728	-0.0803	-0.0246	-0.1048	-0.0320	 0.0344	 0.0025	68.9714	99.8298	
  1086	-0.3374	 0.0519	-0.2855	-0.1000	-0.0243	-0.1242	-0.0549	 0.0310	-0.0239	68.8930	99.8304	
  1087	-0.3680	 0.0474	-0.3205	-0.1265	-0.0281	-0.1545	-0.0778	 0.0275	-0.0503	68.8930	99.8304	
  1088	-0.3906	 0.0479	-0.3427	-0.1462	-0.0278	-0.1739	-0.0948	 0.0277	-0.0671	68.8930	99.8304	
  1089	-0.3985	 0.0430	-0.3555	-0.1659	-0.0275	-0.1932	-0.1118	 0.0279	-0.0839	68.8127	99.8294	
  1090	-0.4064	 0.0382	-0.3682	-0.1659	-0.0275	-0.1932	-0.1118	 0.0279	-0.0839	68.8110	99.8312	
  1091	-0.4064	 0.0382	-0.3682	-0.1659	-0.0275	-0.1932	-0.1007	 0.0240	-0.0767	68.8913	99.8304	
  1092	-0.3916	 0.0329	-0.3587	-0.1659	-0.0275	-0.1932	-0.1066	 0.0203	-0.0863	68.8127	99.8309	
  1093	-0.4074	 0.0232	-0.3842	-0.1795	-0.0359	-0.2153	-0.1295	 0.0168	-0.1127	68.7323	99.8318	
  1094	-0.4301	 0.0236	-0.4064	-0.1992	-0.0355	-0.2346	-0.1302	 0.0054	-0.1247	68.8948	99.8316	
  1095	-0.4380	 0.0188	-0.4192	-0.1992	-0.0355	-0.2346	-0.1413	 0.0094	-0.1319	68.8127	99.8343	
  1096	-0.4606	 0.0192	-0.4414	-0.2128	-0.0440	-0.2567	-0.1583	 0.0096	-0.1487	68.8127	99.8327	
  1097	-0.4685	 0.0144	-0.4542	-0.2257	-0.0394	-0.2650	-0.1694	 0.0135	-0.1559	68.7306	99.8336	
  1098	-0.4606	 0.0192	-0.4414	-0.2189	-0.0352	-0.2540	-0.1413	 0.0094	-0.1319	68.8913	99.8319	
  1099	-0.4528	 0.0241	-0.4287	-0.2060	-0.0397	-0.2457	-0.1413	 0.0094	-0.1319	68.8930	99.8319	
  1100	-0.4528	 0.0241	-0.4287	-0.2128	-0.0440	-0.2567	-0.1472	 0.0057	-0.1415	68.8948	99.8301	
  1101	-0.4606	 0.0192	-0.4414	-0.2197	-0.0482	-0.2677	-0.1642	 0.0059	-0.1583	68.8144	99.8309	
  1102	-0.4833	 0.0197	-0.4637	-0.2393	-0.0478	-0.2871	-0.1701	 0.0022	-0.1679	68.8948	99.8301	
  1103	-0.4912	 0.0148	-0.4764	-0.2462	-0.0520	-0.2981	-0.1871	 0.0024	-0.1847	68.8144	99.8309	
  1104	-0.4991	 0.0100	-0.4891	-0.2658	-0.0517	-0.3174	-0.1930	-0.0013	-0.1943	68.8144	99.8291	
  1105	-0.4991	 0.0100	-0.4891	-0.2530	-0.0562	-0.3091	-0.1819	-0.0052	-0.1871	68.8948	99.8301	
  1106	-0.4843	 0.0047	-0.4796	-0.2530	-0.0562	-0.3091	-0.1819	-0.0052	-0.1871	68.8144	99.8291	
  1107	-0.4922	-0.0002	-0.4924	-0.2727	-0.0559	-0.3285	-0.1989	-0.0050	-0.2039	68.7339	99.8281	
  1108	-0.5070	 0.0051	-0.5019	-0.2795	-0.0601	-0.3395	-0.2048	-0.0087	-0.2135	68.8161	99.8273	
  1109	-0.5297	 0.0056	-0.5241	-0.2992	-0.0598	-0.3589	-0.2218	-0.0085	-0.2303	68.8161	99.8273	
  1110	-0.5524	 0.0060	-0.5463	-0.3188	-0.0594	-0.3782	-0.2388	-0.0083	-0.2471	68.8161	99.8273	
  1111	-0.5602	 0.0012	-0.5591	-0.3385	-0.0591	-0.3975	-0.2447	-0.0120	-0.2567	68.8161	99.8254	
  1112	-0.5454	-0.0041	-0.5496	-0.3317	-0.0549	-0.3865	-0.2277	-0.0122	-0.2399	68.8144	99.8254	
  1113	-0.5454	-0.0041	-0.5496	-0.3188	-0.0594	-0.3782	-0.2277	-0.0122	-0.2399	68.8144	99.8273	
  1114	-0.5681	-0.0037	-0.5718	-0.3453	-0.0633	-0.4086	-0.2447	-0.0120	-0.2567	68.8144	99.8239	
  1115	-0.5839	-0.0134	-0.5973	-0.3522	-0.0675	-0.4196	-0.2565	-0.0194	-0.2759	68.8144	99.8273	
  1116	-0.5997	-0.0231	-0.6228	-0.3787	-0.0714	-0.4500	-0.2794	-0.0229	-0.3023	68.7339	99.8263	
  1117	-0.6302	-0.0275	-0.6578	-0.3855	-0.0756	-0.4610	-0.2912	-0.0303	-0.3215	68.8144	99.8307	
  1118	-0.6539	-0.0421	-0.6960	-0.3923	-0.0798	-0.4720	-0.2971	-0.0340	-0.3311	68.8110	99.8343	
  1119	-0.6401	-0.0624	-0.7025	-0.3863	-0.0886	-0.4748	-0.2808	-0.0456	-0.3264	68.8093	99.8343	
  1120	-0.6480	-0.0673	-0.7152	-0.3803	-0.0973	-0.4775	-0.2867	-0.0493	-0.3360	68.8093	99.8361	
  1121	-0.6716	-0.0818	-0.7534	-0.3939	-0.1057	-0.4996	-0.3155	-0.0565	-0.3720	68.7289	99.8402	
  1122	-0.7091	-0.0761	-0.7852	-0.4204	-0.1096	-0.5299	-0.3162	-0.0678	-0.3840	68.9714	99.8377	
  1123	-0.7170	-0.0809	-0.7979	-0.4273	-0.1138	-0.5410	-0.3332	-0.0676	-0.4008	68.8913	99.8386	
  1124	-0.7476	-0.0853	-0.8329	-0.4538	-0.1177	-0.5713	-0.3502	-0.0674	-0.4176	68.8895	99.8370	
  1125	-0.7476	-0.0853	-0.8329	-0.4538	-0.1177	-0.5713	-0.3450	-0.0750	-0.4200	68.9714	99.8377	
  1126	-0.7554	-0.0902	-0.8456	-0.4409	-0.1222	-0.5630	-0.3280	-0.0752	-0.4032	69.0477	99.8390	
  1127	-0.7328	-0.0906	-0.8234	-0.4341	-0.1180	-0.5520	-0.3221	-0.0715	-0.3936	68.9678	99.8380	
  1128	-0.7328	-0.0906	-0.8234	-0.4341	-0.1180	-0.5520	-0.3332	-0.0676	-0.4008	68.8877	99.8388	
  1129	-0.7466	-0.0703	-0.8169	-0.4341	-0.1180	-0.5520	-0.3214	-0.0602	-0.3816	69.0477	99.8341	
  1130	-0.7308	-0.0606	-0.7914	-0.4204	-0.1096	-0.5299	-0.3096	-0.0528	-0.3624	69.0477	99.8341	
  1131	-0.7141	-0.0359	-0.7499	-0.4068	-0.1012	-0.5079	-0.2749	-0.0419	-0.3168	69.2073	99.8275	
  1132	-0.7052	-0.0160	-0.7212	-0.3743	-0.1060	-0.4802	-0.2624	-0.0231	-0.2855	69.2054	99.8246	
  1133	-0.6746	-0.0116	-0.6862	-0.3470	-0.0892	-0.4361	-0.2048	-0.0087	-0.2135	69.2769	99.8225	
  1134	-0.6510	 0.0030	-0.6480	-0.3273	-0.0896	-0.4167	-0.1819	-0.0052	-0.1871	69.3582	99.8182	
  1135	-0.6658	 0.0083	-0.6575	-0.3530	-0.0805	-0.4334	-0.1930	-0.0013	-0.1943	69.3582	99.8163	
  1136	-0.6806	 0.0136	-0.6670	-0.3666	-0.0889	-0.4554	-0.2041	 0.0026	-0.2015	69.3582	99.8111	
  1137	-0.6954	 0.0189	-0.6765	-0.3727	-0.0801	-0.4527	-0.1982	 0.0063	-0.1919	69.4353	99.8122	
  1138	-0.6954	 0.0189	-0.6765	-0.3658	-0.0759	-0.4417	-0.2034	 0.0140	-0.1895	69.3541	99.8149	
  1139	-0.6954	 0.0189	-0.6765	-0.3847	-0.0627	-0.4472	-0.1975	 0.0177	-0.1799	69.3521	99.8131	
  1140	-0.6717	 0.0335	-0.6383	-0.3369	-0.0332	-0.3700	-0.1379	 0.0661	-0.0718	69.2549	99.8135	
  1141	-0.5475	 0.0811	-0.4664	-0.1875	 0.0464	-0.1410	 0.0259	 0.1472	 0.1731	69.2313	99.8202	
  1142	-0.4815	 0.1650	-0.3165	-0.1305	 0.1189	-0.0115	 0.0877	 0.2296	 0.3173	69.1455	99.8147	
  1143	-0.3395	 0.2524	-0.0872	 0.0462	 0.2153	 0.2616	 0.2397	 0.3033	 0.5430	69.2935	99.8290	
  1144	-0.1877	 0.2594	 0.0717	 0.2225	 0.1993	 0.4219	 0.3980	 0.2937	 0.6917	69.6034	99.8296	
  1145	-0.0614	 0.2218	 0.1604	 0.2903	 0.1290	 0.4194	 0.4206	 0.1988	 0.6194	69.7945	99.8276	
  1146	-0.1875	 0.1441	-0.0435	 0.0999	 0.0242	 0.1243	 0.2051	 0.1070	 0.3121	69.5101	99.8153	
  1147	-0.4173	 0.1036	-0.3138	-0.1574	 0.0026	-0.1547	 0.0284	 0.0942	 0.1226	69.3459	99.8010	
  1148	-0.4765	 0.1248	-0.3517	-0.2285	 0.0211	-0.2072	-0.0042	 0.1173	 0.1131	69.3418	99.7920	
  1149	-0.5061	 0.1354	-0.3707	-0.2610	 0.0260	-0.2349	-0.0383	 0.1177	 0.0795	69.3459	99.7917	
  1150	-0.5673	 0.1266	-0.4407	-0.3397	 0.0273	-0.3122	-0.1004	 0.1223	 0.0219	69.1858	99.7878	
  1151	-0.6205	 0.1227	-0.4979	-0.3867	 0.0108	-0.3757	-0.1410	 0.1077	-0.0333	69.2689	99.7848	
  1152	-0.6521	 0.1033	-0.5488	-0.4003	 0.0024	-0.3978	-0.1469	 0.1040	-0.0429	69.2629	99.7872	
  1153	-0.6382	 0.0829	-0.5553	-0.3815	-0.0109	-0.3922	-0.1365	 0.0887	-0.0477	69.2629	99.7909	
  1154	-0.6550	 0.0582	-0.5968	-0.3891	-0.0280	-0.4170	-0.1490	 0.0700	-0.0790	69.2629	99.7946	
  1155	-0.6856	 0.0538	-0.6318	-0.4027	-0.0364	-0.4391	-0.1719	 0.0665	-0.1054	69.2629	99.7966	
  1156	-0.7004	 0.0591	-0.6413	-0.4027	-0.0364	-0.4391	-0.1660	 0.0702	-0.0958	69.3398	99.7960	
  1157	-0.7004	 0.0591	-0.6413	-0.3967	-0.0452	-0.4418	-0.1549	 0.0663	-0.0886	69.4185	99.7934	
  1158	-0.7161	 0.0494	-0.6667	-0.3907	-0.0539	-0.4445	-0.1438	 0.0624	-0.0814	69.4929	99.7947	
  1159	-0.6944	 0.0339	-0.6605	-0.3839	-0.0497	-0.4335	-0.1385	 0.0547	-0.0838	69.4143	99.7991	
  1160	-0.7023	 0.0291	-0.6732	-0.3975	-0.0581	-0.4556	-0.1615	 0.0512	-0.1102	69.3377	99.7980	
  1161	-0.7250	 0.0295	-0.6955	-0.4044	-0.0623	-0.4666	-0.1785	 0.0515	-0.1270	69.3377	99.7999	
  1162	-0.7338	 0.0096	-0.7242	-0.4180	-0.0707	-0.4887	-0.1962	 0.0403	-0.1558	69.2589	99.8025	
  1163	-0.7654	-0.0098	-0.7752	-0.4445	-0.0746	-0.5190	-0.2250	 0.0331	-0.1918	69.1780	99.8070	
  1164	-0.7644	 0.0052	-0.7592	-0.4248	-0.0749	-0.4997	-0.2132	 0.0406	-0.1726	69.2569	99.8064	
  1165	-0.7408	 0.0198	-0.7210	-0.3634	-0.0371	-0.4004	-0.1306	 0.0925	-0.0381	69.2352	99.8097	
  1166	-0.5830	 0.1169	-0.4661	-0.1662	 0.0719	-0.0942	 0.0752	 0.2109	 0.2860	69.2875	99.8143	
  1167	-0.3968	 0.3037	-0.0932	 0.0503	 0.2800	 0.3304	 0.3094	 0.4235	 0.7328	69.1757	99.8193	
  1168	-0.1090	 0.5385	 0.4295	 0.2788	 0.4706	 0.7496	 0.4478	 0.5541	 1.0018	69.2004	99.8293	
  1169	-0.0007	 0.6917	 0.6910	 0.2954	 0.6302	 0.9257	 0.3210	 0.6162	 0.9372	68.6913	99.8571	
  1170	-0.0914	 0.6935	 0.6021	 0.1320	 0.6416	 0.7737	 0.0631	 0.5742	 0.6373	68.1585	99.8717	
  1171	-0.2058	 0.6808	 0.4749	-0.0459	 0.6317	 0.5859	-0.1202	 0.5462	 0.4261	67.8437	99.8687	
  1172	-0.1910	 0.6755	 0.4844	-0.0314	 0.6530	 0.6217	-0.1240	 0.5766	 0.4526	67.5112	99.8734	
  1173	-0.1506	 0.7148	 0.5641	 0.0385	 0.7210	 0.7596	-0.0310	 0.6132	 0.5822	67.7516	99.8828	
  1174	-0.1368	 0.6944	 0.5576	 0.0497	 0.6906	 0.7404	-0.0730	 0.5759	 0.5029	67.6769	99.8886	
  1175	-0.1585	 0.7099	 0.5514	 0.0923	 0.7417	 0.8341	 0.0214	 0.6352	 0.6566	67.8245	99.8925	
  1176	-0.0579	 0.7430	 0.6850	 0.2103	 0.7397	 0.9501	 0.1124	 0.6378	 0.7502	68.0702	99.8922	
  1177	-0.0451	 0.7076	 0.6626	 0.2003	 0.6837	 0.8841	 0.1082	 0.5698	 0.6780	68.3229	99.8882	
  1178	-0.1653	 0.6048	 0.4395	 0.1014	 0.5730	 0.6745	 0.0576	 0.4834	 0.5411	68.5633	99.8796	
  1179	-0.3269	 0.4476	 0.1207	-0.0938	 0.3905	 0.2968	-0.0867	 0.3491	 0.2624	68.5695	99.8571	
  1180	-0.4837	 0.3655	-0.1181	-0.1894	 0.3316	 0.1423	-0.1110	 0.3229	 0.2120	68.7108	99.8524	
  1181	-0.5635	 0.3020	-0.2615	-0.2516	 0.2808	 0.0293	-0.1595	 0.2706	 0.1111	68.7905	99.8547	
  1182	-0.6000	 0.3228	-0.2773	-0.2259	 0.2717	 0.0459	-0.1248	 0.2815	 0.1567	69.1028	99.8526	
  1183	-0.6089	 0.3029	-0.3060	-0.2797	 0.2510	-0.0286	-0.2015	 0.2333	 0.0318	69.0421	99.8551	
  1184	-0.7016	 0.2747	-0.4269	-0.4026	 0.1753	-0.2272	-0.3143	 0.1516	-0.1627	69.3074	99.8436	
  1185	-0.9273	 0.1789	-0.7484	-0.7066	 0.0379	-0.6687	-0.5940	 0.0303	-0.5637	69.1764	99.8195	
  1186	-1.0812	 0.1419	-0.9393	-0.8817	-0.0327	-0.9143	-0.7970	-0.0427	-0.8397	69.1206	99.8152	
  1187	-1.1660	 0.1185	-1.0475	-1.0202	-0.0433	-1.0634	-0.9005	-0.0641	-0.9645	68.9621	99.8069	
  1188	-1.2804	 0.1058	-1.1746	-1.1262	-0.0588	-1.1849	-1.0150	-0.0815	-1.0965	68.8851	99.8092	
  1189	-1.2942	 0.1261	-1.1681	-1.1776	-0.0406	-1.2181	-1.0712	-0.0732	-1.1445	68.7265	99.8064	
  1190	-1.3159	 0.1416	-1.1744	-1.1684	 0.0024	-1.1658	-1.0331	-0.0056	-1.0387	68.5396	99.8064	
  1191	-1.1986	 0.1994	-0.9992	-0.8900	 0.1490	-0.7410	-0.6642	 0.1825	-0.4817	68.7157	99.8223	
  1192	-0.9166	 0.3441	-0.5725	-0.4989	 0.3152	-0.1836	-0.3314	 0.3371	 0.0057	68.9284	99.8503	
  1193	-0.6701	 0.4094	-0.2608	-0.3126	 0.3553	 0.0428	-0.2117	 0.3469	 0.1353	68.9479	99.8537	
  1194	-0.6474	 0.4089	-0.2385	-0.2989	 0.3637	 0.0649	-0.1829	 0.3541	 0.1713	68.9444	99.8522	
  1195	-0.6326	 0.4036	-0.2290	-0.3006	 0.3378	 0.0373	-0.1711	 0.3616	 0.1905	68.8615	99.8390	
  1196	-0.6573	 0.3740	-0.2833	-0.3279	 0.3210	-0.0068	-0.1652	 0.3653	 0.2001	68.7721	99.8322	
  1197	-0.6021	 0.4080	-0.1941	-0.2656	 0.3718	 0.1063	-0.1134	 0.3759	 0.2625	68.9337	99.8449	
  1198	-0.5538	 0.4522	-0.1016	-0.1973	 0.4138	 0.2166	-0.0545	 0.4130	 0.3586	69.0090	99.8492	
  1199	-0.4838	 0.4808	-0.0030	-0.1307	 0.4300	 0.2994	 0.0150	 0.4348	 0.4498	69.0859	99.8455	
  1200	-0.3999	 0.4892	 0.0892	-0.0769	 0.4507	 0.3739	 0.0438	 0.4420	 0.4858	68.9319	99.8497	
  1201	-0.4078	 0.4843	 0.0765	-0.0648	 0.4332	 0.3685	 0.0438	 0.4420	 0.4858	68.9301	99.8486	
  1202	-0.4561	 0.4402	-0.0160	-0.1339	 0.3782	 0.2444	-0.0166	 0.3823	 0.3657	69.0200	99.8439	
  1203	-0.5675	 0.3572	-0.2103	-0.2628	 0.3112	 0.0485	-0.1221	 0.3269	 0.2048	68.8615	99.8387	
  1204	-0.5636	 0.4173	-0.1464	-0.2066	 0.3708	 0.1643	-0.0985	 0.3417	 0.2432	69.1858	99.8575	
  1205	-0.6267	 0.3784	-0.2483	-0.3311	 0.2692	-0.0618	-0.2925	 0.2307	-0.0617	69.1508	99.8513	
  1206	-0.8002	 0.2716	-0.5286	-0.6026	 0.1268	-0.4757	-0.5506	 0.0903	-0.4603	69.0234	99.8308	
  1207	-0.8682	 0.2730	-0.5953	-0.6753	 0.1194	-0.5557	-0.6148	 0.0609	-0.5540	69.1984	99.8317	
  1208	-0.9540	 0.2346	-0.7194	-0.7905	 0.0609	-0.7295	-0.7838	-0.0126	-0.7965	69.0617	99.8349	
  1209	-1.0635	 0.1816	-0.8818	-0.9323	-0.0015	-0.9337	-0.8782	-0.0719	-0.9502	69.1524	99.8213	
  1210	-1.2035	 0.1243	-1.0792	-1.0997	-0.0549	-1.1545	-1.0400	-0.1190	-1.1590	68.9108	99.8160	
  1211	-1.2567	 0.1203	-1.1364	-1.1322	-0.0500	-1.1822	-1.0622	-0.1112	-1.1734	68.9052	99.8182	
  1212	-1.2942	 0.1261	-1.1681	-1.1784	-0.0536	-1.2319	-1.1139	-0.1218	-1.2358	68.9126	99.8176	
  1213	-1.3248	 0.1217	-1.2031	-1.2238	-0.0442	-1.2678	-1.1761	-0.1173	-1.2933	68.6635	99.8216	
  1214	-1.3248	 0.1217	-1.2031	-1.2716	-0.0736	-1.3451	-1.2114	-0.1395	-1.3509	68.6736	99.8063	
  1215	-1.3731	 0.0776	-1.2955	-1.3716	-0.0978	-1.4693	-1.3104	-0.1798	-1.4902	68.4281	99.8057	
  1216	-1.3967	 0.0630	-1.3337	-1.4177	-0.1014	-1.5190	-1.3687	-0.2056	-1.5742	68.3506	99.8110	
  1217	-1.4588	 0.0392	-1.4197	-1.4904	-0.1088	-1.5991	-1.4433	-0.2197	-1.6630	68.1812	99.8140	
  1218	-1.4391	-0.0063	-1.4454	-1.4920	-0.1347	-1.6266	-1.4460	-0.2651	-1.7111	68.1853	99.8185	
  1219	-1.5356	-0.0946	-1.6303	-1.5021	-0.1907	-1.6927	-1.3544	-0.2511	-1.6055	68.3213	99.8062	
  1220	-1.5228	-0.1300	-1.6528	-1.3917	-0.2099	-1.6014	-1.2228	-0.2339	-1.4568	68.5490	99.8120	
  1221	-1.4784	-0.1459	-1.6243	-1.3335	-0.2238	-1.5572	-1.1673	-0.2536	-1.4208	68.7146	99.8158	
  1222	-1.4794	-0.1609	-1.6403	-1.3343	-0.2367	-1.5709	-1.1326	-0.2427	-1.3752	68.7045	99.8059	
  1223	-1.4103	-0.1473	-1.5576	-1.3146	-0.2371	-1.5516	-1.1333	-0.2540	-1.3872	68.6335	99.8018	
