OxySoft export of:	C:\Users\TO3 TechSupport\Documents\Train2Adapt\Post_tests\T2A_67_POST_NIRS
Export date:	2022/12/16 07:34:48
Start of measurement:	2022-12-15 22:30:40.637

Datafile sample rate:	10.00	Hz
Datafile duration:	2965.200	s
Datafile total number of samples:	29652

Description:	

Optode-template:	PortaMon TSI Fit Factor
Optode distance (mm):	 35.00
Optode gradients (mm):	 5.00
DPF:	6.14

Device id:	334
# Receivers:	1
# Light sources:	6
# ADC:	2

Light source wavelengths:
device	index	wavelength
1	1	849	nm
1	2	759	nm
1	3	846	nm
1	4	757	nm
1	5	848	nm
1	6	757	nm

Export sample rate:	10.00	Hz
Selected time span:	0	2965.200
Selected time span (sample numbers):	0	29652


Legend:
Column	Trace (Measurement)
1	(Sample number)
2	Rx1-Tx1 O2Hb (T2A_67_POST_NIRS)
3	Rx1-Tx1 HHb (T2A_67_POST_NIRS)
4	Rx1-Tx1 tHb (T2A_67_POST_NIRS)
5	Rx1-Tx2 O2Hb (T2A_67_POST_NIRS)
6	Rx1-Tx2 HHb (T2A_67_POST_NIRS)
7	Rx1-Tx2 tHb (T2A_67_POST_NIRS)
8	Rx1-Tx3 O2Hb (T2A_67_POST_NIRS)
9	Rx1-Tx3 HHb (T2A_67_POST_NIRS)
10	Rx1-Tx3 tHb (T2A_67_POST_NIRS)
11	Rx1-Tx1,Tx2,Tx3 TSI% (T2A_67_POST_NIRS)
12	Rx1-Tx1,Tx2,Tx3 TSI Fit Factor (T2A_67_POST_NIRS)
13	(Event)


1	2	3	4	5	6	7	8	9	10	11	12	13
     0	123.3705	67.5128	190.8833	99.4350	56.6249	156.0600	80.2082	50.9751	131.1833	11.5652	98.7634	
     1	 4.4568	 1.7591	 6.2159	 4.4946	 1.6309	 6.1256	 4.7385	 1.5682	 6.3067	67.1252	99.9072	
     2	 4.1753	 1.4646	 5.6399	 4.0807	 1.2974	 5.3782	 4.3030	 1.1685	 5.4715	67.2683	99.9036	
     3	 3.7735	 1.1567	 4.9302	 3.5744	 0.9201	 4.4946	 3.6743	 0.7275	 4.4018	67.2937	99.9063	
     4	 3.2185	 0.8150	 4.0335	 2.9601	 0.5809	 3.5412	 3.0211	 0.3743	 3.3954	67.0933	99.9068	
     5	 2.7245	 0.5563	 3.2808	 2.3464	 0.3598	 2.7063	 2.2397	 0.1698	 2.4095	66.1420	99.9127	
     6	 1.4804	 0.2600	 1.7404	 1.2455	 0.1787	 1.4243	 1.1449	 0.2038	 1.3487	64.7310	99.9104	
     7	-0.0631	-0.1146	-0.1777	-0.1558	-0.1744	-0.3301	-0.2417	-0.1519	-0.3936	64.4059	99.9196	
     8	-0.6656	-0.6976	-1.3631	-0.5884	-0.8072	-1.3955	-0.4710	-0.7887	-1.2597	65.6993	99.9118	
     9	-0.0531	-0.8204	-0.8734	-0.0347	-0.8846	-0.9192	 0.2088	-0.7855	-0.5767	65.8774	99.8949	
    10	 0.3322	-0.6438	-0.3116	 0.2691	-0.6583	-0.3891	 0.3538	-0.5569	-0.2032	65.1723	99.9053	
    11	-0.0775	-0.2144	-0.2919	-0.0072	-0.0044	-0.0116	 0.2255	 0.2792	 0.5047	63.6786	99.9041	
    12	 1.0252	 0.6008	 1.6260	 1.4306	 0.9336	 2.3644	 2.0792	 1.2607	 3.3399	64.8097	99.9007	
    13	 2.4318	 1.0729	 3.5047	 2.8242	 1.1643	 3.9886	 3.1495	 1.3145	 4.4639	65.9606	99.9193	
    14	 3.3994	 1.2747	 4.6741	 3.6901	 1.2268	 4.9170	 3.9468	 1.0936	 5.0404	67.5039	99.9312	
    15	 3.7322	 1.0101	 4.7423	 3.8173	 0.8343	 4.6517	 3.8753	 0.6017	 4.4771	67.8773	99.9320	
    16	 3.1006	 0.5909	 3.6915	 3.0499	 0.3615	 3.4115	 3.1379	 0.1384	 3.2763	67.8194	99.9185	
    17	 2.7329	 0.4403	 3.1732	 2.6074	 0.2328	 2.8403	 2.6001	 0.0181	 2.6183	67.2291	99.9215	
    18	 2.4739	 0.3718	 2.8457	 2.1953	 0.1490	 2.3444	 2.0021	-0.0139	 1.9882	66.1870	99.9200	
    19	 1.1739	 0.0713	 1.2452	 0.9468	 0.0339	 0.9808	 0.8073	 0.1406	 0.9479	64.1544	99.9095	
    20	 0.0000	-0.0000	-0.0000	-0.0000	-0.0000	 0.0000	-0.0000	-0.0000	-0.0000	64.6411	99.9251	
    21	-0.3072	-0.5678	-0.8750	-0.2796	-0.7216	-1.0011	-0.1581	-0.7411	-0.8992	66.0102	99.9087	
    22	 0.0732	-0.7123	-0.6391	 0.1223	-0.8010	-0.6787	 0.4323	-0.7368	-0.3045	66.3150	99.8933	
    23	 0.4711	-0.7097	-0.2386	 0.3981	-0.8012	-0.4030	 0.4936	-0.7097	-0.2162	65.6566	99.8986	
    24	-0.0119	-0.5527	-0.5645	-0.0901	-0.4479	-0.5379	 0.0206	-0.2506	-0.2300	64.0778	99.9032	
    25	 0.4328	 0.2967	 0.7295	 0.7463	 0.5775	 1.3239	 1.2743	 0.7664	 2.0407	64.9137	99.9117	
    26	 1.5951	 0.5578	 2.1530	 1.9003	 0.7260	 2.6264	 2.3749	 0.8277	 3.2026	65.9614	99.9140	
    27	 2.7491	 0.8138	 3.5630	 2.8615	 0.7687	 3.6304	 3.0165	 0.6923	 3.7087	66.6847	99.9240	
    28	 3.6326	 1.1911	 4.8237	 3.6444	 0.9371	 4.5816	 3.6252	 0.6050	 4.2301	67.9840	99.9357	
    29	 3.5905	 0.7865	 4.3770	 3.3443	 0.4383	 3.7826	 3.1398	 0.0708	 3.2106	67.8148	99.9304	
    30	 3.0551	 0.5023	 3.5574	 2.7997	 0.2205	 3.0203	 2.6534	-0.0859	 2.5676	67.3770	99.9258	
    31	 2.9018	 0.4685	 3.3703	 2.5411	 0.1659	 2.7071	 2.2767	-0.1049	 2.1719	66.7235	99.9235	
    32	 1.7427	 0.1337	 1.8763	 1.3799	 0.0130	 1.3930	 1.1286	 0.0331	 1.1618	64.4955	99.9107	
    33	 0.3616	 0.0559	 0.4175	 0.2430	 0.1366	 0.3797	 0.2343	 0.2274	 0.4617	63.8541	99.9172	
    34	-0.1333	-0.3396	-0.4729	-0.3044	-0.5669	-0.8712	-0.3901	-0.6348	-1.0249	65.3795	99.9104	
    35	-0.5722	-0.8521	-1.4243	-0.5644	-0.9756	-1.5399	-0.3636	-0.9848	-1.3484	66.0993	99.9030	
    36	-0.0095	-0.8844	-0.8939	-0.1330	-1.0237	-1.1566	-0.0799	-1.0242	-1.1041	65.8319	99.9034	
    37	-0.1485	-0.6974	-0.8459	-0.3142	-0.6121	-0.9261	-0.2094	-0.4066	-0.6160	63.9336	99.8957	
    38	 0.3738	 0.2453	 0.6191	 0.6586	 0.4973	 1.1559	 1.1380	 0.6807	 1.8187	64.8670	99.9117	
    39	 1.3415	 0.3260	 1.6674	 1.4743	 0.5289	 2.0032	 1.9578	 0.6344	 2.5922	65.4991	99.9055	
    40	 2.4891	 0.7295	 3.2187	 2.7645	 0.7613	 3.5259	 3.1168	 0.6751	 3.7919	67.1778	99.9260	
    41	 3.6295	 1.1438	 4.7733	 3.7423	 0.9581	 4.7005	 3.7870	 0.7181	 4.5051	67.7922	99.9342	
    42	 3.7613	 0.9674	 4.7287	 3.7493	 0.7401	 4.4895	 3.7445	 0.5081	 4.2525	67.7639	99.9275	
    43	 3.4320	 0.7949	 4.2269	 3.4300	 0.5957	 4.0258	 3.4423	 0.3411	 3.7834	67.7697	99.9305	
    44	 3.2839	 0.7189	 4.0028	 3.0836	 0.4608	 3.5446	 2.8651	 0.1618	 3.0269	67.1515	99.9342	
    45	 2.2689	 0.2758	 2.5447	 1.8566	 0.1366	 1.9933	 1.6023	 0.0787	 1.6810	64.9424	99.9135	
    46	 0.5480	 0.1101	 0.6581	 0.4138	 0.1110	 0.5249	 0.2493	 0.1796	 0.4289	63.8830	99.9228	
    47	-0.1635	-0.1916	-0.3551	-0.1415	-0.3880	-0.5295	-0.2199	-0.4820	-0.7019	65.6976	99.9255	
    48	-0.2645	-0.7688	-1.0333	-0.3076	-0.9481	-1.2556	-0.1740	-1.0031	-1.1771	66.3232	99.9046	
    49	 0.0588	-0.8121	-0.7533	 0.0205	-0.9945	-0.9739	 0.0938	-1.1099	-1.0161	66.6812	99.9142	
    50	 0.0049	-0.7847	-0.7798	-0.2847	-0.8032	-1.0879	-0.2500	-0.6843	-0.9343	64.3562	99.8926	
    51	 0.1139	 0.0398	 0.1538	 0.1768	 0.2921	 0.4690	 0.5123	 0.5855	 1.0978	63.6122	99.8988	
    52	 1.0772	 0.4208	 1.4979	 1.1964	 0.6062	 1.8027	 1.6927	 0.6855	 2.3782	65.4135	99.9049	
    53	 2.2084	 0.6930	 2.9014	 2.4322	 0.7397	 3.1720	 2.7317	 0.6165	 3.3482	66.8918	99.9304	
    54	 3.3447	 1.0442	 4.3888	 3.3787	 0.8780	 4.2568	 3.4074	 0.6515	 4.0589	67.3760	99.9315	
    55	 3.7777	 1.0987	 4.8764	 3.7570	 0.8625	 4.6196	 3.6814	 0.5486	 4.2300	67.8154	99.9371	
    56	 3.4692	 0.8784	 4.3476	 3.4030	 0.6052	 4.0083	 3.2469	 0.2641	 3.5110	67.7934	99.9393	
    57	 3.3387	 0.8284	 4.1671	 3.0276	 0.5571	 3.5848	 2.7210	 0.2431	 2.9641	66.7181	99.9343	
    58	 2.2625	 0.4234	 2.6859	 1.7563	 0.2971	 2.0535	 1.4220	 0.2519	 1.6739	64.2662	99.9135	
    59	 0.5996	 0.2934	 0.8930	 0.4130	 0.3198	 0.7330	 0.2182	 0.3548	 0.5730	63.5687	99.9266	
    60	-0.1099	 0.0232	-0.0866	-0.2093	-0.0373	-0.2465	-0.3234	-0.1230	-0.4464	64.5788	99.9300	
    61	-0.5921	-0.5463	-1.1385	-0.6849	-0.6966	-1.3814	-0.6963	-0.7699	-1.4663	65.3807	99.9160	
    62	-0.4148	-0.7552	-1.1700	-0.5547	-0.9303	-1.4849	-0.5747	-1.0258	-1.6005	65.7405	99.9138	
    63	-0.4675	-0.8332	-1.3007	-0.6931	-0.9371	-1.6300	-0.7010	-0.9447	-1.6456	64.9725	99.9051	
    64	-0.5891	-0.4990	-1.0881	-0.8628	-0.4530	-1.3157	-0.8462	-0.2911	-1.1373	63.2809	99.8967	
    65	-0.6280	 0.1284	-0.4997	-0.1631	 0.3704	 0.2075	 0.5244	 0.4899	 1.0143	65.5419	99.9128	
    66	 1.8376	 0.4951	 2.3327	 2.5448	 0.6651	 3.2100	 3.2309	 0.6895	 3.9204	67.7944	99.9280	
    67	 2.3618	 0.6057	 2.9675	 2.4402	 0.7577	 3.1980	 2.4668	 0.7709	 3.2377	65.1963	99.9358	
    68	 1.2169	 0.6128	 1.8297	 1.4014	 0.7979	 2.1995	 1.8855	 0.8181	 2.7036	65.6675	99.9146	
    69	 2.2936	 0.4122	 2.7059	 2.2460	 0.2979	 2.5440	 2.1143	 0.0681	 2.1824	66.5779	99.9404	
    70	-0.3001	-0.3363	-0.6364	-1.1002	-0.3900	-1.4901	-1.4159	-0.2480	-1.6639	61.5203	99.8809	
    71	 0.9224	 0.8556	 1.7780	 0.9176	 1.4416	 2.3594	 2.2453	 0.9526	 3.1979	67.1563	99.9097	
    72	-0.0405	 0.1114	 0.0708	-0.5719	 0.1186	-0.4532	-0.6887	 0.2433	-0.4454	62.3570	99.8910	
    73	-0.5928	 0.1803	-0.4125	-0.7519	 0.2170	-0.5349	-0.6263	 0.1908	-0.4355	63.9681	99.9129	
    74	-0.7100	 0.2143	-0.4957	-0.7924	 0.2313	-0.5610	-0.6668	 0.2112	-0.4556	64.1044	99.9155	
    75	-0.4323	 0.2034	-0.2288	-0.6001	 0.2189	-0.3811	-0.5848	 0.2857	-0.2991	63.4774	99.9104	
    76	-0.3456	 0.5598	 0.2142	-0.2978	 0.8630	 0.5653	 0.1922	 0.9115	 1.1037	63.9099	99.9126	
    77	 0.5028	 0.7640	 1.2668	 0.4458	 0.9548	 1.4007	 0.7282	 1.0993	 1.8274	63.5606	99.9046	
    78	 1.8286	 1.2166	 3.0453	 2.0483	 1.3272	 3.3756	 2.4573	 1.3035	 3.7608	65.8361	99.9202	
    79	 3.3761	 1.7754	 5.1515	 3.5858	 1.7643	 5.3502	 3.7667	 1.5648	 5.3315	66.7985	99.9389	
    80	 3.9305	 1.7380	 5.6685	 3.8088	 1.4700	 5.2788	 3.7196	 1.1799	 4.8995	67.0821	99.9294	
    81	 2.9953	 1.2986	 4.2939	 2.8634	 1.0184	 3.8818	 2.9664	 0.7525	 3.7190	67.3035	99.9135	
    82	 2.6700	 1.1893	 3.8593	 2.5339	 0.9331	 3.4672	 2.5201	 0.6669	 3.1870	66.8357	99.9228	
    83	 2.8088	 1.2444	 4.0532	 2.4268	 0.9849	 3.4118	 2.0763	 0.7203	 2.7966	65.4765	99.9308	
    84	 1.1846	 0.7293	 1.9139	 0.7388	 0.6775	 1.4164	 0.3525	 0.7028	 1.0552	62.7327	99.9204	
    85	-0.5134	 0.5473	 0.0339	-0.7838	 0.5897	-0.1939	-1.0383	 0.5737	-0.4647	62.3583	99.9316	
    86	-1.2910	-0.0374	-1.3284	-1.4000	-0.2215	-1.6214	-1.5846	-0.3770	-1.9616	64.4128	99.9317	
    87	-1.0564	-0.4686	-1.5250	-1.1649	-0.6522	-1.8169	-1.0869	-0.8205	-1.9074	65.6949	99.9150	
    88	-0.7963	-0.5054	-1.3017	-1.0127	-0.7546	-1.7672	-0.9993	-0.9488	-1.9481	65.8300	99.9104	
    89	-1.0355	-0.6375	-1.6730	-1.4403	-0.7565	-2.1967	-1.6048	-0.7105	-2.3153	63.3937	99.8995	
    90	-1.3337	 0.1635	-1.1701	-1.5282	 0.4843	-1.0438	-1.2598	 0.7553	-0.5045	61.5852	99.8955	
    91	-0.4102	 0.9138	 0.5037	-0.3626	 1.1500	 0.7876	-0.1559	 1.2656	 1.1097	62.8557	99.9218	
    92	 0.8224	 1.4000	 2.2223	 1.0716	 1.5888	 2.6606	 1.4244	 1.5711	 2.9955	64.6970	99.9303	
    93	 2.4403	 1.9416	 4.3818	 2.3004	 1.9403	 4.2408	 2.3294	 1.7502	 4.0796	64.8470	99.9310	
    94	 2.8878	 2.0958	 4.9836	 2.7200	 1.9241	 4.6443	 2.4972	 1.5692	 4.0665	65.5724	99.9459	
    95	 2.3265	 1.7806	 4.1071	 2.0674	 1.5221	 3.5895	 1.7908	 1.1253	 2.9161	65.6553	99.9428	
    96	 1.9899	 1.6188	 3.6087	 1.4633	 1.3462	 2.8096	 1.0098	 1.0241	 2.0339	64.2462	99.9339	
    97	 0.7760	 1.1745	 1.9504	 0.0330	 1.0798	 1.1129	-0.4975	 1.0396	 0.5421	61.2846	99.9163	
    98	-1.1385	 0.8441	-0.2944	-1.5727	 0.8754	-0.6972	-1.9228	 0.8314	-1.0914	61.1102	99.9309	
    99	-1.8798	 0.2060	-1.6737	-2.2340	 0.1149	-2.1190	-2.5411	-0.0269	-2.5680	62.3902	99.9320	
   100	-2.0991	-0.1108	-2.2099	-2.2806	-0.1885	-2.4689	-2.3039	-0.2445	-2.5484	63.3641	99.9164	
   101	-1.7272	-0.0182	-1.7454	-1.9844	-0.0845	-2.0689	-2.0484	-0.0611	-2.1094	62.8690	99.9085	
   102	-1.8922	 0.2589	-1.6333	-2.2756	 0.4424	-1.8331	-2.3206	 0.6617	-1.6589	60.5044	99.9011	
   103	-1.6178	 1.4276	-0.1901	-1.5840	 1.7971	 0.2132	-1.3294	 2.1669	 0.8375	60.2894	99.9066	
   104	-0.2898	 1.7908	 1.5010	-0.2596	 2.0244	 1.7649	-0.1650	 2.1996	 2.0346	61.6201	99.9237	
   105	 0.3815	 1.9616	 2.3431	 0.4478	 2.1986	 2.6465	 0.6799	 2.2721	 2.9521	62.6891	99.9249	
   106	 1.6812	 2.6254	 4.3066	 1.6480	 2.7548	 4.4029	 1.7248	 2.5965	 4.3213	63.5341	99.9395	
   107	 2.0209	 2.7134	 4.7344	 1.8056	 2.6296	 4.4353	 1.6554	 2.3351	 3.9904	63.9614	99.9411	
   108	 1.3715	 2.5105	 3.8820	 1.1560	 2.3864	 3.5425	 1.0348	 2.1285	 3.1633	63.8169	99.9345	
   109	 1.3673	 2.5685	 3.9358	 0.9995	 2.4208	 3.4204	 0.6315	 2.1615	 2.7930	62.8470	99.9404	
   110	 0.4860	 2.1017	 2.5877	-0.1790	 2.1002	 1.9213	-0.6525	 2.1224	 1.4699	59.9915	99.9191	
   111	-1.3250	 1.8957	 0.5707	-1.7361	 2.1220	 0.3860	-2.0351	 2.2276	 0.1926	58.9089	99.9307	
   112	-2.1080	 1.5954	-0.5126	-2.4605	 1.6758	-0.7846	-2.7246	 1.6683	-1.0564	59.8591	99.9310	
   113	-2.8888	 1.0845	-1.8043	-3.2482	 1.0989	-2.1492	-3.4416	 1.1490	-2.2926	59.9863	99.9165	
   114	-2.8526	 1.1522	-1.7004	-2.9647	 1.2213	-1.7434	-2.9092	 1.2773	-1.6320	61.0647	99.9172	
   115	-2.6421	 0.9637	-1.6784	-2.8776	 0.9610	-1.9165	-2.9094	 0.9792	-1.9302	61.2381	99.9139	
   116	-2.5291	 0.9878	-1.5414	-2.7232	 1.0038	-1.7193	-2.6509	 1.0156	-1.6352	61.6345	99.9110	
   117	-2.3012	 0.9463	-1.3548	-2.5385	 0.8690	-1.6694	-2.4122	 0.8218	-1.5904	62.4395	99.9025	
   118	-2.2160	 0.7867	-1.4294	-2.5019	 0.6823	-1.8195	-2.3599	 0.6026	-1.7573	62.7906	99.8989	
   119	-2.2181	 0.7551	-1.4629	-2.4767	 0.6456	-1.8310	-2.3340	 0.5387	-1.7953	63.0173	99.9027	
   120	-2.1891	 0.8335	-1.3556	-2.4644	 0.7316	-1.7327	-2.2925	 0.6335	-1.6590	62.9321	99.8993	
   121	-2.0349	 1.0042	-1.0307	-2.3285	 0.9200	-1.4084	-2.1380	 0.8223	-1.3157	62.8067	99.8982	
   122	-1.9833	 1.1875	-0.7958	-2.3326	 1.0744	-1.2581	-2.1589	 0.9696	-1.1893	62.6190	99.8944	
   123	-2.1325	 1.2168	-0.9157	-2.4971	 1.0908	-1.4062	-2.3354	 1.0076	-1.3278	62.3853	99.8913	
   124	-2.2870	 1.2883	-0.9987	-2.6329	 1.1249	-1.5079	-2.4886	 1.0374	-1.4512	62.3775	99.8913	
   125	-2.5957	 1.1892	-1.4065	-3.1212	 1.2557	-1.8654	-3.1662	 1.5627	-1.6035	58.8770	99.8740	
   126	-3.0874	 1.8256	-1.2618	-3.3776	 2.1180	-1.2595	-3.1975	 2.4254	-0.7720	58.3852	99.8924	
   127	-2.8278	 2.2732	-0.5545	-3.0556	 2.5256	-0.5299	-2.8571	 2.7310	-0.1261	58.9067	99.9017	
   128	-2.8546	 2.1053	-0.7493	-3.1966	 2.2556	-0.9408	-3.1500	 2.4208	-0.7292	58.8372	99.9013	
   129	-2.9448	 2.1861	-0.7587	-3.2332	 2.4424	-0.7907	-3.0813	 2.6703	-0.4110	58.5152	99.8995	
   130	-2.8827	 2.2849	-0.5978	-3.2441	 2.4879	-0.7561	-3.1397	 2.6909	-0.4488	58.4281	99.8966	
   131	-2.9821	 2.2237	-0.7585	-3.3724	 2.4220	-0.9502	-3.2855	 2.6451	-0.6404	58.2281	99.8938	
   132	-2.8610	 2.3739	-0.4871	-3.2445	 2.5924	-0.6520	-3.0672	 2.8052	-0.2620	58.4107	99.8901	
   133	-2.4695	 2.5241	 0.0546	-2.8214	 2.6306	-0.1907	-2.6569	 2.7880	 0.1311	59.2158	99.8894	
   134	-1.9930	 2.6357	 0.6427	-2.2951	 2.6671	 0.3721	-2.0708	 2.7209	 0.6500	60.3958	99.8918	
   135	-1.5783	 2.4062	 0.8279	-1.9097	 2.4336	 0.5240	-1.6290	 2.4370	 0.8080	61.1563	99.8897	
   136	-1.2842	 2.5267	 1.2425	-1.5689	 2.5913	 1.0225	-1.3399	 2.5843	 1.2444	61.1326	99.9005	
   137	-1.2760	 2.6529	 1.3769	-1.5620	 2.7001	 1.1382	-1.3589	 2.6640	 1.3051	61.1259	99.9037	
   138	-1.4263	 2.6665	 1.2402	-1.7561	 2.6852	 0.9293	-1.5598	 2.5951	 1.0352	61.1869	99.9042	
   139	-1.7899	 2.5789	 0.7891	-2.1429	 2.5647	 0.4219	-1.9547	 2.4730	 0.5183	61.0674	99.9010	
   140	-1.9961	 2.5883	 0.5923	-2.3630	 2.5729	 0.2100	-2.1279	 2.4673	 0.3394	61.0621	99.8978	
   141	-2.0272	 2.5995	 0.5723	-2.4115	 2.5692	 0.1578	-2.1877	 2.4641	 0.2764	61.0088	99.8964	
   142	-2.0811	 2.6269	 0.5458	-2.5068	 2.5890	 0.0822	-2.2935	 2.4893	 0.1958	60.8176	99.8934	
   143	-2.1816	 2.6710	 0.4894	-2.6418	 2.6367	-0.0050	-2.4219	 2.5346	 0.1128	60.6292	99.8912	
   144	-2.3040	 2.7472	 0.4432	-2.7560	 2.6840	-0.0720	-2.5503	 2.5800	 0.0297	60.5748	99.8908	
   145	-2.3972	 2.7806	 0.3834	-2.8577	 2.7129	-0.1446	-2.6560	 2.6052	-0.0508	60.4772	99.8906	
   146	-2.4895	 2.8299	 0.3404	-2.9521	 2.7463	-0.2057	-2.7432	 2.6421	-0.1011	60.4283	99.8883	
   147	-2.5155	 2.9199	 0.4044	-2.9605	 2.8327	-0.1277	-2.7251	 2.7452	 0.0201	60.3974	99.8856	
   148	-2.4658	 2.9505	 0.4847	-2.9255	 2.8412	-0.0842	-2.7127	 2.7530	 0.0403	60.3894	99.8847	
   149	-2.4710	 2.9927	 0.5217	-2.9571	 2.8871	-0.0699	-2.7620	 2.8251	 0.0632	60.1158	99.8820	
   150	-2.5063	 3.0619	 0.5556	-2.9853	 2.9875	 0.0022	-2.8124	 2.9768	 0.1644	59.6781	99.8820	
   151	-2.5054	 3.1988	 0.6934	-2.9848	 3.1055	 0.1207	-2.8223	 3.1080	 0.2857	59.5460	99.8800	
   152	-2.5490	 3.2628	 0.7138	-3.0805	 3.2297	 0.1493	-2.9125	 3.2920	 0.3794	58.8845	99.8752	
   153	-2.5491	 3.3839	 0.8348	-3.0522	 3.3517	 0.2997	-2.8682	 3.4345	 0.5663	58.8182	99.8740	
   154	-2.4622	 3.4980	 1.0359	-2.9665	 3.5092	 0.5428	-2.7439	 3.6157	 0.8717	58.6322	99.8723	
   155	-2.3981	 3.6284	 1.2303	-2.9014	 3.6670	 0.7656	-2.7069	 3.8338	 1.1268	58.1670	99.8711	
   156	-2.3527	 3.8381	 1.4854	-2.8477	 3.9747	 1.1271	-2.6379	 4.1865	 1.5486	57.5614	99.8747	
   157	-2.3808	 4.0177	 1.6369	-2.8565	 4.1655	 1.3092	-2.6971	 4.3899	 1.6928	57.2137	99.8801	
   158	-2.5487	 4.0052	 1.4566	-3.0964	 4.1878	 1.0914	-2.9575	 4.4211	 1.4636	56.6926	99.8788	
   159	-2.7477	 4.1251	 1.3773	-3.2384	 4.4534	 1.2151	-3.0114	 4.8112	 1.7998	55.8908	99.8760	
   160	-2.5223	 4.5365	 2.0143	-2.9012	 4.8835	 1.9824	-2.5876	 5.2151	 2.6275	56.2734	99.8813	
   161	-2.4747	 4.6567	 2.1820	-2.8649	 5.0236	 2.1589	-2.5961	 5.3702	 2.7741	55.9304	99.8844	
   162	-2.4407	 4.8140	 2.3733	-2.7973	 5.2222	 2.4251	-2.4952	 5.5596	 3.0644	55.8934	99.8883	
   163	-2.4842	 4.8780	 2.3938	-2.8711	 5.2553	 2.3843	-2.6258	 5.5692	 2.9435	55.7590	99.8904	
   164	-2.5444	 4.9319	 2.3875	-2.9271	 5.3515	 2.4245	-2.6317	 5.6687	 3.0370	55.6624	99.8900	
   165	-2.4306	 5.0928	 2.6623	-2.7908	 5.4355	 2.6447	-2.5175	 5.6831	 3.1655	56.1155	99.8936	
   166	-2.3331	 5.0014	 2.6683	-2.7660	 5.2807	 2.5148	-2.5160	 5.5122	 2.9962	56.2761	99.8871	
   167	-2.2812	 4.9424	 2.6612	-2.7560	 5.2215	 2.4657	-2.5305	 5.4687	 2.9382	56.1265	99.8846	
   168	-2.3652	 4.9968	 2.6315	-2.8373	 5.3546	 2.5174	-2.6007	 5.6881	 3.0874	55.4837	99.8822	
   169	-2.3748	 5.2181	 2.8433	-2.7987	 5.6399	 2.8412	-2.4893	 5.9529	 3.4636	55.4741	99.8871	
   170	-2.3241	 5.3856	 3.0614	-2.7265	 5.8021	 3.0757	-2.3946	 6.1385	 3.7439	55.4287	99.8844	
   171	-2.2818	 5.5480	 3.2661	-2.6661	 5.9963	 3.3302	-2.3185	 6.3123	 3.9938	55.3764	99.8889	
   172	-2.2870	 5.5902	 3.3031	-2.6906	 6.0466	 3.3562	-2.3390	 6.3682	 4.0293	55.2495	99.8875	
   173	-2.1805	 5.7618	 3.5813	-2.5564	 6.2078	 3.6515	-2.1819	 6.5013	 4.3194	55.4510	99.8895	
   174	-2.1898	 5.7409	 3.5511	-2.6353	 6.1592	 3.5240	-2.2996	 6.4273	 4.1277	55.3475	99.8880	
   175	-2.2178	 5.7994	 3.5816	-2.6517	 6.2275	 3.5760	-2.2939	 6.5226	 4.2288	55.2459	99.8855	
   176	-2.1972	 5.8727	 3.6755	-2.6474	 6.2956	 3.6483	-2.2643	 6.5183	 4.2539	55.4891	99.8887	
   177	-2.2552	 5.8370	 3.5819	-2.7208	 6.2242	 3.5034	-2.3985	 6.4683	 4.0698	55.3184	99.8876	
   178	-2.3194	 5.8278	 3.5084	-2.7630	 6.2113	 3.4484	-2.4211	 6.4885	 4.0674	55.2941	99.8842	
   179	-2.2511	 5.9001	 3.6490	-2.6816	 6.3007	 3.6192	-2.2994	 6.5306	 4.2313	55.5315	99.8877	
   180	-2.2448	 5.8737	 3.6288	-2.6938	 6.2146	 3.5209	-2.3587	 6.4360	 4.0773	55.6126	99.8862	
   181	-2.3629	 5.7707	 3.4079	-2.8381	 6.1127	 3.2746	-2.5377	 6.3350	 3.7973	55.4416	99.8870	
   182	-2.4768	 5.7309	 3.2541	-2.9234	 6.0733	 3.1500	-2.5990	 6.3080	 3.7091	55.4952	99.8860	
   183	-2.5586	 5.6957	 3.1370	-3.0166	 6.0158	 2.9993	-2.7057	 6.2180	 3.5122	55.5875	99.8875	
   184	-2.5027	 5.6998	 3.1971	-2.9403	 6.0236	 3.0835	-2.5766	 6.1845	 3.6079	55.9546	99.8888	
   185	-2.4715	 5.5675	 3.0961	-2.9691	 5.7835	 2.8145	-2.6676	 5.8638	 3.1963	56.4120	99.8884	
   186	-2.6661	 5.3871	 2.7211	-3.1695	 5.5554	 2.3860	-2.8738	 5.6082	 2.7344	56.6628	99.8871	
   187	-2.7893	 5.3264	 2.5371	-3.2868	 5.4439	 2.1571	-3.0020	 5.4588	 2.4568	56.9294	99.8878	
   188	-2.8576	 5.2541	 2.3964	-3.3754	 5.3500	 1.9747	-3.1358	 5.3175	 2.1817	57.0101	99.8925	
   189	-2.9663	 5.1720	 2.2056	-3.4927	 5.2385	 1.7459	-3.2400	 5.1718	 1.9319	57.2460	99.8917	
   190	-3.0025	 5.1043	 2.1017	-3.5185	 5.1573	 1.6388	-3.2705	 5.0610	 1.7904	57.4514	99.8943	
   191	-3.0440	 5.0788	 2.0348	-3.5704	 5.0991	 1.5288	-3.3346	 4.9863	 1.6516	57.5601	99.8935	
   192	-3.1506	 5.0282	 1.8776	-3.6906	 5.0512	 1.3607	-3.4564	 4.9441	 1.4877	57.4563	99.8924	
   193	-3.2356	 5.0668	 1.8312	-3.7573	 5.0887	 1.3315	-3.5017	 4.9845	 1.4828	57.4654	99.8917	
   194	-3.2802	 5.1151	 1.8348	-3.7969	 5.1166	 1.3198	-3.5607	 4.9932	 1.4324	57.4946	99.8937	
   195	-3.3279	 5.1160	 1.7881	-3.8787	 5.1316	 1.2530	-3.6081	 4.9977	 1.3896	57.4471	99.8909	
   196	-3.3382	 5.0794	 1.7412	-3.8813	 5.0908	 1.2096	-3.5986	 4.9579	 1.3593	57.5390	99.8900	
   197	-3.3040	 4.9944	 1.6905	-3.8729	 5.0044	 1.1316	-3.6901	 4.9233	 1.2332	57.1043	99.8910	
   198	-3.3733	 4.9063	 1.5330	-4.0057	 4.9748	 0.9692	-3.8309	 4.9609	 1.1299	56.4735	99.8857	
   199	-3.6219	 4.8744	 1.2525	-4.3026	 5.0797	 0.7772	-4.1341	 5.1714	 1.0373	55.2895	99.8840	
   200	-3.8511	 5.0212	 1.1701	-4.4606	 5.3094	 0.8488	-4.2536	 5.4630	 1.2094	54.7919	99.8868	
   201	-3.8834	 5.2588	 1.3754	-4.3960	 5.5716	 1.1757	-4.1017	 5.7075	 1.6057	55.0654	99.8904	
   202	-3.7623	 5.4090	 1.6467	-4.2770	 5.7103	 1.4334	-4.0168	 5.8296	 1.8127	55.0217	99.8936	
   203	-3.7396	 5.5139	 1.7743	-4.2891	 5.8467	 1.5576	-3.9965	 5.9684	 1.9719	54.8228	99.8911	
   204	-3.6787	 5.7180	 2.0393	-4.2072	 6.0541	 1.8470	-3.8832	 6.1656	 2.2824	54.8658	99.8914	
   205	-3.5815	 5.8688	 2.2873	-4.1283	 6.1027	 1.9745	-3.8358	 6.1610	 2.3252	55.2118	99.8897	
   206	-3.5058	 5.8094	 2.3036	-4.1090	 5.9707	 1.8619	-3.9443	 5.9439	 1.9995	55.3542	99.8978	
   207	-3.4798	 5.7193	 2.2396	-4.2140	 5.9453	 1.7314	-4.0563	 5.9652	 1.9089	54.6594	99.8904	
   208	-3.6871	 5.8340	 2.1469	-4.2856	 6.1235	 1.8380	-3.9675	 6.2501	 2.2826	54.6562	99.8824	
   209	-3.6458	 5.9806	 2.3348	-4.2265	 6.1861	 1.9596	-3.9085	 6.2414	 2.3330	55.1567	99.8837	
   210	-3.7638	 5.8777	 2.1139	-4.4021	 6.0256	 1.6237	-4.1297	 6.0337	 1.9040	55.2369	99.8830	
   211	-3.9430	 5.8128	 1.8698	-4.5805	 5.9288	 1.3483	-4.3272	 5.9210	 1.5937	55.2795	99.8835	
   212	-4.0798	 5.7892	 1.7095	-4.7134	 5.8992	 1.1859	-4.4428	 5.8827	 1.4399	55.3124	99.8827	
   213	-4.0674	 5.8574	 1.7900	-4.6973	 5.9353	 1.2380	-4.4064	 5.8942	 1.4878	55.5342	99.8811	
   214	-4.1803	 5.8334	 1.6531	-4.8310	 5.8921	 1.0612	-4.5489	 5.8046	 1.2557	55.6229	99.8832	
   215	-4.3409	 5.8102	 1.4694	-4.9719	 5.8446	 0.8727	-4.7002	 5.7668	 1.0666	55.6042	99.8825	
   216	-4.4497	 5.8493	 1.3996	-5.0664	 5.8779	 0.8117	-4.7874	 5.8037	 1.0163	55.5596	99.8822	
   217	-4.5129	 5.8558	 1.3429	-5.1562	 5.8749	 0.7188	-4.8796	 5.7572	 0.8776	55.6153	99.8839	
   218	-4.6238	 5.8633	 1.2395	-5.2587	 5.8903	 0.6317	-4.9606	 5.7980	 0.8374	55.4923	99.8810	
   219	-4.5638	 5.9305	 1.3668	-5.1224	 5.9742	 0.8519	-4.7692	 5.9068	 1.1376	55.7043	99.8809	
   220	-4.1027	 5.9266	 1.8239	-4.5986	 5.9699	 1.3714	-4.1900	 5.8238	 1.6338	56.6596	99.8881	
   221	-4.1137	 5.5108	 1.3972	-4.9214	 5.7711	 0.8498	-4.7885	 5.8832	 1.0947	53.6288	99.8814	
   222	-4.2906	 6.3411	 2.0504	-4.6268	 6.8420	 2.2152	-4.0716	 6.8952	 2.8236	54.7193	99.9040	
   223	-4.0005	 6.2773	 2.2769	-4.6452	 6.4383	 1.7932	-4.5358	 6.3171	 1.7813	54.6430	99.9077	
   224	-4.5264	 5.8929	 1.3665	-5.2080	 6.0392	 0.8313	-5.0475	 5.9382	 0.8907	54.6058	99.8987	
   225	-4.6206	 5.7895	 1.1689	-5.3359	 5.8689	 0.5331	-5.2756	 5.7146	 0.4390	54.6664	99.9036	
   226	-4.7790	 5.6768	 0.8978	-5.5743	 5.6959	 0.1217	-5.5511	 5.4957	-0.0555	54.6867	99.9008	
   227	-4.9315	 5.7799	 0.8485	-5.6501	 5.8061	 0.1561	-5.6183	 5.5680	-0.0503	54.8447	99.9088	
   228	-5.3108	 5.9402	 0.6294	-5.9760	 5.9977	 0.0218	-5.8190	 5.7971	-0.0219	54.6911	99.9023	
   229	-5.4807	 5.8962	 0.4155	-6.1183	 5.8186	-0.2996	-6.1058	 5.4909	-0.6149	55.2186	99.9155	
   230	-5.2536	 5.7179	 0.4643	-6.2570	 5.9162	-0.3407	-6.1160	 6.0116	-0.1045	52.2883	99.8632	
   231	-4.9083	 6.5061	 1.5978	-5.1590	 6.9327	 1.7737	-4.6231	 7.0414	 2.4183	54.3886	99.9012	
   232	-4.2757	 6.9410	 2.6653	-4.4934	 7.2120	 2.7187	-4.2968	 7.2121	 2.9152	54.5308	99.9245	
   233	-5.0309	 6.8245	 1.7936	-5.4643	 7.1239	 1.6598	-5.1455	 7.2746	 2.1292	53.1889	99.8931	
   234	-5.0361	 6.8667	 1.8306	-5.4942	 7.1971	 1.7030	-5.2809	 7.0062	 1.7252	53.8533	99.9280	
   235	-5.7463	 6.2174	 0.4711	-6.3601	 6.3628	 0.0029	-6.1534	 6.1829	 0.0296	54.0219	99.9067	
   236	-5.7542	 5.8490	 0.0948	-6.4792	 6.0017	-0.4774	-6.3844	 5.9117	-0.4727	53.3197	99.9005	
   237	-5.7803	 6.0602	 0.2798	-6.4618	 6.1694	-0.2924	-6.3290	 6.0382	-0.2909	53.6657	99.9011	
   238	-5.9877	 6.1749	 0.1872	-6.6651	 6.2273	-0.4377	-6.5613	 6.0412	-0.5202	53.7346	99.9042	
   239	-6.1110	 6.2353	 0.1242	-6.7983	 6.3021	-0.4961	-6.6931	 6.1303	-0.5628	53.4558	99.9034	
   240	-6.1206	 6.4566	 0.3360	-6.8100	 6.5566	-0.2533	-6.6732	 6.3605	-0.3127	53.3104	99.9055	
   241	-6.0730	 6.5767	 0.5037	-6.8255	 6.6385	-0.1869	-6.7013	 6.3887	-0.3126	53.3457	99.9044	
   242	-5.9836	 6.2380	 0.2544	-6.8722	 6.1127	-0.7594	-7.0598	 5.9800	-1.0798	52.5909	99.8944	
   243	-6.3722	 6.2563	-0.1159	-7.0204	 6.6100	-0.4103	-6.5257	 6.7282	 0.2024	52.4689	99.8714	
   244	-5.3315	 6.9726	 1.6411	-5.7813	 7.3472	 1.5660	-5.3808	 7.4247	 2.0439	53.0241	99.8981	
   245	-5.2518	 6.9763	 1.7245	-5.8236	 7.1119	 1.2883	-5.7517	 7.0083	 1.2565	53.2263	99.9124	
   246	-5.9843	 6.9646	 0.9803	-6.3885	 7.5617	 1.1733	-5.9600	 8.0004	 2.0404	50.7829	99.8839	
   247	-5.3065	 7.8515	 2.5450	-5.6801	 8.1944	 2.5144	-5.4043	 8.1204	 2.7161	52.7978	99.9217	
   248	-6.0995	 7.1512	 1.0517	-6.4864	 7.5407	 1.0544	-6.0910	 7.6087	 1.5177	52.4510	99.9045	
   249	-5.9327	 7.1479	 1.2152	-6.4421	 7.4764	 1.0343	-6.1616	 7.4268	 1.2652	52.4979	99.9105	
   250	-6.2630	 6.9597	 0.6966	-6.8783	 7.3385	 0.4603	-6.6801	 7.3302	 0.6501	51.5206	99.9100	
   251	-6.3976	 6.8465	 0.4489	-7.0868	 7.0924	 0.0057	-6.9792	 7.0161	 0.0369	51.7156	99.9084	
   252	-6.5424	 6.5756	 0.0332	-7.2843	 6.8006	-0.4836	-7.1931	 6.7328	-0.4603	51.6666	99.9039	
   253	-6.6189	 6.3770	-0.2418	-7.4156	 6.5759	-0.8396	-7.4274	 6.5053	-0.9221	51.3905	99.9063	
   254	-6.7029	 6.4314	-0.2715	-7.5349	 6.7640	-0.7708	-7.4389	 6.8075	-0.6315	50.6213	99.8959	
   255	-6.6150	 6.6824	 0.0673	-7.3539	 6.9017	-0.4521	-7.3103	 6.8654	-0.4448	51.2866	99.9047	
   256	-6.9715	 6.7053	-0.2662	-7.6671	 7.0749	-0.5921	-7.5253	 7.1543	-0.3710	50.4857	99.9012	
   257	-6.9552	 6.9577	 0.0025	-7.5493	 7.3044	-0.2448	-7.3846	 7.3114	-0.0732	51.0014	99.9104	
   258	-6.9791	 7.0793	 0.1002	-7.5526	 7.4725	-0.0801	-7.3614	 7.4979	 0.1365	50.7986	99.9116	
   259	-6.9730	 7.1739	 0.2009	-7.5610	 7.5588	-0.0021	-7.3928	 7.5698	 0.1770	50.6873	99.9130	
   260	-7.0559	 7.2440	 0.1881	-7.6457	 7.6375	-0.0082	-7.4826	 7.6624	 0.1798	50.4639	99.9128	
   261	-7.0446	 7.2965	 0.2519	-7.5858	 7.7136	 0.1279	-7.4123	 7.7410	 0.3287	50.5198	99.9163	
   262	-6.9856	 7.3479	 0.3624	-7.5402	 7.7809	 0.2408	-7.3503	 7.7799	 0.4296	50.5755	99.9176	
   263	-6.9971	 7.4166	 0.4196	-7.5638	 7.8449	 0.2812	-7.3872	 7.8598	 0.4726	50.3920	99.9164	
   264	-7.0323	 7.4858	 0.4534	-7.5937	 7.9180	 0.3244	-7.4117	 7.9476	 0.5359	50.2755	99.9155	
   265	-7.0418	 7.5860	 0.5442	-7.6130	 8.0500	 0.4370	-7.3990	 8.0587	 0.6597	50.2150	99.9164	
   266	-7.0625	 7.6338	 0.5713	-7.6581	 8.1007	 0.4426	-7.4614	 8.1111	 0.6497	50.0148	99.9163	
   267	-7.1144	 7.6928	 0.5784	-7.7104	 8.1470	 0.4366	-7.5472	 8.1719	 0.6247	49.8139	99.9167	
   268	-7.1352	 7.7406	 0.6054	-7.7483	 8.2021	 0.4538	-7.5567	 8.2117	 0.6550	49.8198	99.9154	
   269	-7.1196	 7.7350	 0.6154	-7.7285	 8.1881	 0.4597	-7.5636	 8.1959	 0.6323	49.8023	99.9171	
   270	-7.1269	 7.7457	 0.6188	-7.7644	 8.1660	 0.4017	-7.6475	 8.1890	 0.5416	49.6099	99.9155	
   271	-7.1921	 7.7206	 0.5285	-7.8749	 8.1634	 0.2886	-7.7259	 8.1742	 0.4483	49.5027	99.9130	
   272	-7.2150	 7.7369	 0.5219	-7.9099	 8.1549	 0.2451	-7.7904	 8.1909	 0.4005	49.3386	99.9107	
   273	-7.2978	 7.6859	 0.3881	-8.0255	 8.0706	 0.0452	-7.9213	 8.0972	 0.1759	49.3108	99.9083	
   274	-7.3443	 7.5815	 0.2372	-8.0593	 7.9713	-0.0879	-7.8563	 7.9891	 0.1328	49.7237	99.9029	
   275	-7.1651	 7.6464	 0.4813	-7.8771	 8.0181	 0.1412	-7.7793	 7.9801	 0.2008	49.7484	99.9139	
   276	-7.2334	 7.5740	 0.3406	-8.0429	 7.9029	-0.1399	-7.9900	 7.8477	-0.1423	49.5142	99.9097	
   277	-7.2790	 7.4854	 0.2065	-8.1450	 7.8138	-0.3311	-8.0899	 7.7735	-0.3163	49.3291	99.9047	
   278	-7.3401	 7.5235	 0.1834	-8.1677	 7.8914	-0.2762	-8.0593	 7.8844	-0.1749	49.2850	99.9033	
   279	-7.4231	 7.5936	 0.1705	-8.2145	 7.9149	-0.2995	-8.0943	 7.8968	-0.1976	49.5113	99.9024	
   280	-7.4790	 7.5895	 0.1105	-8.2432	 7.8972	-0.3459	-8.1487	 7.8856	-0.2631	49.4992	99.9045	
   281	-7.4976	 7.5477	 0.0501	-8.3213	 7.8622	-0.4590	-8.2004	 7.8187	-0.3817	49.5021	99.9019	
   282	-7.5017	 7.4846	-0.0171	-8.3255	 7.7942	-0.5312	-8.2328	 7.7754	-0.4575	49.3929	99.9015	
   283	-7.5753	 7.4545	-0.1208	-8.3757	 7.7633	-0.6124	-8.3050	 7.7644	-0.5407	49.2959	99.9029	
   284	-7.6478	 7.4402	-0.2076	-8.4521	 7.7555	-0.6965	-8.3484	 7.7371	-0.6113	49.3868	99.9023	
   285	-7.6726	 7.4249	-0.2478	-8.4808	 7.7378	-0.7429	-8.4137	 7.7419	-0.6718	49.1802	99.9027	
   286	-7.7027	 7.4518	-0.2509	-8.5124	 7.7837	-0.7285	-8.4356	 7.7740	-0.6616	49.1409	99.9044	
   287	-7.7400	 7.4894	-0.2507	-8.5511	 7.8253	-0.7258	-8.4677	 7.8340	-0.6337	49.0169	99.9026	
   288	-7.7836	 7.5534	-0.2302	-8.5928	 7.9304	-0.6624	-8.4963	 7.9536	-0.5427	48.7822	99.9035	
   289	-7.7340	 7.7051	-0.0289	-8.4937	 8.0830	-0.4105	-8.3509	 8.0908	-0.2600	49.0508	99.9047	
   290	-7.6108	 7.7659	 0.1551	-8.3949	 8.1177	-0.2772	-8.2903	 8.1059	-0.1844	49.0588	99.9058	
   291	-7.5963	 7.7445	 0.1483	-8.4270	 8.0456	-0.3813	-8.3537	 8.0432	-0.3106	48.9839	99.9008	
   292	-7.5589	 7.7069	 0.1480	-8.4043	 7.9680	-0.4362	-8.3230	 7.9593	-0.3637	49.1864	99.8968	
   293	-7.5289	 7.6800	 0.1511	-8.3583	 7.9309	-0.4273	-8.2599	 7.9188	-0.3411	49.3868	99.8960	
   294	-7.3941	 7.6720	 0.2779	-8.1985	 7.9509	-0.2475	-8.0524	 7.9002	-0.1522	49.7710	99.8994	
   295	-7.2253	 7.7002	 0.4750	-7.9783	 7.9427	-0.0356	-7.8401	 7.8617	 0.0216	50.2533	99.9032	
   296	-7.1310	 7.6826	 0.5516	-7.8965	 7.9277	 0.0312	-7.7661	 7.8051	 0.0391	50.4172	99.9066	
   297	-7.1496	 7.6408	 0.4912	-7.9160	 7.8372	-0.0787	-7.8433	 7.7107	-0.1326	50.4394	99.9077	
   298	-7.2821	 7.5592	 0.2771	-8.0927	 7.7676	-0.3251	-8.0387	 7.6338	-0.4049	50.1874	99.9077	
   299	-7.3805	 7.5138	 0.1333	-8.1969	 7.7557	-0.4411	-8.1150	 7.6546	-0.4603	49.9825	99.9049	
   300	-7.3692	 7.5662	 0.1970	-8.1476	 7.7730	-0.3744	-8.0825	 7.6979	-0.3846	50.0458	99.9039	
   301	-7.3587	 7.4818	 0.1230	-8.1986	 7.7285	-0.4700	-8.1485	 7.6908	-0.4577	49.6114	99.9007	
   302	-7.5090	 7.4953	-0.0137	-8.3221	 7.8486	-0.4734	-8.1837	 7.8979	-0.2858	49.1678	99.8961	
   303	-7.4956	 7.5793	 0.0837	-8.2929	 7.9843	-0.3085	-8.1309	 8.0800	-0.0509	48.8940	99.8952	
   304	-7.4761	 7.7579	 0.2818	-8.1844	 8.2866	 0.1023	-7.8646	 8.4422	 0.5776	48.9107	99.8931	
   305	-7.0681	 8.0394	 0.9712	-7.7634	 8.4021	 0.6387	-7.6009	 8.3673	 0.7663	49.7708	99.9098	
   306	-7.0418	 7.5860	 0.5442	-7.7000	 7.9834	 0.2835	-7.4242	 8.1345	 0.7103	49.8778	99.8902	
   307	-6.6079	 7.8985	 1.2906	-7.1696	 8.4147	 1.2452	-6.8279	 8.5322	 1.7042	50.1661	99.9031	
   308	-6.2330	 8.0385	 1.8055	-6.8034	 8.5357	 1.7323	-6.4958	 8.6034	 2.1076	50.4442	99.9077	
   309	-6.0953	 8.1990	 2.1036	-6.6557	 8.6920	 2.0364	-6.4139	 8.8725	 2.4586	49.8856	99.9038	
   310	-6.0024	 8.5288	 2.5264	-6.5108	 9.1345	 2.6237	-6.1823	 9.3504	 3.1681	49.6156	99.9059	
   311	-5.9301	 8.7854	 2.8553	-6.4175	 9.4143	 2.9969	-6.1348	 9.6438	 3.5091	49.2709	99.9109	
   312	-5.9188	 8.8378	 2.9190	-6.4689	 9.4742	 3.0054	-6.2836	 9.7451	 3.4615	48.5952	99.9113	
   313	-5.6911	 9.1597	 3.4686	-6.1157	 9.9404	 3.8248	-5.8033	10.1959	 4.3926	48.8562	99.9202	
   314	-5.2841	 9.3043	 4.0202	-5.6938	10.0694	 4.3757	-5.5080	10.3470	 4.8390	48.6996	99.9265	
   315	-5.0563	 9.5051	 4.4488	-5.4073	10.3506	 4.9433	-5.1038	10.6240	 5.5202	48.9926	99.9272	
   316	-4.6472	 9.6812	 5.0340	-5.0846	10.5494	 5.4649	-4.8016	10.7910	 5.9893	48.8795	99.9274	
   317	-4.5199	 9.8050	 5.2851	-4.9736	10.6701	 5.6966	-4.6886	10.8849	 6.1962	48.9325	99.9280	
   318	-4.4122	 9.8713	 5.4591	-4.8921	10.7595	 5.8674	-4.6293	10.9795	 6.3502	48.7308	99.9290	
   319	-4.1958	10.0197	 5.8239	-4.5909	10.9451	 6.3542	-4.2830	11.1856	 6.9027	48.9742	99.9312	
   320	-3.7690	10.1007	 6.3317	-4.1932	11.0200	 6.8270	-3.9592	11.2172	 7.2581	49.0862	99.9363	
   321	-3.8404	 9.9810	 6.1406	-4.3434	10.8228	 6.4795	-4.1949	10.9659	 6.7710	49.0643	99.9368	
   322	-4.5249	 9.6050	 5.0802	-4.9831	10.2980	 5.3150	-4.8330	10.3701	 5.5371	49.6877	99.9357	
   323	-5.1749	 8.9019	 3.7270	-5.6124	 9.3871	 3.7748	-5.5299	 9.3936	 3.8637	50.5208	99.9337	
   324	-5.6831	 8.3013	 2.6182	-6.1897	 8.7568	 2.5672	-6.0546	 8.8004	 2.7457	50.5477	99.9223	
   325	-5.9833	 8.0861	 2.1028	-6.4694	 8.5845	 2.1152	-6.2103	 8.6911	 2.4808	50.5694	99.9131	
   326	-5.7761	 8.0925	 2.3164	-6.2475	 8.6034	 2.3560	-5.9444	 8.6519	 2.7075	51.0503	99.9161	
   327	-5.6558	 7.9848	 2.3290	-6.2232	 8.3307	 2.1075	-6.1428	 8.2293	 2.0864	51.3537	99.9262	
   328	-6.5133	 7.5175	 1.0043	-7.4123	 7.9513	 0.5390	-7.3709	 8.0305	 0.6596	48.9963	99.9010	
   329	-6.3280	 7.6771	 1.3491	-6.8218	 8.1320	 1.3103	-6.4080	 8.2804	 1.8724	51.0846	99.8949	
   330	-4.9667	 7.9395	 2.9727	-5.2716	 8.5506	 3.2791	-4.8191	 8.7288	 3.9097	51.9285	99.9118	
   331	-4.2725	 7.9730	 3.7004	-4.7773	 8.5150	 3.7378	-4.4233	 8.6681	 4.2447	51.8696	99.9042	
   332	-4.6238	 7.9537	 3.3299	-5.1106	 8.4798	 3.3694	-4.8659	 8.4473	 3.5814	52.0371	99.9254	
   333	-5.0535	 7.7042	 2.6507	-5.7173	 8.0407	 2.3235	-5.6612	 7.9131	 2.2519	51.8146	99.9234	
   334	-5.3734	 7.4316	 2.0581	-6.0751	 7.6109	 1.5359	-6.0518	 7.3698	 1.3180	52.5382	99.9221	
   335	-5.3361	 7.3940	 2.0579	-6.0149	 7.5827	 1.5679	-5.9150	 7.3640	 1.4490	52.7857	99.9171	
   336	-4.8835	 7.6271	 2.7436	-5.5487	 7.8698	 2.3213	-5.4743	 7.6524	 2.1781	52.7026	99.9229	
   337	-4.3917	 7.9754	 3.5837	-5.0369	 8.2244	 3.1876	-4.9681	 8.0393	 3.0712	52.6886	99.9225	
   338	-4.0913	 8.0694	 3.9781	-4.8746	 8.0627	 3.1882	-5.0302	 7.7023	 2.6721	53.2812	99.9267	
   339	-5.3216	 7.3726	 2.0510	-6.5704	 7.4105	 0.8402	-6.6874	 7.4058	 0.7183	50.1556	99.8652	
   340	-5.6912	 7.0693	 1.3782	-6.4452	 7.3176	 0.8725	-6.1959	 7.4511	 1.2552	51.5673	99.8747	
   341	-4.7195	 7.3343	 2.6147	-5.3952	 7.6766	 2.2815	-5.3034	 7.8171	 2.5137	51.5066	99.8991	
   342	-4.6145	 7.9745	 3.3601	-5.0877	 8.6247	 3.5371	-4.5951	 8.6862	 4.0911	52.0498	99.9106	
   343	-3.9677	 7.7668	 3.7991	-4.8256	 8.1845	 3.3590	-4.6972	 8.0835	 3.3863	51.8576	99.9102	
   344	-4.5814	 7.0103	 2.4289	-5.6786	 7.0050	 1.3265	-5.8764	 6.9185	 1.0421	51.7420	99.8869	
   345	-5.2845	 6.5926	 1.3080	-6.0445	 6.5572	 0.5128	-6.1042	 6.3055	 0.2013	53.7260	99.9105	
   346	-5.2117	 6.2436	 1.0319	-6.0443	 6.2304	 0.1862	-6.0960	 6.0471	-0.0489	53.5652	99.9007	
   347	-5.2347	 6.5021	 1.2674	-5.9231	 6.5143	 0.5914	-5.8121	 6.3057	 0.4936	54.2415	99.9021	
   348	-5.3602	 6.6520	 1.2918	-5.9917	 6.6290	 0.6373	-5.8574	 6.3460	 0.4886	54.6498	99.9079	
   349	-5.5281	 6.6396	 1.1115	-6.1238	 6.6131	 0.4894	-5.9529	 6.3433	 0.3904	54.7118	99.9061	
   350	-5.6297	 6.6679	 1.0383	-6.1740	 6.5821	 0.4083	-5.9882	 6.2523	 0.2641	55.2401	99.9091	
   351	-5.8965	 6.2310	 0.3344	-6.8089	 6.2433	-0.5655	-6.9117	 6.3596	-0.5521	51.4499	99.8729	
   352	-5.9878	 6.2960	 0.3082	-6.5266	 6.4564	-0.0701	-6.3312	 6.4952	 0.1640	53.1229	99.8947	
   353	-5.1064	 6.6417	 1.5353	-5.4837	 7.0335	 1.5499	-5.1012	 7.1191	 2.0179	53.5369	99.9041	
   354	-4.5471	 6.9254	 2.3782	-5.1398	 7.3500	 2.2102	-4.9698	 7.4194	 2.4496	52.4176	99.9098	
   355	-4.6859	 6.8702	 2.1843	-4.8982	 7.3550	 2.4569	-4.3107	 7.6732	 3.3625	53.5931	99.8863	
   356	-2.0058	 7.2326	 5.2269	-2.3417	 7.7657	 5.4241	-2.1008	 7.7441	 5.6433	54.8796	99.9319	
   357	-4.1320	 6.2115	 2.0795	-4.9059	 6.2384	 1.3326	-4.9636	 5.9451	 0.9814	54.8401	99.9165	
   358	-4.7874	 5.7928	 1.0054	-5.4532	 5.7574	 0.3043	-5.4918	 5.5903	 0.0985	54.8570	99.9068	
   359	-4.7366	 5.7181	 0.9815	-5.3866	 5.7199	 0.3335	-5.3236	 5.5126	 0.1890	55.3192	99.9064	
   360	-4.3277	 6.1364	 1.8087	-4.7883	 6.2455	 1.4573	-4.5523	 6.0431	 1.4908	55.8928	99.9128	
   361	-3.6630	 6.5760	 2.9130	-4.2237	 6.6717	 2.4481	-4.0964	 6.3869	 2.2905	55.7451	99.9201	
   362	-4.0563	 6.1521	 2.0958	-5.2063	 6.0664	 0.8602	-5.3776	 6.0974	 0.7198	52.6983	99.8608	
   363	-5.0914	 6.1359	 1.0445	-5.7010	 6.2064	 0.5056	-5.4222	 6.1497	 0.7275	54.6386	99.8848	
   364	-4.6343	 5.9477	 1.3135	-5.2333	 6.0760	 0.8428	-5.0133	 6.1086	 1.0953	54.4773	99.8862	
   365	-3.8678	 6.2378	 2.3700	-4.2229	 6.6853	 2.4626	-3.7168	 6.9463	 3.2295	54.3910	99.8847	
   366	-2.5626	 6.6172	 4.0546	-3.0034	 7.1096	 4.1063	-2.6471	 7.2862	 4.6391	54.4885	99.9010	
   367	-2.1553	 6.5195	 4.3642	-2.8230	 6.9068	 4.0840	-2.6294	 6.9879	 4.3586	54.4614	99.8991	
   368	-2.7093	 6.1936	 3.4843	-3.5478	 6.3426	 2.7948	-3.5747	 6.1418	 2.5670	55.0490	99.9109	
   369	-3.7842	 5.5622	 1.7779	-4.4533	 5.5362	 1.0830	-4.3039	 5.4200	 1.1161	56.1317	99.8880	
   370	-3.6971	 5.4341	 1.7370	-4.4518	 5.3410	 0.8893	-4.3110	 5.1061	 0.7952	56.7219	99.8884	
   371	-3.8174	 5.5418	 1.7244	-4.4251	 5.4359	 1.0108	-4.1692	 5.1838	 1.0146	57.3934	99.8900	
   372	-3.4963	 5.7091	 2.2128	-3.9792	 5.6190	 1.6398	-3.6704	 5.3482	 1.6778	57.9806	99.8972	
   373	-3.1938	 5.7136	 2.5198	-3.7482	 5.5651	 1.8171	-3.4384	 5.2419	 1.8035	58.4038	99.8927	
   374	-3.6037	 5.2795	 1.6758	-4.5822	 5.1298	 0.5477	-4.5363	 5.1249	 0.5886	55.3634	99.8514	
   375	-3.8132	 5.4838	 1.6706	-4.0522	 5.6656	 1.6135	-3.4269	 5.9253	 2.4984	56.6220	99.8602	
   376	-1.1868	 5.7525	 4.5657	-1.5236	 6.0723	 4.5488	-1.1752	 6.1943	 5.0191	57.1999	99.8992	
   377	-1.6148	 5.7768	 4.1621	-2.1405	 6.2416	 4.1012	-1.7516	 6.5196	 4.7680	55.4546	99.8813	
   378	-0.9642	 5.8744	 4.9102	-1.1629	 6.2160	 5.0532	-0.8099	 6.3207	 5.5109	57.6081	99.9101	
   379	-1.5739	 5.3021	 3.7282	-2.1686	 5.7927	 3.6242	-1.4354	 6.0307	 4.5953	56.6632	99.8538	
   380	-2.0583	 4.8221	 2.7638	-3.1062	 4.9142	 1.8082	-3.0628	 4.8477	 1.7848	56.0580	99.8739	
   381	-2.7429	 4.4462	 1.7033	-3.5460	 4.2771	 0.7312	-3.6107	 4.0679	 0.4572	57.7817	99.8917	
   382	-3.2233	 4.1504	 0.9270	-3.9671	 3.9392	-0.0278	-3.9919	 3.6794	-0.3125	58.3355	99.8937	
   383	-3.1759	 4.3916	 1.2157	-3.7919	 4.2040	 0.4122	-3.6256	 3.9211	 0.2955	59.0432	99.8916	
   384	-2.5142	 4.7838	 2.2696	-3.0477	 4.6363	 1.5887	-2.8816	 4.2970	 1.4154	59.4423	99.9052	
   385	-2.2303	 4.7466	 2.5163	-3.0369	 4.3683	 1.3316	-3.3421	 4.2711	 0.9290	57.5518	99.8822	
   386	-3.6413	 4.5747	 0.9334	-4.1038	 4.5089	 0.4052	-3.9513	 4.4498	 0.4985	57.6453	99.8920	
   387	-3.8213	 4.2518	 0.4305	-4.4607	 4.3152	-0.1454	-4.3177	 4.4029	 0.0851	56.2629	99.8768	
   388	-4.0091	 4.5452	 0.5361	-4.4538	 4.6465	 0.1928	-4.0474	 4.7332	 0.6858	57.0255	99.8728	
   389	-2.8955	 4.7915	 1.8959	-3.1580	 5.0785	 1.9207	-2.5575	 5.4174	 2.8599	57.0703	99.8608	
   390	-0.8879	 5.2094	 4.3216	-1.1303	 5.6344	 4.5042	-0.7037	 5.7114	 5.0077	58.1023	99.9098	
   391	-0.6163	 5.1040	 4.4877	-1.0059	 5.5279	 4.5221	-0.6573	 5.5916	 4.9343	57.8355	99.9074	
   392	-0.7805	 4.5333	 3.7528	-1.5307	 4.5245	 2.9939	-1.6019	 4.2646	 2.6627	58.8372	99.9115	
   393	-2.0046	 3.9312	 1.9266	-2.5049	 3.8328	 1.3280	-2.3889	 3.7700	 1.3812	59.3132	99.8890	
   394	-2.0573	 3.7322	 1.6749	-2.7530	 3.6145	 0.8616	-2.6592	 3.4397	 0.7805	59.3521	99.8864	
   395	-2.2872	 3.6209	 1.3337	-2.8813	 3.5486	 0.6674	-2.6585	 3.4516	 0.7932	59.4611	99.8792	
   396	-2.0374	 3.5475	 1.5101	-2.6708	 3.4951	 0.8244	-2.5867	 3.5540	 0.9673	58.5636	99.8738	
   397	-2.3197	 3.9796	 1.6599	-2.5650	 4.3059	 1.7410	-2.2491	 4.6027	 2.3537	57.4496	99.8909	
   398	-1.6375	 4.6873	 3.0498	-1.4236	 5.2444	 3.8209	-0.5803	 5.5826	 5.0023	58.9204	99.8954	
   399	-0.1231	 5.1047	 4.9815	-0.1902	 5.5595	 5.3694	 0.3269	 5.7974	 6.1243	58.7188	99.9026	
   400	-0.4422	 5.0900	 4.6477	-0.4112	 5.5542	 5.1430	 0.1095	 5.7526	 5.8621	58.8829	99.9119	
   401	-0.0518	 5.3454	 5.2936	 0.1456	 5.8580	 6.0037	 0.8340	 6.0015	 6.8355	59.7702	99.9175	
   402	 0.8576	 5.6327	 6.4903	 1.0576	 6.1059	 7.1636	 1.6325	 6.1939	 7.8264	60.1539	99.9262	
   403	 1.1591	 5.6214	 6.7805	 1.2537	 6.0435	 7.2973	 1.7525	 6.1089	 7.8614	60.1607	99.9239	
   404	 0.8247	 5.3700	 6.1948	 0.7883	 5.7699	 6.5584	 1.1922	 5.8141	 7.0063	59.7510	99.9231	
   405	 0.1091	 5.0052	 5.1143	 0.0412	 5.4013	 5.4426	 0.4532	 5.5216	 5.9749	59.2884	99.9150	
   406	-0.2461	 4.8017	 4.5556	-0.2655	 5.2385	 4.9731	 0.2495	 5.4050	 5.6545	59.3104	99.9099	
   407	-0.3154	 4.7136	 4.3981	-0.3343	 5.1307	 4.7965	 0.1894	 5.2985	 5.4879	59.4254	99.9078	
   408	-0.2460	 4.6806	 4.4346	-0.1968	 5.1238	 4.9271	 0.3790	 5.2802	 5.6592	59.7470	99.9108	
   409	-0.1505	 4.5576	 4.4070	-0.1800	 4.9510	 4.7711	 0.3263	 5.0981	 5.4243	59.7453	99.9083	
   410	-0.3918	 4.3939	 4.0021	-0.4264	 4.7600	 4.3337	 0.0777	 4.9304	 5.0081	59.7226	99.9043	
   411	-0.5191	 4.2701	 3.7510	-0.5653	 4.6353	 4.0701	-0.0965	 4.8095	 4.7129	59.6165	99.9056	
   412	-0.6030	 4.2033	 3.6003	-0.6235	 4.5863	 3.9629	-0.1282	 4.7781	 4.6498	59.6271	99.9050	
   413	-0.5646	 4.1815	 3.6169	-0.5775	 4.5492	 3.9718	-0.0775	 4.7297	 4.6522	59.7934	99.9050	
   414	-0.5760	 4.1291	 3.5531	-0.5881	 4.4904	 3.9024	-0.1114	 4.6626	 4.5512	59.8248	99.9068	
   415	-0.5304	 4.0966	 3.5662	-0.4919	 4.4842	 3.9924	 0.0440	 4.6686	 4.7125	60.0230	99.9065	
   416	-0.3387	 4.1085	 3.7698	-0.2718	 4.4760	 4.2043	 0.2467	 4.6699	 4.9167	60.2001	99.9071	
   417	-0.2454	 4.0751	 3.8297	-0.2107	 4.4613	 4.2507	 0.3106	 4.6413	 4.9519	60.1982	99.9075	
   418	-0.2474	 4.0435	 3.7961	-0.1980	 4.4429	 4.2450	 0.3449	 4.6170	 4.9619	60.2885	99.9082	
   419	-0.2081	 4.0375	 3.8294	-0.1504	 4.4330	 4.2828	 0.3875	 4.6323	 5.0199	60.2528	99.9067	
   420	-0.1521	 4.0416	 3.8895	-0.0812	 4.4364	 4.3553	 0.4707	 4.6273	 5.0980	60.3839	99.9071	
   421	-0.0972	 4.0300	 3.9328	-0.0470	 4.4313	 4.3844	 0.4761	 4.6193	 5.0954	60.2941	99.9085	
   422	-0.1604	 4.0365	 3.8761	-0.0892	 4.4184	 4.3293	 0.4802	 4.5874	 5.0676	60.5471	99.9068	
   423	-0.1459	 4.0152	 3.8693	-0.0766	 4.4000	 4.3236	 0.4692	 4.6035	 5.0727	60.3821	99.9057	
   424	-0.0319	 4.0550	 4.0231	 0.1128	 4.4513	 4.5642	 0.7044	 4.6481	 5.3525	60.7019	99.9083	
   425	 0.1929	 4.0874	 4.2802	 0.3229	 4.5022	 4.8252	 0.9327	 4.6770	 5.6097	60.8365	99.9092	
   426	 0.2644	 4.0859	 4.3503	 0.3921	 4.5056	 4.8977	 1.0056	 4.6999	 5.7055	60.8023	99.9076	
   427	 0.3648	 4.1629	 4.5277	 0.5427	 4.5984	 5.1411	 1.1941	 4.7610	 5.9551	61.0681	99.9115	
   428	 0.4953	 4.2130	 4.7083	 0.6486	 4.6374	 5.2861	 1.2794	 4.7917	 6.0711	61.0649	99.9114	
   429	 0.5357	 4.2227	 4.7584	 0.6916	 4.6639	 5.3556	 1.3337	 4.8030	 6.1367	61.1103	99.9131	
   430	 0.5616	 4.2538	 4.8153	 0.7553	 4.6901	 5.4455	 1.3902	 4.8499	 6.2401	61.1197	99.9137	
   431	 0.6454	 4.3205	 4.9660	 0.8304	 4.7887	 5.6192	 1.4839	 4.9202	 6.4041	61.1275	99.9163	
   432	 0.7366	 4.3766	 5.1132	 0.9426	 4.8186	 5.7613	 1.5754	 4.9548	 6.5302	61.2116	99.9168	
   433	 0.8184	 4.4119	 5.2303	 1.0709	 4.8845	 5.9555	 1.7872	 5.0077	 6.7950	61.4818	99.9168	
   434	 1.1560	 4.5894	 5.7454	 1.4969	 5.0816	 6.5786	 2.2338	 5.1967	 7.4305	61.7580	99.9220	
   435	 1.5568	 4.7604	 6.3172	 1.8872	 5.2566	 7.1438	 2.5999	 5.3350	 7.9349	61.8880	99.9258	
   436	 1.6966	 4.8313	 6.5280	 2.0065	 5.2909	 7.2975	 2.6775	 5.3380	 8.0155	61.9989	99.9273	
   437	 1.6801	 4.8211	 6.5012	 1.9483	 5.2419	 7.1903	 2.5481	 5.2681	 7.8163	61.9363	99.9287	
   438	 1.4677	 4.7359	 6.2036	 1.7024	 5.1689	 6.8714	 2.3294	 5.1994	 7.5288	61.8066	99.9258	
   439	 1.3538	 4.6960	 6.0498	 1.5893	 5.1254	 6.7149	 2.2262	 5.1690	 7.3952	61.7637	99.9241	
   440	 1.3920	 4.7953	 6.1873	 1.7130	 5.2277	 6.9408	 2.3764	 5.2862	 7.6626	61.9063	99.9260	
   441	 1.6975	 4.9682	 6.6658	 2.0045	 5.3681	 7.3726	 2.6089	 5.3866	 7.9955	62.0240	99.9297	
   442	 1.9492	 5.0475	 6.9967	 2.2091	 5.4418	 7.6509	 2.8503	 5.4351	 8.2854	62.1903	99.9266	
   443	 2.1450	 5.1225	 7.2675	 2.4423	 5.5332	 7.9756	 3.1110	 5.5073	 8.6183	62.4060	99.9290	
   444	 2.3418	 5.2134	 7.5551	 2.5841	 5.5943	 8.1785	 3.1792	 5.5501	 8.7293	62.3138	99.9302	
   445	 2.3345	 5.2240	 7.5585	 2.5706	 5.5991	 8.1698	 3.1682	 5.5661	 8.7343	62.2738	99.9286	
   446	 2.3438	 5.2449	 7.5887	 2.5660	 5.6355	 8.2016	 3.1628	 5.5741	 8.7369	62.2715	99.9308	
   447	 2.2557	 5.2361	 7.4919	 2.4555	 5.6328	 8.0884	 3.0741	 5.5872	 8.6613	62.1503	99.9277	
   448	 2.2671	 5.2886	 7.5557	 2.5065	 5.6774	 8.1840	 3.0949	 5.6346	 8.7295	62.1526	99.9308	
   449	 2.2194	 5.2895	 7.5090	 2.4032	 5.6791	 8.0824	 2.9884	 5.6479	 8.6363	61.9439	99.9276	
   450	 2.1572	 5.3118	 7.4691	 2.3851	 5.7203	 8.1054	 2.9905	 5.6836	 8.6742	61.9927	99.9300	
   451	 2.2235	 5.3526	 7.5761	 2.4766	 5.7505	 8.2272	 3.0992	 5.7061	 8.8053	62.1598	99.9302	
   452	 2.3199	 5.3665	 7.6864	 2.5762	 5.7988	 8.3750	 3.2148	 5.7443	 8.9591	62.1681	99.9319	
   453	 2.3851	 5.3915	 7.7766	 2.6103	 5.7936	 8.4041	 3.2024	 5.7366	 8.9389	62.1175	99.9316	
   454	 2.3053	 5.3879	 7.6932	 2.5412	 5.7903	 8.3315	 3.1495	 5.7492	 8.8986	62.0800	99.9302	
   455	 2.3312	 5.4189	 7.7501	 2.5437	 5.8311	 8.3749	 3.1564	 5.7650	 8.9214	62.0775	99.9310	
   456	 2.2898	 5.3934	 7.6832	 2.4872	 5.8093	 8.2966	 3.0897	 5.7459	 8.8356	61.9927	99.9309	
   457	 2.1862	 5.3902	 7.5764	 2.3687	 5.7886	 8.1574	 2.9756	 5.7315	 8.7071	61.9464	99.9285	
   458	 2.0660	 5.3768	 7.4428	 2.2788	 5.7856	 8.0645	 2.8691	 5.7448	 8.6139	61.8262	99.9305	
   459	 1.9666	 5.3156	 7.2822	 2.1443	 5.7289	 7.8732	 2.6992	 5.6953	 8.3945	61.6109	99.9306	
   460	 1.7470	 5.2410	 6.9880	 2.0160	 5.6630	 7.6791	 2.6193	 5.6566	 8.2760	61.7461	99.9310	
   461	 1.7718	 5.2563	 7.0282	 2.0860	 5.6799	 7.7661	 2.6882	 5.7114	 8.3996	61.7181	99.9308	
   462	 1.8464	 5.3022	 7.1487	 2.1388	 5.7517	 7.8906	 2.8107	 5.7654	 8.5761	61.8097	99.9283	
   463	 2.2337	 5.5104	 7.7441	 2.5442	 5.9491	 8.4934	 3.2358	 5.8951	 9.1309	62.2230	99.9319	
   464	 2.3395	 5.4240	 7.7635	 2.4387	 5.8056	 8.2444	 2.9205	 5.7084	 8.6289	61.7154	99.9334	
   465	 1.4291	 4.9999	 6.4291	 1.4798	 5.3588	 6.8387	 1.9022	 5.3321	 7.2343	61.0852	99.9286	
   466	 0.5551	 4.5224	 5.0775	 0.4863	 4.7991	 5.2854	 0.8484	 4.7615	 5.6099	60.8198	99.9220	
   467	-0.4813	 3.7481	 3.2667	-0.6061	 3.9823	 3.3763	-0.3833	 4.0105	 3.6271	60.2389	99.9201	
   468	-0.8155	 3.2545	 2.4390	-0.9906	 3.4576	 2.4671	-0.8246	 3.5154	 2.6909	60.1778	99.9164	
   469	-0.8153	 3.0123	 2.1970	-1.0472	 3.2135	 2.1663	-0.9050	 3.2701	 2.3651	60.1930	99.9145	
   470	-0.7737	 2.9167	 2.1430	-1.1042	 3.0737	 1.9696	-1.0077	 3.1482	 2.1405	60.0240	99.9072	
   471	-1.0131	 2.9057	 1.8926	-1.4855	 3.1528	 1.6674	-1.3572	 3.2839	 1.9267	59.0460	99.8979	
   472	-1.0899	 3.0704	 1.9805	-1.4331	 3.3289	 1.8960	-1.2173	 3.4291	 2.2118	59.4936	99.9033	
   473	-1.0723	 3.0964	 2.0241	-1.4588	 3.2477	 1.7889	-1.2912	 3.2910	 1.9998	59.8368	99.9012	
   474	-0.7634	 2.9533	 2.1899	-1.1410	 3.0380	 1.8971	-1.0211	 3.0252	 2.0041	60.5206	99.9050	
   475	-0.6472	 2.7825	 2.1353	-1.1331	 2.8336	 1.7006	-1.0837	 2.7797	 1.6960	60.5589	99.9043	
   476	-0.7683	 2.6323	 1.8640	-1.3364	 2.6691	 1.3327	-1.3392	 2.5962	 1.2570	60.3787	99.9035	
   477	-0.9723	 2.5521	 1.5798	-1.5355	 2.5726	 1.0371	-1.5134	 2.4752	 0.9618	60.5436	99.9029	
   478	-1.0665	 2.4487	 1.3821	-1.6571	 2.3930	 0.7360	-1.6791	 2.1992	 0.5201	61.0345	99.9072	
   479	-1.2175	 2.2042	 0.9867	-1.8681	 2.1061	 0.2380	-1.9316	 1.8687	-0.0629	61.2139	99.9070	
   480	-1.3273	 2.1063	 0.7791	-1.9656	 1.9806	 0.0151	-1.9782	 1.6905	-0.2877	61.7097	99.9065	
   481	-1.2527	 2.1522	 0.8995	-1.9019	 2.0068	 0.1050	-1.9308	 1.6859	-0.2449	61.8408	99.9082	
   482	-1.1068	 2.3178	 1.2110	-1.7732	 2.1907	 0.4176	-1.7577	 1.8863	 0.1286	61.7237	99.9039	
   483	-0.6004	 2.6447	 2.0443	-1.2256	 2.5673	 1.3419	-1.1916	 2.2764	 1.0848	61.6826	99.9078	
   484	-0.0558	 3.0708	 3.0150	-0.9653	 2.6492	 1.6840	-1.4458	 2.3115	 0.8656	61.0136	99.9065	
   485	-1.7351	 2.6884	 0.9534	-3.0151	 2.5113	-0.5037	-3.2087	 2.3381	-0.8706	58.3115	99.8611	
   486	-2.4137	 2.6493	 0.2356	-2.9429	 2.6735	-0.2693	-2.7153	 2.8086	 0.0934	59.2193	99.8672	
   487	-1.1243	 3.2765	 2.1522	-1.4449	 3.3609	 1.9161	-1.2983	 3.4699	 2.1716	59.7646	99.8960	
   488	-1.5645	 3.1115	 1.5470	-2.2324	 3.2289	 0.9967	-2.1913	 3.3900	 1.1987	58.0752	99.8787	
   489	-1.0432	 4.0384	 2.9952	-0.5931	 4.6312	 4.0382	 0.4799	 4.9769	 5.4568	60.8065	99.8947	
   490	 0.4071	 4.3253	 4.7324	 0.1833	 4.5863	 4.7697	 0.6579	 4.4699	 5.1278	61.1215	99.9109	
   491	-0.2335	 3.5220	 3.2885	-0.7016	 3.5572	 2.8556	-0.5472	 3.1741	 2.6269	61.7732	99.9239	
   492	-1.3452	 2.4437	 1.0985	-1.9756	 2.2622	 0.2867	-2.0707	 2.0334	-0.0373	61.1577	99.9038	
   493	-1.6711	 1.9553	 0.2841	-2.2749	 1.7770	-0.4977	-2.2373	 1.4474	-0.7898	62.1989	99.9045	
   494	-1.7849	 1.7943	 0.0093	-2.3876	 1.6291	-0.7583	-2.3539	 1.2940	-1.0599	62.2365	99.9062	
   495	-2.0397	 1.6678	-0.3720	-2.6432	 1.5109	-1.1322	-2.6269	 1.2140	-1.4129	61.9487	99.9046	
   496	-1.9361	 1.6709	-0.2652	-2.8921	 1.5015	-1.3905	-3.2508	 1.5439	-1.7068	58.7161	99.8762	
   497	-3.0112	 2.2664	-0.7448	-3.6082	 2.2898	-1.3183	-3.4246	 2.3171	-1.1075	59.2446	99.8765	
   498	-2.6943	 2.4917	-0.2026	-3.0585	 2.5892	-0.4692	-2.7494	 2.6382	-0.1112	59.8783	99.8869	
   499	-2.2479	 2.6302	 0.3823	-2.6717	 2.7098	 0.0382	-2.5387	 2.7706	 0.2319	59.4515	99.8941	
   500	-2.4677	 2.7978	 0.3301	-2.7913	 3.0023	 0.2111	-2.4854	 3.1593	 0.6739	59.0728	99.8886	
   501	-1.7326	 3.3413	 1.6087	-1.9163	 3.5414	 1.6252	-1.5055	 3.5918	 2.0863	60.1387	99.8995	
   502	-1.4464	 3.0934	 1.6470	-1.8769	 3.0686	 1.1918	-1.8358	 2.9602	 1.1244	60.3401	99.9079	
   503	-1.9576	 2.4454	 0.4878	-2.4820	 2.4342	-0.0477	-2.3422	 2.2753	-0.0669	60.7316	99.8998	
   504	-1.9115	 1.9285	 0.0170	-2.4414	 1.8706	-0.5707	-2.3126	 1.7782	-0.5344	61.1214	99.8900	
   505	-1.6440	 1.7599	 0.1159	-2.1944	 1.6304	-0.5639	-2.0724	 1.4135	-0.6589	62.1423	99.8949	
   506	-1.7652	 1.7307	-0.0345	-2.2859	 1.6002	-0.6857	-2.1165	 1.3743	-0.7422	62.3295	99.8939	
   507	-1.6110	 1.9014	 0.2904	-2.0809	 1.7919	-0.2889	-1.8920	 1.5383	-0.3536	62.4847	99.9001	
   508	-1.2029	 2.0617	 0.8588	-1.7139	 1.9264	 0.2127	-1.5762	 1.6336	 0.0574	62.6190	99.9029	
   509	-1.1333	 1.9077	 0.7743	-1.7756	 1.6006	-0.1749	-1.8266	 1.3388	-0.4877	62.5139	99.8922	
   510	-2.3861	 1.9695	-0.4165	-3.2541	 1.9979	-1.2561	-3.2035	 2.2268	-0.9767	58.0606	99.8457	
   511	-2.2573	 2.7305	 0.4731	-2.5948	 2.8356	 0.2408	-2.1648	 3.0400	 0.8752	59.7581	99.8643	
   512	-0.9150	 3.3144	 2.3994	-1.0881	 3.3322	 2.2442	-0.9269	 3.3022	 2.3753	61.0442	99.9112	
   513	-1.4581	 3.4043	 1.9462	-1.5442	 3.7575	 2.2134	-0.9580	 3.9702	 3.0122	59.8430	99.8899	
   514	-0.2338	 3.8853	 3.6515	-0.4493	 3.8434	 3.3943	-0.2736	 3.6554	 3.3817	61.7112	99.9170	
   515	-1.1268	 2.6236	 1.4968	-2.0092	 2.6078	 0.5987	-1.7724	 2.5302	 0.7579	60.1524	99.8584	
   516	-1.9096	 2.0811	 0.1716	-2.4583	 1.8210	-0.6372	-2.4569	 1.5615	-0.8954	62.0109	99.8982	
   517	-1.8595	 1.7484	-0.1111	-2.3889	 1.4975	-0.8913	-2.2145	 1.2326	-0.9820	62.8576	99.8869	
   518	-1.7786	 1.6467	-0.1318	-2.1877	 1.5168	-0.6708	-1.8623	 1.3393	-0.5230	62.9100	99.8845	
   519	-1.2183	 1.9462	 0.7279	-1.5490	 1.8056	 0.2567	-1.2589	 1.5580	 0.2991	63.4223	99.8984	
   520	-1.2150	 1.7513	 0.5363	-2.2741	 1.5682	-0.7058	-2.5423	 1.7255	-0.8168	58.7457	99.8460	
   521	-2.8310	 2.3470	-0.4839	-3.3619	 2.2584	-1.1034	-3.0803	 2.2928	-0.7875	60.1419	99.8623	
   522	-1.7457	 3.0151	 1.2694	-1.7702	 3.1213	 1.3512	-1.2357	 3.2227	 1.9870	61.2941	99.8882	
   523	-1.1812	 3.1355	 1.9543	-1.8313	 3.1359	 1.3047	-1.8683	 3.6044	 1.7360	57.4665	99.8424	
   524	-0.1697	 4.0156	 3.8459	-0.0939	 4.2324	 4.1385	 0.6008	 3.7236	 4.3244	63.8580	99.9372	
   525	-1.2954	 2.3532	 1.0578	-2.0019	 2.0629	 0.0612	-2.0630	 2.0611	-0.0019	60.7082	99.8635	
   526	-1.9622	 1.8821	-0.0801	-2.5563	 1.5775	-0.9787	-2.5325	 1.2963	-1.2363	62.3612	99.8918	
   527	-1.9806	 1.5981	-0.3825	-2.5096	 1.3316	-1.1779	-2.3311	 1.0791	-1.2520	62.9424	99.8839	
   528	-1.9225	 1.5127	-0.4098	-2.2861	 1.3777	-0.9082	-1.9191	 1.1890	-0.7301	63.2264	99.8849	
   529	-1.3663	 1.7491	 0.3828	-1.6651	 1.6033	-0.0617	-1.3372	 1.3484	 0.0112	63.7337	99.8977	
   530	-1.4127	 1.5236	 0.1109	-2.4362	 1.4030	-1.0331	-2.5346	 1.5585	-0.9760	59.1634	99.8395	
   531	-2.9054	 2.1800	-0.7254	-3.4000	 2.0911	-1.3087	-3.1111	 2.0786	-1.0325	60.5396	99.8692	
   532	-1.8989	 2.8602	 0.9613	-2.0031	 2.9255	 0.9225	-1.4481	 2.9632	 1.5150	61.5606	99.8839	
   533	-1.4608	 2.9936	 1.5328	-1.7517	 2.9757	 1.2241	-1.6247	 3.0012	 1.3766	60.4957	99.8988	
   534	-1.2238	 3.3364	 2.1126	-1.1673	 3.3880	 2.2207	-0.5976	 3.3258	 2.7281	62.4271	99.9015	
   535	-1.1842	 1.9824	 0.7982	-2.0161	 1.5048	-0.5111	-2.1814	 1.2878	-0.8936	62.0828	99.8684	
   536	-1.7859	 1.6574	-0.1284	-2.3966	 1.3751	-1.0214	-2.2946	 1.0905	-1.2041	62.7875	99.8863	
   537	-1.6718	 1.5762	-0.0956	-2.1591	 1.3120	-0.8470	-1.9230	 1.0261	-0.8968	63.5527	99.8856	
   538	-1.7619	 1.5358	-0.2261	-2.1279	 1.3705	-0.7573	-1.8279	 1.1203	-0.7076	63.4869	99.8934	
   539	-1.3673	 1.7333	 0.3660	-1.7314	 1.5363	-0.1949	-1.4447	 1.2465	-0.1982	63.8084	99.8958	
   540	-1.5639	 1.4002	-0.1636	-2.5152	 1.1319	-1.3832	-2.7725	 1.2715	-1.5010	59.5560	99.8464	
   541	-3.1270	 2.0739	-1.0532	-3.5885	 2.0534	-1.5350	-3.1476	 2.0671	-1.0805	60.6235	99.8620	
   542	-1.8171	 2.8954	 1.0783	-1.7356	 3.0117	 1.2762	-1.0449	 3.1249	 2.0800	61.9301	99.8828	
   543	-0.8299	 3.1548	 2.3248	-1.0865	 3.1370	 2.0506	-0.9207	 3.3061	 2.3854	60.4414	99.8845	
   544	-0.7101	 3.5315	 2.8214	-0.6564	 3.7289	 3.0726	 0.0553	 3.5756	 3.6310	62.7238	99.9092	
   545	-1.3256	 2.5012	 1.1756	-1.6287	 1.9658	 0.3373	-1.8607	 1.6611	-0.1996	63.2990	99.9136	
   546	-2.1111	 1.5481	-0.5630	-2.7825	 1.2681	-1.5143	-2.7274	 0.9332	-1.7942	62.5695	99.8909	
   547	-2.2155	 1.2869	-0.9286	-2.8362	 0.9603	-1.8758	-2.7185	 0.6867	-2.0318	62.9947	99.8789	
   548	-2.0466	 1.3151	-0.7315	-2.3849	 1.1207	-1.2641	-2.0243	 0.9281	-1.0962	63.6220	99.8823	
   549	-1.5464	 1.5473	 0.0009	-1.8331	 1.3429	-0.4902	-1.4945	 1.1120	-0.3825	63.9952	99.8907	
   550	-1.3485	 1.5328	 0.1844	-1.8180	 1.1429	-0.6751	-1.9149	 0.9624	-0.9525	63.0670	99.8920	
   551	-2.7888	 1.6459	-1.1430	-3.6085	 1.6225	-1.9859	-3.4249	 1.7210	-1.7038	59.2644	99.8466	
   552	-2.9675	 2.0812	-0.8863	-3.4004	 1.9731	-1.4272	-3.0461	 1.9705	-1.0757	60.9641	99.8652	
   553	-1.7144	 2.7617	 1.0473	-1.9386	 2.7428	 0.8042	-1.6150	 2.7666	 1.1516	61.2303	99.8882	
   554	-1.6714	 3.3032	 1.6318	-1.4405	 3.6514	 2.2110	-0.5084	 4.0121	 3.5037	60.9430	99.8699	
   555	 0.6128	 3.8157	 4.4285	 0.3912	 3.7203	 4.1116	 0.5335	 3.4979	 4.0314	62.5479	99.9177	
   556	-0.3000	 2.7387	 2.4387	-1.1972	 2.6894	 1.4923	-0.9583	 2.8814	 1.9231	59.7076	99.8235	
   557	-1.6208	 2.3650	 0.7442	-2.0562	 2.1864	 0.1303	-1.8937	 1.9040	 0.0102	62.4421	99.9020	
   558	-2.3588	 1.6531	-0.7058	-3.0064	 1.3264	-1.6800	-3.0276	 0.9967	-2.0309	62.3179	99.8944	
   559	-2.8235	 1.1095	-1.7140	-3.5310	 0.7678	-2.7631	-3.5892	 0.4833	-3.1058	62.1315	99.8870	
   560	-2.6879	 1.2384	-1.4495	-3.3238	 0.8823	-2.4414	-3.3194	 0.6070	-2.7124	62.4905	99.8848	
   561	-2.3906	 1.2851	-1.1055	-3.1467	 0.8475	-2.2991	-3.2584	 0.5307	-2.7277	62.5020	99.8830	
   562	-2.7169	 1.1600	-1.5569	-3.7081	 0.8026	-2.9054	-3.9098	 0.6027	-3.3071	60.6818	99.8680	
   563	-3.3088	 1.4772	-1.8316	-4.0431	 1.2894	-2.7536	-4.0732	 1.1532	-2.9200	60.2306	99.8816	
   564	-3.2252	 1.7862	-1.4390	-3.7490	 1.6930	-2.0559	-3.6210	 1.6321	-1.9888	60.3640	99.8845	
   565	-3.2055	 1.8437	-1.3618	-3.7114	 1.7423	-1.9690	-3.6148	 1.6360	-1.9788	60.4935	99.8920	
   566	-3.2865	 1.9454	-1.3411	-3.6518	 1.9229	-1.7289	-3.4293	 1.8443	-1.5851	60.6597	99.8955	
   567	-3.0545	 2.0882	-0.9663	-3.3882	 2.0591	-1.3289	-3.1534	 1.9718	-1.1815	60.8649	99.8970	
   568	-2.8939	 2.1113	-0.7826	-3.2220	 2.0699	-1.1519	-3.0330	 1.9902	-1.0429	60.8649	99.8992	
   569	-2.8328	 2.0732	-0.7595	-3.1689	 2.0373	-1.1315	-2.9623	 1.9773	-0.9849	60.8723	99.8958	
   570	-2.6836	 2.1650	-0.5186	-2.9887	 2.1613	-0.8273	-2.7323	 2.1333	-0.5990	60.8641	99.8937	
   571	-2.5034	 2.2457	-0.2578	-2.8263	 2.2221	-0.6041	-2.5981	 2.1832	-0.4149	60.9069	99.8942	
   572	-2.5127	 2.2248	-0.2879	-2.8676	 2.2228	-0.6447	-2.6029	 2.2032	-0.3997	60.7784	99.8891	
   573	-2.4144	 2.2702	-0.1441	-2.7752	 2.2667	-0.5085	-2.4880	 2.2295	-0.2585	60.9196	99.8885	
   574	-2.4309	 2.2600	-0.1709	-2.7752	 2.2667	-0.5085	-2.4694	 2.2412	-0.2282	60.9286	99.8879	
   575	-2.3004	 2.3101	 0.0097	-2.5922	 2.3271	-0.2649	-2.2809	 2.3023	 0.0214	61.0830	99.8918	
   576	-2.1709	 2.3444	 0.1734	-2.4538	 2.3339	-0.1199	-2.1909	 2.3131	 0.1222	61.1239	99.8935	
   577	-2.1647	 2.3179	 0.1532	-2.5023	 2.3301	-0.1721	-2.2280	 2.2897	 0.0617	61.0264	99.8927	
   578	-2.2051	 2.3082	 0.1031	-2.5310	 2.3125	-0.2184	-2.2404	 2.2820	 0.0415	61.0743	99.8906	
   579	-2.1792	 2.3393	 0.1600	-2.4880	 2.3390	-0.1489	-2.2025	 2.3172	 0.1147	61.0795	99.8910	
   580	-2.1378	 2.3648	 0.2270	-2.4450	 2.3655	-0.0794	-2.1475	 2.3404	 0.1929	61.1290	99.8906	
   581	-2.0901	 2.3638	 0.2737	-2.4243	 2.3651	-0.0590	-2.1413	 2.3443	 0.2030	61.0352	99.8896	
   582	-2.0259	 2.3730	 0.3471	-2.3264	 2.3862	 0.0599	-2.0217	 2.3507	 0.3290	61.2260	99.8924	
   583	-1.9389	 2.3660	 0.4272	-2.2509	 2.3804	 0.1295	-1.9743	 2.3461	 0.3718	61.1784	99.8938	
   584	-1.9471	 2.3609	 0.4138	-2.2725	 2.3671	 0.0948	-1.9929	 2.3344	 0.3415	61.1750	99.8919	
   585	-1.9875	 2.3512	 0.3637	-2.3353	 2.3546	 0.0194	-2.0658	 2.3115	 0.2457	61.1204	99.8919	
   586	-2.0279	 2.3415	 0.3136	-2.3783	 2.3281	-0.0502	-2.1208	 2.2884	 0.1675	61.1135	99.8910	
   587	-2.0766	 2.3267	 0.2500	-2.4332	 2.3335	-0.0995	-2.1496	 2.3046	 0.1550	61.0299	99.8892	
   588	-2.0663	 2.3633	 0.2970	-2.3893	 2.3736	-0.0155	-2.1056	 2.3438	 0.2382	61.0830	99.8918	
   589	-2.0186	 2.3624	 0.3437	-2.3471	 2.3865	 0.0395	-2.0396	 2.3509	 0.3113	61.1342	99.8913	
   590	-1.9140	 2.3813	 0.4673	-2.2151	 2.4025	 0.1875	-1.9302	 2.3852	 0.4551	61.1427	99.8928	
   591	-1.8322	 2.4166	 0.5844	-2.1235	 2.4327	 0.3093	-1.8394	 2.4079	 0.5685	61.2361	99.8938	
   592	-1.7928	 2.4105	 0.6177	-2.1235	 2.4327	 0.3093	-1.8573	 2.4082	 0.5509	61.0951	99.8931	
   593	-1.8570	 2.4013	 0.5442	-2.1792	 2.4246	 0.2454	-1.8992	 2.4047	 0.5055	61.0968	99.8922	
   594	-1.8653	 2.3962	 0.5308	-2.1999	 2.4249	 0.2251	-1.9233	 2.4011	 0.4778	61.0491	99.8925	
   595	-1.9130	 2.3971	 0.4841	-2.2214	 2.4117	 0.1904	-1.9480	 2.3855	 0.4374	61.1376	99.8935	
   596	-1.9130	 2.3971	 0.4841	-2.2277	 2.4208	 0.1932	-1.9652	 2.3976	 0.4324	61.0474	99.8944	
   597	-1.9130	 2.3971	 0.4841	-2.2205	 2.4253	 0.2048	-1.9411	 2.4013	 0.4602	61.0968	99.8940	
   598	-1.8332	 2.4008	 0.5676	-2.1307	 2.4283	 0.2977	-1.8580	 2.3962	 0.5383	61.1886	99.8959	
   599	-1.8094	 2.4003	 0.5909	-2.1307	 2.4283	 0.2977	-1.8642	 2.3923	 0.5282	61.1393	99.8952	
   600	-1.8249	 2.4059	 0.5810	-2.1514	 2.4286	 0.2773	-1.8992	 2.4047	 0.5055	61.0474	99.8944	
   601	-1.8405	 2.4115	 0.5710	-2.1586	 2.4242	 0.2658	-1.8992	 2.4047	 0.5055	61.0934	99.8932	
   602	-1.8488	 2.4064	 0.5576	-2.1855	 2.4337	 0.2483	-1.9233	 2.4011	 0.4778	61.0456	99.8942	
   603	-1.8881	 2.4124	 0.5243	-2.2205	 2.4253	 0.2048	-1.9597	 2.3896	 0.4299	61.0864	99.8937	
   604	-1.9202	 2.4078	 0.4875	-2.2547	 2.4304	 0.1758	-1.9776	 2.3898	 0.4122	61.0882	99.8935	
   605	-1.9285	 2.4027	 0.4742	-2.2682	 2.4351	 0.1670	-1.9831	 2.3979	 0.4148	61.0456	99.8931	
   606	-1.8788	 2.4333	 0.5545	-2.1505	 2.4422	 0.2918	-1.8930	 2.4086	 0.5156	61.2311	99.8974	
   607	-1.8156	 2.4268	 0.6111	-2.1092	 2.4415	 0.3324	-1.8627	 2.4162	 0.5534	61.1410	99.8965	
   608	-1.8229	 2.4374	 0.6146	-2.1362	 2.4511	 0.3150	-1.8861	 2.4244	 0.5383	61.0934	99.8950	
   609	-1.8550	 2.4328	 0.5778	-2.1712	 2.4426	 0.2715	-1.9342	 2.4171	 0.4829	61.0439	99.8954	
   610	-1.8788	 2.4333	 0.5545	-2.1982	 2.4521	 0.2540	-1.9521	 2.4173	 0.4652	61.0439	99.8961	
   611	-1.9027	 2.4338	 0.5311	-2.2125	 2.4433	 0.2309	-1.9761	 2.4137	 0.4375	61.0422	99.8962	
   612	-1.9348	 2.4291	 0.4944	-2.2674	 2.4487	 0.1815	-2.0009	 2.3981	 0.3972	61.0847	99.8952	
   613	-1.9669	 2.4245	 0.4576	-2.2880	 2.4491	 0.1612	-2.0243	 2.4063	 0.3821	61.0422	99.8958	
   614	-1.9576	 2.4454	 0.4878	-2.2657	 2.4760	 0.2104	-1.9809	 2.4336	 0.4527	61.0951	99.8955	
   615	-1.8695	 2.4542	 0.5846	-2.1623	 2.4742	 0.3120	-1.9204	 2.4487	 0.5283	61.0509	99.8973	
   616	-1.8540	 2.4486	 0.5946	-2.1695	 2.4698	 0.3004	-1.9328	 2.4409	 0.5081	61.0014	99.8967	
   617	-1.9016	 2.4495	 0.5479	-2.2108	 2.4705	 0.2598	-1.9685	 2.4414	 0.4729	61.0014	99.8967	
   618	-1.9172	 2.4551	 0.5379	-2.2315	 2.4708	 0.2394	-1.9926	 2.4377	 0.4451	60.9979	99.8966	
   619	-1.9483	 2.4663	 0.5180	-2.2657	 2.4760	 0.2104	-2.0104	 2.4379	 0.4275	61.0422	99.8951	
   620	-1.9648	 2.4561	 0.4912	-2.3070	 2.4767	 0.1698	-2.0579	 2.4425	 0.3847	60.9039	99.8945	
   621	-2.0042	 2.4621	 0.4579	-2.3276	 2.4770	 0.1495	-2.0764	 2.4308	 0.3544	60.9926	99.8962	
   622	-2.0363	 2.4575	 0.4212	-2.3618	 2.4821	 0.1204	-2.0998	 2.4391	 0.3393	60.9500	99.8957	
   623	-1.9949	 2.4830	 0.4881	-2.2648	 2.4896	 0.2249	-2.0152	 2.4579	 0.4427	61.0934	99.8978	
   624	-1.9473	 2.4820	 0.5348	-2.2370	 2.4936	 0.2568	-2.0090	 2.4618	 0.4528	60.9996	99.8986	
   625	-1.9555	 2.4769	 0.5214	-2.2783	 2.4943	 0.2161	-2.0393	 2.4542	 0.4149	60.9500	99.8968	
   626	-1.9949	 2.4830	 0.4881	-2.3196	 2.4950	 0.1755	-2.0688	 2.4586	 0.3898	60.9500	99.8951	
   627	-2.0188	 2.4835	 0.4647	-2.3466	 2.5046	 0.1580	-2.1100	 2.4670	 0.3570	60.8578	99.8967	
   628	-2.0426	 2.4840	 0.4414	-2.3673	 2.5049	 0.1377	-2.1162	 2.4631	 0.3469	60.9039	99.8962	
   629	-2.0509	 2.4789	 0.4280	-2.4014	 2.5100	 0.1087	-2.1520	 2.4636	 0.3117	60.8098	99.8959	
   630	-2.0903	 2.4849	 0.3947	-2.4356	 2.5151	 0.0796	-2.1877	 2.4641	 0.2764	60.8079	99.8967	
   631	-2.0892	 2.5007	 0.4115	-2.3799	 2.5233	 0.1435	-2.1148	 2.4870	 0.3722	60.9571	99.8970	
   632	-2.0094	 2.5044	 0.4949	-2.3108	 2.5266	 0.2160	-2.0728	 2.4904	 0.4176	60.9093	99.8983	
   633	-2.0167	 2.5150	 0.4983	-2.3242	 2.5314	 0.2073	-2.0907	 2.4906	 0.3999	60.9057	99.8982	
   634	-2.0561	 2.5211	 0.4650	-2.3719	 2.5413	 0.1695	-2.1203	 2.4950	 0.3747	60.9057	99.8972	
   635	-2.0561	 2.5211	 0.4650	-2.3917	 2.5553	 0.1636	-2.1374	 2.5071	 0.3697	60.8153	99.8969	
   636	-2.0727	 2.5109	 0.4382	-2.4196	 2.5512	 0.1317	-2.1731	 2.5076	 0.3345	60.7229	99.8969	
   637	-2.1193	 2.5276	 0.4083	-2.4537	 2.5563	 0.1027	-2.2082	 2.5200	 0.3118	60.7229	99.8962	
   638	-2.1266	 2.5383	 0.4117	-2.4600	 2.5655	 0.1056	-2.2136	 2.5280	 0.3143	60.7229	99.8962	
   639	-2.1577	 2.5494	 0.3918	-2.4457	 2.5743	 0.1287	-2.1943	 2.5516	 0.3573	60.7783	99.8972	
   640	-2.0686	 2.5740	 0.5054	-2.3407	 2.5998	 0.2592	-2.0802	 2.5660	 0.4858	60.9200	99.8987	
   641	-2.0282	 2.5837	 0.5555	-2.3128	 2.6039	 0.2911	-2.0849	 2.5859	 0.5010	60.7820	99.8984	
   642	-2.0520	 2.5842	 0.5322	-2.3470	 2.6090	 0.2621	-2.1028	 2.5862	 0.4833	60.7820	99.8973	
   643	-2.0593	 2.5949	 0.5356	-2.3731	 2.6321	 0.2591	-2.1083	 2.5942	 0.4859	60.7820	99.8969	
   644	-2.0748	 2.6004	 0.5256	-2.3731	 2.6321	 0.2591	-2.1192	 2.6102	 0.4910	60.7396	99.8969	
   645	-2.0821	 2.6111	 0.5290	-2.3929	 2.6461	 0.2532	-2.1316	 2.6024	 0.4708	60.7801	99.8978	
   646	-2.1059	 2.6116	 0.5057	-2.4208	 2.6420	 0.2213	-2.1667	 2.6148	 0.4481	60.6898	99.8962	
   647	-2.1132	 2.6223	 0.5091	-2.4127	 2.6600	 0.2474	-2.1473	 2.6384	 0.4910	60.6973	99.8964	
   648	-2.0562	 2.6422	 0.5860	-2.3292	 2.6722	 0.3431	-2.0806	 2.6574	 0.5768	60.7470	99.8981	
   649	-2.0241	 2.6468	 0.6227	-2.3086	 2.6719	 0.3634	-2.0806	 2.6574	 0.5768	60.6973	99.8985	
   650	-2.0552	 2.6580	 0.6028	-2.3356	 2.6814	 0.3460	-2.1040	 2.6656	 0.5617	60.6973	99.8985	
   651	-2.0707	 2.6635	 0.5928	-2.3689	 2.7001	 0.3314	-2.1156	 2.6698	 0.5541	60.6973	99.8981	
   652	-2.0863	 2.6691	 0.5828	-2.3760	 2.6957	 0.3198	-2.1390	 2.6780	 0.5390	60.6512	99.8980	
   653	-2.1174	 2.6803	 0.5629	-2.3967	 2.6961	 0.2995	-2.1514	 2.6702	 0.5189	60.7396	99.8979	
   654	-2.1412	 2.6807	 0.5395	-2.4372	 2.7104	 0.2733	-2.1864	 2.6826	 0.4962	60.6493	99.8977	
   655	-2.1319	 2.7016	 0.5697	-2.4005	 2.7461	 0.3457	-2.1423	 2.7218	 0.5795	60.6606	99.8997	
   656	-2.0531	 2.6895	 0.6364	-2.3393	 2.7314	 0.3922	-2.1190	 2.7135	 0.5946	60.5647	99.9006	
   657	-2.1101	 2.6696	 0.5595	-2.4047	 2.6780	 0.2734	-2.2133	 2.6313	 0.4180	60.6767	99.9023	
   658	-2.2075	 2.6399	 0.4325	-2.5439	 2.6577	 0.1139	-2.3406	 2.5972	 0.2566	60.5745	99.9007	
   659	-2.1350	 2.6543	 0.5193	-2.5043	 2.6298	 0.1256	-2.3544	 2.5656	 0.2111	60.5533	99.8997	
   660	-2.1338	 2.5490	 0.4151	-2.6224	 2.5047	-0.1177	-2.5144	 2.3848	-0.1296	60.5024	99.8986	
   661	-2.2840	 2.4414	 0.1574	-2.8081	 2.4034	-0.4046	-2.6988	 2.2918	-0.4070	60.3489	99.8959	
   662	-2.3648	 2.4219	 0.0572	-2.9291	 2.3419	-0.5871	-2.8392	 2.2380	-0.6012	60.2789	99.8906	
   663	-2.3741	 2.4011	 0.0270	-2.9363	 2.3375	-0.5987	-2.8027	 2.2495	-0.5533	60.2934	99.8871	
   664	-2.2902	 2.4678	 0.1776	-2.8127	 2.4398	-0.3728	-2.6380	 2.4103	-0.2278	60.1545	99.8839	
   665	-1.8035	 2.7372	 0.9337	-2.1883	 2.7198	 0.5315	-1.8859	 2.7224	 0.8365	60.7911	99.8811	
   666	-1.1879	 2.6617	 1.4738	-1.5712	 2.2236	 0.6526	-1.8080	 1.8432	 0.0353	62.9301	99.9231	
   667	-1.5220	 2.0471	 0.5250	-2.0728	 1.8099	-0.2628	-2.0550	 1.5047	-0.5503	62.4375	99.9027	
   668	-1.5343	 1.8577	 0.3235	-2.1843	 1.5712	-0.6130	-2.2345	 1.1970	-1.0375	62.6272	99.9038	
   669	-1.6254	 1.8016	 0.1763	-2.2649	 1.4954	-0.7694	-2.2925	 1.1263	-1.1662	62.7651	99.9007	
   670	-1.4587	 1.9194	 0.4607	-2.0211	 1.6456	-0.3753	-1.9622	 1.2651	-0.6971	63.1182	99.9028	
   671	-0.9999	 2.1261	 1.1263	-1.6291	 1.8478	 0.2188	-1.6366	 1.4238	-0.2128	63.0702	99.9071	
   672	-0.5494	 2.3277	 1.7784	-1.2934	 1.9239	 0.6306	-1.4736	 1.4575	-0.0162	63.0854	99.9070	
   673	-1.3250	 1.8957	 0.5707	-2.6993	 1.6072	-1.0920	-3.1304	 1.5622	-1.5682	58.3367	99.8486	
   674	-2.8195	 2.2783	-0.5412	-3.5113	 2.0748	-1.4364	-3.3692	 1.9508	-1.4185	60.4353	99.8685	
   675	-2.1101	 2.6696	 0.5595	-2.6363	 2.6139	-0.0223	-2.3165	 2.6008	 0.2843	60.5164	99.8678	
   676	-1.1863	 3.0566	 1.8703	-1.7546	 3.0393	 1.2848	-1.6809	 3.0576	 1.3767	59.7720	99.8855	
   677	-0.9640	 3.5418	 2.5779	-1.1693	 3.6876	 2.5184	-0.6106	 3.6041	 2.9935	61.4698	99.8949	
   678	-1.1319	 2.5447	 1.4129	-2.1594	 2.4106	 0.2513	-2.0800	 1.8785	-0.2015	61.6015	99.8950	
   679	-2.2769	 1.5672	-0.7097	-3.2583	 1.1581	-2.1001	-3.4472	 0.8590	-2.5882	61.2775	99.8741	
   680	-2.3720	 1.3269	-1.0451	-3.2395	 0.9081	-2.3312	-3.3182	 0.5275	-2.7907	62.4398	99.8805	
   681	-2.3824	 1.4113	-0.9711	-3.0137	 1.0995	-1.9141	-2.8549	 0.7957	-2.0592	62.9019	99.8793	
   682	-2.1983	 1.6762	-0.5221	-2.6914	 1.4028	-1.2885	-2.4176	 1.1279	-1.2897	63.1795	99.8804	
   683	-1.8451	 1.8482	 0.0031	-2.4615	 1.4397	-1.0217	-2.3523	 1.1231	-1.2292	63.1917	99.8778	
   684	-2.2333	 1.5031	-0.7302	-3.4131	 1.2197	-2.1932	-3.6229	 1.2070	-2.4159	59.0998	99.8399	
   685	-3.3746	 2.0577	-1.3169	-4.0002	 1.8652	-2.1349	-3.7772	 1.8090	-1.9682	60.3495	99.8599	
   686	-2.2707	 2.6465	 0.3758	-2.6102	 2.5907	-0.0193	-2.2246	 2.5440	 0.3194	61.2210	99.8792	
   687	-1.7280	 2.9200	 1.1919	-2.3670	 2.9498	 0.5828	-2.1605	 3.1114	 0.9510	58.9819	99.8588	
   688	-0.6571	 3.3672	 2.7101	-0.9907	 3.2352	 2.2446	-0.8187	 2.9233	 2.1046	62.3841	99.9140	
   689	-1.5199	 1.9575	 0.4376	-2.6445	 1.3793	-1.2652	-3.0293	 1.3623	-1.6670	60.0334	99.8306	
   690	-2.5006	 1.4295	-1.0711	-3.3179	 0.9775	-2.3402	-3.4714	 0.5573	-2.9141	62.4740	99.8915	
   691	-2.5635	 1.1938	-1.3697	-3.4222	 0.7433	-2.6788	-3.4651	 0.3665	-3.0986	62.6716	99.8746	
   692	-2.4228	 1.4016	-1.0212	-2.9985	 1.1220	-1.8765	-2.7572	 0.8342	-1.9230	63.0606	99.8776	
   693	-1.9775	 1.6454	-0.3321	-2.4953	 1.3404	-1.1547	-2.2749	 1.0227	-1.2522	63.4452	99.8845	
   694	-1.8665	 1.5169	-0.3497	-3.0870	 1.2506	-1.8364	-3.3862	 1.2755	-2.1108	58.7669	99.8423	
   695	-3.3735	 1.9524	-1.4211	-4.0050	 1.6792	-2.3257	-3.9524	 1.5728	-2.3796	60.4683	99.8720	
   696	-2.7253	 2.3818	-0.3435	-3.0683	 2.3216	-0.7467	-2.6988	 2.2918	-0.4070	61.0551	99.8779	
   697	-1.8098	 2.8847	 1.0749	-2.3827	 2.8093	 0.4267	-2.3779	 2.7685	 0.3906	59.7319	99.8914	
   698	-1.7200	 3.1673	 1.4473	-1.8898	 3.4138	 1.5241	-1.0864	 3.5228	 2.4364	60.9587	99.8681	
   699	-1.0536	 3.0171	 1.9635	-1.6147	 2.8508	 1.2362	-1.4337	 2.7087	 1.2750	61.3606	99.8806	
   700	-1.7137	 2.0351	 0.3214	-2.3659	 1.8648	-0.5010	-2.1540	 1.2477	-0.9063	63.5243	99.9134	
   701	-2.1630	 1.6070	-0.5559	-2.8539	 1.1195	-1.7343	-3.0065	 0.6546	-2.3519	63.2135	99.9015	
   702	-2.3989	 1.2800	-1.1189	-3.1539	 0.8431	-2.3107	-3.1563	 0.4460	-2.7103	63.1252	99.8822	
   703	-2.4880	 1.2555	-1.2325	-3.2015	 0.8530	-2.3484	-3.1184	 0.4812	-2.6371	63.1895	99.8785	
   704	-2.5802	 1.3047	-1.2755	-3.1382	 0.9836	-2.1545	-2.9467	 0.6578	-2.2889	63.2752	99.8832	
   705	-2.2644	 1.5143	-0.7501	-2.7437	 1.2266	-1.5170	-2.5468	 0.8633	-1.6835	63.5270	99.8947	
   706	-2.0033	 1.4933	-0.5100	-2.7447	 0.9906	-1.7541	-3.0522	 0.7864	-2.2658	61.8826	99.8828	
   707	-3.3204	 1.6670	-1.6534	-4.2581	 1.6017	-2.6562	-4.0987	 1.6184	-2.4803	58.9316	99.8444	
   708	-2.8589	 2.2844	-0.5745	-3.2219	 2.2924	-0.9294	-2.7929	 2.3129	-0.4800	60.7136	99.8724	
   709	-1.4296	 2.8613	 1.4318	-1.7206	 2.8117	 1.0913	-1.5257	 2.7655	 1.2398	61.1970	99.8978	
   710	-1.6587	 3.0081	 1.3494	-2.0072	 3.0799	 1.0728	-1.5917	 3.2511	 1.6595	60.0922	99.8655	
   711	-0.4502	 3.7369	 3.2867	-0.3982	 3.8880	 3.4898	 0.0523	 3.7227	 3.7750	62.2755	99.9243	
   712	-0.7364	 2.8791	 2.1427	-1.1665	 2.6299	 1.4635	-1.1053	 1.9296	 0.8243	64.1946	99.9371	
   713	-2.0006	 1.9039	-0.0967	-2.7435	 1.6715	-1.0719	-2.5637	 1.4715	-1.0922	61.7337	99.8662	
   714	-2.1350	 1.6697	-0.4654	-2.8373	 1.2736	-1.5637	-2.8058	 0.9183	-1.8875	62.8309	99.8829	
   715	-2.3387	 1.2262	-1.1126	-3.1265	 0.7292	-2.3973	-3.2042	 0.2439	-2.9603	63.5298	99.8898	
   716	-2.5063	 0.9715	-1.5348	-3.3629	 0.4790	-2.8838	-3.5046	 0.0094	-3.4952	63.2188	99.8887	
   717	-2.8171	 0.8408	-1.9762	-3.8972	 0.4244	-3.4727	-4.2407	 0.2573	-3.9834	60.3616	99.8639	
   718	-3.4697	 1.8174	-1.6523	-3.9681	 1.9373	-2.0308	-3.4447	 1.9835	-1.4612	60.0942	99.8611	
   719	-2.2270	 2.4613	 0.2343	-2.4964	 2.4254	-0.0709	-2.1289	 2.3520	 0.2231	61.5799	99.8894	
   720	-1.7266	 2.5724	 0.8458	-1.9430	 2.4523	 0.5094	-1.7999	 2.2723	 0.4724	62.0862	99.9124	
   721	-2.1006	 2.4483	 0.3477	-2.6364	 2.3914	-0.2449	-2.6362	 2.3427	-0.2935	59.9763	99.8961	
   722	-2.0493	 2.9948	 0.9455	-1.9501	 3.4421	 1.4921	-0.9615	 3.7159	 2.7544	60.7379	99.8727	
   723	 0.2061	 3.3078	 3.5139	-0.1932	 3.0855	 2.8924	-0.2222	 2.6335	 2.4113	63.1993	99.9284	
   724	-1.6320	 2.1914	 0.5594	-2.2557	 2.1943	-0.0612	-2.0871	 2.0574	-0.0297	60.8649	99.8899	
   725	-2.0235	 2.0413	 0.0178	-2.6945	 1.7932	-0.9012	-2.6990	 1.5011	-1.1979	61.7038	99.8946	
   726	-2.5835	 1.4996	-1.0839	-3.3714	 1.1146	-2.2566	-3.4840	 0.7442	-2.7397	62.0678	99.8911	
   727	-2.9715	 0.9124	-2.0592	-3.8049	 0.4683	-3.3365	-3.9305	 0.0625	-3.8680	62.5913	99.8868	
   728	-3.0967	 0.6990	-2.3977	-3.9391	 0.3071	-3.6318	-4.0187	-0.0158	-4.0345	62.2642	99.8781	
   729	-3.0359	 1.0242	-2.0116	-3.8856	 0.9417	-2.9437	-3.9363	 0.9527	-2.9836	59.4873	99.8683	
   730	-3.1589	 1.8270	-1.3319	-3.6060	 1.6633	-1.9426	-3.4207	 1.4945	-1.9262	61.4254	99.8899	
   731	-3.0450	 1.8669	-1.1781	-3.3630	 1.8000	-1.5629	-3.0977	 1.7089	-1.3889	61.3575	99.8928	
   732	-2.3407	 2.1792	-0.1614	-2.6408	 2.1010	-0.5397	-2.5320	 1.9956	-0.5363	61.2808	99.9062	
   733	-2.4468	 2.6289	 0.1821	-2.6881	 2.7782	 0.0902	-2.2113	 2.8617	 0.6504	60.3747	99.8831	
   734	-1.4024	 2.6660	 1.2636	-1.7181	 2.6301	 0.9121	-1.3513	 2.1990	 0.8477	63.1676	99.9172	
   735	-2.0615	 1.6998	-0.3617	-2.6184	 1.3561	-1.2622	-2.6519	 0.9004	-1.7515	63.2601	99.9113	
   736	-2.3234	 1.4628	-0.8606	-2.7982	 1.1276	-1.6705	-2.5883	 0.7685	-1.8199	63.7538	99.8897	
   737	-2.2665	 1.4827	-0.7837	-2.5894	 1.2694	-1.3199	-2.2544	 0.9668	-1.2876	63.7914	99.8947	
   738	-2.1204	 1.5272	-0.5932	-2.4734	 1.2493	-1.2240	-2.2387	 0.9309	-1.3079	63.8243	99.8968	
   739	-2.2551	 1.5352	-0.7199	-2.6379	 1.2657	-1.3721	-2.3376	 0.9719	-1.3657	63.6901	99.8880	
   740	-2.0852	 1.5792	-0.5061	-2.4700	 1.3037	-1.1662	-2.2194	 0.9545	-1.2650	63.8684	99.8966	
   741	-1.9824	 1.3244	-0.6580	-2.7911	 0.9096	-1.8814	-3.1466	 0.7041	-2.4425	61.3925	99.8898	
   742	-3.3702	 1.7575	-1.6127	-4.0690	 1.7574	-2.3115	-3.6977	 1.7444	-1.9533	59.9368	99.8541	
   743	-2.2953	 2.3890	 0.0936	-2.5896	 2.3679	-0.2216	-2.2328	 2.3097	 0.0769	61.3949	99.8883	
   744	-2.0230	 2.5415	 0.5185	-2.7047	 2.4017	-0.3030	-2.7951	 2.2772	-0.5179	59.8990	99.8940	
   745	-2.2451	 2.9198	 0.6747	-2.1842	 3.3371	 1.1530	-1.0880	 3.6937	 2.6057	60.6639	99.8502	
   746	-0.3816	 3.4459	 3.0644	-0.5996	 3.4238	 2.8243	-0.3365	 3.3065	 2.9700	61.8902	99.9060	
   747	-1.0563	 2.6064	 1.5501	-1.4218	 2.4072	 0.9856	-1.2065	 2.1296	 0.9231	62.9742	99.9006	
   748	-1.7819	 1.8416	 0.0597	-2.2716	 1.6090	-0.6625	-2.1077	 1.3226	-0.7851	62.9111	99.8941	
   749	-1.8046	 1.7368	-0.0678	-2.3375	 1.4376	-0.8998	-2.2067	 1.0656	-1.1412	63.3909	99.8964	
   750	-2.1588	 1.5490	-0.6097	-2.7471	 1.1722	-1.5749	-2.5752	 0.7882	-1.7870	63.6480	99.8839	
   751	-2.4600	 1.3181	-1.1419	-3.0526	 0.9186	-2.1339	-2.9065	 0.5341	-2.3724	63.6790	99.8836	
   752	-2.8174	 1.2041	-1.6133	-3.3175	 0.8731	-2.4443	-3.0914	 0.5325	-2.5589	63.5535	99.8850	
   753	-2.7719	 1.2927	-1.4792	-3.2065	 0.9938	-2.2126	-2.9715	 0.6423	-2.3292	63.6112	99.8926	
   754	-2.6828	 1.3173	-1.3655	-3.1775	 0.9071	-2.2703	-3.0330	 0.5119	-2.5211	63.8681	99.8908	
   755	-3.4278	 1.3585	-2.0693	-4.2190	 1.2334	-2.9856	-4.1481	 1.3926	-2.7556	58.9885	99.8415	
   756	-2.9830	 2.0868	-0.8962	-3.2929	 2.0394	-1.2534	-2.9127	 2.0085	-0.9042	61.2216	99.8803	
   757	-2.2206	 2.3138	 0.0931	-2.7436	 2.2207	-0.5228	-2.7173	 2.0854	-0.6319	60.5890	99.9000	
   758	-2.6455	 2.3854	-0.2601	-2.9903	 2.3566	-0.6336	-2.5468	 2.3415	-0.2053	61.1239	99.8729	
   759	-1.3293	 2.0748	 0.7455	-1.9515	 1.5446	-0.4068	-2.1400	 1.0846	-1.0554	63.5758	99.9051	
   760	-2.3586	 1.4109	-0.9477	-2.9698	 1.1396	-1.8301	-2.7138	 0.8615	-1.8524	62.9695	99.8735	
   761	-2.1754	 1.6599	-0.5155	-2.6597	 1.3568	-1.3028	-2.4124	 1.0165	-1.3958	63.5368	99.8871	
   762	-2.2209	 1.5713	-0.6496	-2.8129	 1.2232	-1.5896	-2.5118	 0.8509	-1.6609	63.7538	99.8742	
   763	-2.3265	 1.4155	-0.9110	-2.8733	 1.0290	-1.8442	-2.6846	 0.7538	-1.9308	63.4228	99.8733	
   764	-2.5430	 1.3882	-1.1548	-3.3144	 1.2544	-2.0599	-3.3705	 1.2395	-2.1310	60.0077	99.8731	
   765	-3.4304	 1.8114	-1.6190	-4.0273	 1.6523	-2.3749	-3.9713	 1.4578	-2.5135	60.5653	99.8928	
   766	-3.2271	 1.6336	-1.5935	-3.6854	 1.4967	-2.1886	-3.3495	 1.3902	-1.9593	61.5902	99.8726	
   767	-2.1694	 1.8757	-0.2937	-2.5751	 1.8275	-0.7475	-2.2207	 1.7214	-0.4993	61.9354	99.8826	
   768	-1.6888	 2.0504	 0.3615	-2.1111	 1.9695	-0.1416	-1.8452	 1.8199	-0.0253	62.1130	99.8901	
   769	-1.5853	 2.1747	 0.5893	-1.9744	 2.1714	 0.1971	-1.6127	 2.1149	 0.5022	61.7599	99.8824	
   770	-1.3132	 2.5694	 1.2562	-1.5393	 2.6226	 1.0834	-1.1714	 2.6099	 1.4385	61.6470	99.8936	
   771	-1.2645	 2.5842	 1.3197	-1.6997	 2.4845	 0.7850	-1.5676	 2.2693	 0.7017	61.8430	99.9044	
   772	-1.9281	 1.9183	-0.0098	-2.7334	 1.6123	-1.1210	-2.8666	 1.2926	-1.5740	61.5051	99.8934	
   773	-2.7173	 1.6444	-1.0729	-3.2876	 1.5717	-1.7158	-3.0192	 1.5290	-1.4902	60.9603	99.8692	
   774	-1.6538	 2.2234	 0.5697	-2.0275	 2.2041	 0.1767	-1.6470	 2.1392	 0.4922	61.8497	99.8815	
   775	-1.0932	 2.1596	 1.0664	-1.6983	 1.8445	 0.1463	-1.6567	 1.3883	-0.2684	63.4387	99.9051	
   776	-2.1836	 1.5337	-0.6499	-2.7682	 1.2769	-1.4911	-2.5932	 0.9831	-1.6101	62.8324	99.8851	
   777	-2.0810	 1.5211	-0.5599	-2.6906	 1.1939	-1.4966	-2.5351	 0.8592	-1.6760	63.2359	99.8830	
   778	-2.2624	 1.5458	-0.7165	-2.7062	 1.2759	-1.4302	-2.4029	 0.9767	-1.4262	63.5475	99.8840	
   779	-2.1050	 1.6427	-0.4622	-2.5421	 1.3639	-1.1781	-2.2501	 1.0383	-1.2118	63.6868	99.8873	
   780	-2.2355	 1.5927	-0.6428	-2.7180	 1.3079	-1.4100	-2.3919	 0.9606	-1.4313	63.7259	99.8830	
   781	-2.4209	 1.5543	-0.8666	-2.9289	 1.2433	-1.6854	-2.5968	 0.9235	-1.6733	63.5818	99.8756	
   782	-2.5318	 1.5617	-0.9700	-3.0204	 1.2131	-1.8072	-2.6938	 0.8970	-1.7968	63.6701	99.8738	
   783	-2.5805	 1.5469	-1.0335	-3.0769	 1.1914	-1.8855	-2.7419	 0.8897	-1.8523	63.6233	99.8704	
   784	-2.5649	 1.5413	-1.0236	-3.0706	 1.1822	-1.8883	-2.7365	 0.8816	-1.8548	63.6225	99.8693	
   785	-2.5887	 1.5418	-1.0469	-3.1200	 1.1649	-1.9550	-2.7860	 0.8505	-1.9356	63.6634	99.8672	
   786	-2.7130	 1.4653	-1.2477	-3.2706	 1.0721	-2.1984	-2.9471	 0.7492	-2.1979	63.6540	99.8654	
   787	-2.7119	 1.3600	-1.3519	-3.2260	 0.9034	-2.3225	-2.9820	 0.5669	-2.4151	63.9688	99.8711	
   788	-2.9707	 1.1703	-1.8004	-3.7872	 1.0808	-2.7063	-3.7949	 1.1218	-2.6732	59.5238	99.8634	
   789	-3.2886	 2.0350	-1.2537	-3.7285	 2.0195	-1.7089	-3.4436	 1.9041	-1.5395	60.6558	99.8898	
   790	-2.7675	 2.0983	-0.6692	-3.2216	 1.9655	-1.2560	-2.9698	 1.7549	-1.2149	61.6436	99.8909	
   791	-2.4842	 1.6819	-0.8023	-3.0874	 1.3550	-1.7323	-2.9780	 1.0278	-1.9502	62.6662	99.8868	
   792	-2.2562	 1.6405	-0.6158	-2.6458	 1.4701	-1.1756	-2.2164	 1.3001	-0.9162	63.0427	99.8732	
   793	-2.0530	 1.4627	-0.5903	-2.7784	 1.1137	-1.6646	-2.6562	 0.8289	-1.8273	62.8020	99.8702	
   794	-2.1608	 1.5175	-0.6433	-2.7121	 1.1807	-1.5314	-2.4910	 0.8983	-1.5927	63.3430	99.8756	
   795	-2.1763	 1.5231	-0.6533	-2.7463	 1.1858	-1.5604	-2.4815	 0.8585	-1.6231	63.5722	99.8752	
   796	-2.2313	 1.5347	-0.6966	-2.7948	 1.1821	-1.6126	-2.5187	 0.8351	-1.6836	63.7086	99.8754	
   797	-2.2624	 1.5458	-0.7165	-2.8003	 1.2049	-1.5953	-2.4939	 0.8507	-1.6432	63.8055	99.8764	
   798	-2.2292	 1.5662	-0.6630	-2.7581	 1.2178	-1.5402	-2.4629	 0.8702	-1.5928	63.8063	99.8767	
   799	-2.2292	 1.5662	-0.6630	-2.7707	 1.2361	-1.5345	-2.4677	 0.8901	-1.5776	63.7152	99.8766	
   800	-2.2676	 1.5881	-0.6795	-2.7905	 1.2501	-1.5404	-2.4787	 0.9061	-1.5725	63.7627	99.8764	
   801	-2.2676	 1.5881	-0.6795	-2.8040	 1.2549	-1.5491	-2.4903	 0.9103	-1.5801	63.7160	99.8757	
   802	-2.2997	 1.5834	-0.7163	-2.8382	 1.2600	-1.5781	-2.5144	 0.9066	-1.6078	63.7160	99.8764	
   803	-2.3235	 1.5839	-0.7396	-2.8597	 1.2467	-1.6129	-2.5385	 0.9029	-1.6355	63.7152	99.8746	
   804	-2.3080	 1.5783	-0.7297	-2.8462	 1.2419	-1.6042	-2.5151	 0.8947	-1.6204	63.7619	99.8741	
   805	-2.2935	 1.5570	-0.7365	-2.8416	 1.2056	-1.6359	-2.5421	 0.8434	-1.6987	63.8023	99.8762	
   806	-2.3141	 1.4837	-0.8304	-2.8438	 1.0603	-1.7834	-2.6043	 0.7011	-1.9032	64.0239	99.8758	
   807	-2.4227	 1.2805	-1.1422	-3.1744	 1.0659	-2.1084	-3.1476	 1.0816	-2.0660	60.6761	99.8562	
   808	-2.9736	 1.9865	-0.9870	-3.4034	 2.0367	-1.3666	-2.9430	 2.0009	-0.9420	60.8659	99.8739	
   809	-2.5790	 2.1840	-0.3950	-3.0423	 2.0760	-0.9662	-2.9166	 1.8456	-1.0710	61.3120	99.9037	
   810	-3.2419	 1.8971	-1.3447	-3.8666	 1.6859	-2.1806	-3.8189	 1.4161	-2.4027	61.0173	99.8946	
   811	-2.9794	 1.5286	-1.4508	-3.3919	 1.3374	-2.0544	-2.9015	 1.1103	-1.7912	63.0627	99.8704	
   812	-1.9453	 1.5290	-0.4163	-2.5109	 1.2000	-1.3109	-2.2985	 0.9277	-1.3709	63.3478	99.8749	
   813	-1.8117	 1.6263	-0.1854	-2.2941	 1.3597	-0.9343	-2.0364	 1.0236	-1.0128	63.6860	99.8889	
   814	-1.8905	 1.6384	-0.2520	-2.3544	 1.3880	-0.9663	-2.0893	 1.0362	-1.0531	63.6868	99.8924	
   815	-1.8781	 1.7066	-0.1715	-2.2999	 1.4869	-0.8129	-1.9996	 1.1384	-0.8613	63.6975	99.8947	
   816	-1.7052	 1.7980	 0.0928	-2.1151	 1.5746	-0.5404	-1.8297	 1.1879	-0.6419	63.8812	99.8998	
   817	-1.6906	 1.7766	 0.0860	-2.1464	 1.5161	-0.6302	-1.9723	 1.0983	-0.8740	63.7724	99.9052	
   818	-1.8905	 1.6384	-0.2520	-2.4063	 1.3298	-1.0763	-2.2711	 0.8876	-1.3836	63.7983	99.9027	
   819	-2.0778	 1.4474	-0.6305	-2.6363	 1.0704	-1.5657	-2.5145	 0.6086	-1.9060	64.0596	99.8973	
   820	-2.3511	 1.1580	-1.1931	-3.0632	 0.8598	-2.2033	-3.0930	 0.7034	-2.3895	61.8008	99.8749	
   821	-2.9680	 1.5810	-1.3870	-3.6149	 1.6317	-1.9831	-3.3672	 1.6885	-1.6787	59.7295	99.8660	
   822	-2.6257	 2.2007	-0.4249	-2.9790	 2.2066	-0.7723	-2.5729	 2.1074	-0.4655	61.3705	99.8863	
   823	-2.3833	 2.2591	-0.1242	-2.7993	 2.2126	-0.5866	-2.5743	 2.0836	-0.4907	61.1476	99.8949	
   824	-2.6111	 2.1794	-0.4317	-3.1540	 2.1641	-0.9898	-2.9284	 2.0444	-0.8840	60.5711	99.8879	
   825	-2.5138	 2.2090	-0.3047	-3.0013	 2.1797	-0.8215	-2.7450	 2.0222	-0.7227	61.0399	99.8917	
   826	-2.5374	 1.9673	-0.5701	-3.2546	 1.8798	-1.3746	-3.1404	 1.6935	-1.4469	60.5733	99.8850	
   827	-2.4346	 1.8336	-0.6010	-3.0075	 1.6396	-1.3678	-2.8670	 1.3840	-1.4830	61.9175	99.8906	
   828	-2.5100	 1.5297	-0.9803	-3.0920	 1.3914	-1.7006	-2.9154	 1.2734	-1.6421	61.4746	99.8778	
   829	-2.0210	 1.5884	-0.4326	-2.7137	 1.3759	-1.3377	-2.6141	 1.1304	-1.4837	62.0380	99.8827	
   830	-2.1233	 1.3588	-0.7646	-2.8142	 1.0916	-1.7225	-2.7153	 0.8377	-1.8776	62.4379	99.8787	
   831	-2.1813	 1.3231	-0.8583	-2.8172	 1.1552	-1.6619	-2.7464	 1.0129	-1.7335	61.6767	99.8823	
   832	-2.3277	 1.6419	-0.6858	-2.8566	 1.6280	-1.2285	-2.7316	 1.6525	-1.0791	60.4786	99.8823	
   833	-2.1646	 2.1968	 0.0322	-2.4986	 2.2802	-0.2183	-2.2054	 2.2696	 0.0642	60.8189	99.8942	
   834	-1.7329	 2.5989	 0.8660	-1.8973	 2.7421	 0.8449	-1.4775	 2.7728	 1.2953	61.1445	99.8968	
   835	-1.5569	 2.7375	 1.1806	-1.6775	 2.8383	 1.1608	-1.3474	 2.8546	 1.5072	61.2279	99.9042	
   836	-1.4306	 2.8456	 1.4150	-1.4822	 2.9848	 1.5027	-1.1050	 3.0184	 1.9134	61.3084	99.9064	
   837	-1.3229	 2.9119	 1.5890	-1.3674	 3.0554	 1.6881	-0.9935	 3.0885	 2.0950	61.3163	99.9075	
   838	-1.2132	 3.0097	 1.7966	-1.2088	 3.1663	 1.9576	-0.8138	 3.2014	 2.3876	61.4240	99.9097	
   839	-1.0733	 3.0806	 2.0073	-1.0708	 3.2774	 2.2067	-0.6636	 3.3187	 2.6551	61.3116	99.9111	
   840	-0.8818	 3.2137	 2.3319	-0.8261	 3.4412	 2.6152	-0.3855	 3.4820	 3.0965	61.4275	99.9140	
   841	-0.5266	 3.4172	 2.8907	-0.4388	 3.6798	 3.2411	 0.0082	 3.6835	 3.6918	61.5810	99.9206	
   842	-0.3474	 3.4821	 3.1347	-0.2908	 3.7318	 3.4411	 0.1300	 3.7257	 3.8557	61.5781	99.9206	
   843	-0.2076	 3.5530	 3.3454	-0.0853	 3.8191	 3.7339	 0.3323	 3.8184	 4.1508	61.6823	99.9249	
   844	-0.0781	 3.5873	 3.5092	 0.0214	 3.8718	 3.8933	 0.4424	 3.8647	 4.3071	61.6447	99.9251	
   845	-0.0698	 3.5924	 3.5226	-0.0127	 3.8769	 3.8643	 0.3888	 3.8654	 4.2542	61.5087	99.9244	
   846	-0.0926	 3.6087	 3.5160	-0.0254	 3.8953	 3.8700	 0.3833	 3.8734	 4.2568	61.5522	99.9254	
   847	-0.0668	 3.6397	 3.5730	 0.0265	 3.9534	 3.9800	 0.4172	 3.9405	 4.3577	61.4339	99.9288	
   848	 0.0472	 3.6796	 3.7268	 0.0965	 3.9704	 4.0670	 0.4482	 3.9600	 4.4082	61.3394	99.9274	
   849	-0.0720	 3.6820	 3.6100	 0.0076	 3.9810	 3.9886	 0.4132	 3.9724	 4.3855	61.4339	99.9260	
   850	-0.0699	 3.7135	 3.6436	 0.0110	 4.0354	 4.0464	 0.4270	 4.0040	 4.4310	61.4369	99.9285	
   851	-0.0130	 3.7334	 3.7205	 0.0468	 4.0575	 4.1044	 0.4518	 4.0196	 4.4714	61.3920	99.9286	
   852	-0.0358	 3.7497	 3.7139	 0.0818	 4.0660	 4.1479	 0.4973	 4.0826	 4.5799	61.3669	99.9266	
   853	 0.2345	 3.8707	 4.1052	 0.3750	 4.2335	 4.6087	 0.8488	 4.1774	 5.0262	61.7244	99.9321	
   854	 0.4697	 3.9397	 4.4093	 0.5509	 4.2895	 4.8406	 0.9596	 4.2355	 5.1952	61.5484	99.9321	
   855	 0.4489	 3.9875	 4.4364	 0.5678	 4.3392	 4.9071	 0.9990	 4.2946	 5.2936	61.6014	99.9321	
   856	 0.6374	 4.0732	 4.7106	 0.7311	 4.4136	 5.1448	 1.1277	 4.3526	 5.4803	61.5986	99.9334	
   857	 0.7037	 4.1140	 4.8177	 0.7902	 4.4762	 5.2664	 1.1856	 4.4234	 5.6090	61.4800	99.9337	
   858	 0.9180	 4.2308	 5.1489	 1.0378	 4.5764	 5.6143	 1.4160	 4.4880	 5.9040	61.7369	99.9377	
   859	 0.8818	 4.1631	 5.0450	 0.8585	 4.4659	 5.3245	 1.1367	 4.4041	 5.5409	61.2340	99.9325	
   860	 0.6756	 4.1725	 4.8481	 0.7864	 4.5262	 5.3127	 1.1870	 4.4472	 5.6342	61.6057	99.9359	
   861	 0.9055	 4.2838	 5.1893	 1.0429	 4.6580	 5.7010	 1.4816	 4.5865	 6.0680	61.7136	99.9356	
   862	 1.0309	 4.2549	 5.2859	 1.1006	 4.5889	 5.6897	 1.4484	 4.5313	 5.9797	61.5243	99.9344	
   863	 1.0298	 4.3603	 5.3901	 1.2825	 4.7402	 6.0228	 1.7492	 4.6744	 6.4236	62.0299	99.9394	
   864	 1.2298	 4.3773	 5.6071	 1.3230	 4.7259	 6.0490	 1.6949	 4.6632	 6.3581	61.6270	99.9353	
   865	 1.1862	 4.4414	 5.6276	 1.3669	 4.7660	 6.1330	 1.7408	 4.6348	 6.3756	62.0842	99.9424	
   866	 1.0868	 4.3802	 5.4670	 1.2007	 4.7552	 5.9560	 1.6255	 4.6998	 6.3254	61.5958	99.9342	
   867	 1.2070	 4.3936	 5.6005	 1.2559	 4.6453	 5.9013	 1.4744	 4.4673	 5.9417	61.8635	99.9441	
   868	 0.0594	 3.8689	 3.9283	 0.0815	 4.1704	 4.2519	 0.3978	 4.1117	 4.5094	61.1620	99.9323	
   869	-0.1519	 3.7994	 3.6475	-0.0565	 4.0592	 4.0028	 0.2268	 3.9470	 4.1738	61.5256	99.9391	
   870	-0.7255	 3.4160	 2.6904	-0.7071	 3.5799	 2.8729	-0.4143	 3.4982	 3.0839	61.5568	99.9270	
   871	-1.3591	 2.8441	 1.4851	-1.3667	 2.8466	 1.4800	-1.2477	 2.6308	 1.3831	62.2323	99.9362	
   872	-2.8979	 1.9271	-0.9708	-3.3220	 1.9037	-1.4183	-3.3410	 1.7279	-1.6131	60.5076	99.9178	
   873	-3.5176	 2.0606	-1.4570	-3.7803	 2.1838	-1.5964	-3.4861	 2.1867	-1.2994	60.0069	99.9007	
   874	-2.4290	 2.4127	-0.0163	-2.2980	 2.7307	 0.4328	-1.6052	 2.8301	 1.2249	61.4122	99.9022	
   875	-1.7731	 2.3469	 0.5739	-2.1485	 2.3650	 0.2167	-2.0832	 2.2203	 0.1371	60.9839	99.9151	
   876	-2.4780	 1.6554	-0.8225	-3.1647	 1.8829	-1.2818	-2.8595	 2.0992	-0.7603	58.7977	99.8574	
   877	-2.4063	 2.5175	 0.1112	-2.7191	 2.3928	-0.3262	-2.5794	 2.0002	-0.5792	62.2454	99.9242	
   878	-2.4637	 1.8763	-0.5874	-2.9898	 1.7029	-1.2868	-2.9221	 1.3609	-1.5612	62.0438	99.9087	
   879	-2.1558	 1.7175	-0.4384	-2.7141	 1.4803	-1.2337	-2.6801	 1.1233	-1.5568	62.5409	99.9055	
   880	-1.5872	 1.9009	 0.3138	-2.1362	 1.6794	-0.4567	-2.1175	 1.2591	-0.8584	62.9279	99.9138	
   881	-1.2712	 1.9894	 0.7182	-1.8194	 1.7830	-0.0363	-1.8149	 1.3347	-0.4802	63.0745	99.9182	
   882	-1.4048	 1.8920	 0.4872	-1.9422	 1.6942	-0.2478	-1.8900	 1.2761	-0.6139	63.0787	99.9136	
   883	-1.6337	 1.7965	 0.1629	-2.1151	 1.5746	-0.5404	-2.0256	 1.2023	-0.8233	63.1744	99.9087	
   884	-1.9216	 1.6496	-0.2720	-2.4210	 1.4254	-0.9955	-2.2760	 1.1022	-1.1738	63.0340	99.8988	
   885	-2.1733	 1.5704	-0.6029	-2.6606	 1.3432	-1.3173	-2.4343	 1.0486	-1.3857	63.0840	99.8903	
   886	-2.3193	 1.5259	-0.7934	-2.7969	 1.2593	-1.5375	-2.5494	 0.9190	-1.6304	63.4424	99.8904	
   887	-2.4342	 1.3492	-1.0850	-2.9282	 1.0345	-1.8935	-2.7549	 0.6752	-2.0797	63.5606	99.8929	
   888	-2.3006	 1.4466	-0.8541	-2.8074	 1.2004	-1.6069	-2.5494	 0.9190	-1.6304	63.1703	99.8834	
   889	-2.1173	 1.5745	-0.5428	-2.5897	 1.3738	-1.2158	-2.3070	 1.0827	-1.2243	63.1876	99.8887	
   890	-2.0687	 1.5893	-0.4793	-2.5547	 1.3823	-1.1723	-2.2713	 1.0823	-1.1890	63.2321	99.8880	
   891	-2.1153	 1.6061	-0.5092	-2.5602	 1.4051	-1.1550	-2.2217	 1.1134	-1.1083	63.3791	99.8862	
   892	-2.0832	 1.6107	-0.4725	-2.5467	 1.4003	-1.1463	-2.2272	 1.1214	-1.1057	63.2855	99.8844	
   893	-2.1080	 1.5954	-0.5126	-2.5682	 1.3871	-1.1811	-2.2465	 1.0979	-1.1486	63.3299	99.8856	
   894	-2.1805	 1.5811	-0.5995	-2.6319	 1.3609	-1.2709	-2.3015	 1.0747	-1.2268	63.3744	99.8842	
   895	-2.2458	 1.5560	-0.6898	-2.7234	 1.3307	-1.3927	-2.3985	 1.0482	-1.3504	63.2777	99.8820	
   896	-2.2624	 1.5458	-0.7165	-2.7306	 1.3262	-1.4043	-2.3923	 1.0520	-1.3403	63.2806	99.8813	
   897	-2.2468	 1.5403	-0.7066	-2.7315	 1.3126	-1.4187	-2.3993	 1.0362	-1.3630	63.2777	99.8801	
   898	-2.2717	 1.5250	-0.7467	-2.7673	 1.2905	-1.4767	-2.4364	 1.0129	-1.4236	63.2748	99.8790	
   899	-2.3193	 1.5259	-0.7934	-2.8230	 1.2824	-1.5405	-2.4791	 0.9975	-1.4816	63.3184	99.8773	
   900	-2.3515	 1.5213	-0.8302	-2.8445	 1.2692	-1.5753	-2.4977	 0.9859	-1.5118	63.3641	99.8769	
   901	-2.3763	 1.5060	-0.8703	-2.8858	 1.2699	-1.6159	-2.5225	 0.9703	-1.5522	63.3631	99.8773	
   902	-2.4084	 1.5014	-0.9071	-2.9010	 1.2474	-1.6535	-2.5582	 0.9707	-1.5875	63.3165	99.8764	
   903	-2.4405	 1.4967	-0.9438	-2.9361	 1.2389	-1.6970	-2.5768	 0.9591	-1.6177	63.3622	99.8748	
   904	-2.4250	 1.4912	-0.9338	-2.9154	 1.2386	-1.6767	-2.5520	 0.9746	-1.5774	63.3194	99.8736	
   905	-2.3773	 1.4902	-0.8871	-2.8741	 1.2379	-1.6361	-2.5108	 0.9662	-1.5446	63.3650	99.8740	
   906	-2.3690	 1.4953	-0.8737	-2.8677	 1.2287	-1.6389	-2.5108	 0.9662	-1.5446	63.3641	99.8722	
   907	-2.3701	 1.4795	-0.8905	-2.8821	 1.2199	-1.6621	-2.5060	 0.9462	-1.5598	63.4097	99.8713	
   908	-2.3690	 1.4953	-0.8737	-2.8669	 1.2423	-1.6245	-2.4736	 0.9895	-1.4841	63.3697	99.8693	
   909	-2.2323	 1.5189	-0.7134	-2.7302	 1.2218	-1.5083	-2.3397	 0.9361	-1.4036	63.7324	99.8691	
   910	-2.0696	 1.4525	-0.6171	-2.5979	 1.1333	-1.4644	-2.2657	 0.8795	-1.3861	63.6362	99.8663	
   911	-1.9068	 1.3860	-0.5208	-2.4962	 1.1044	-1.3917	-2.2099	 0.9146	-1.2953	63.1328	99.8622	
   912	-1.7877	 1.3836	-0.4040	-2.3709	 1.2339	-1.1369	-2.1466	 1.1721	-0.9746	62.0613	99.8666	
   913	-2.2134	 1.3184	-0.8950	-2.8964	 1.2110	-1.6853	-2.8657	 1.1098	-1.7559	61.0263	99.8833	
   914	-3.0082	 1.3291	-1.6791	-3.6467	 1.2328	-2.4138	-3.5476	 1.0709	-2.4767	60.9560	99.8880	
   915	-2.5471	 1.3251	-1.2220	-2.9677	 1.2849	-1.6827	-2.6310	 1.2459	-1.3851	61.8177	99.8764	
   916	-1.6005	 1.8169	 0.2164	-1.8978	 1.8524	-0.0453	-1.4997	 1.7161	 0.2164	62.5607	99.8959	
   917	-1.6460	 1.7283	 0.0823	-2.2678	 1.5590	-0.7087	-2.2185	 1.2644	-0.9541	62.2434	99.8998	
   918	-2.1274	 1.2957	-0.8318	-2.7995	 0.9960	-1.8034	-2.7987	 0.7394	-2.0593	62.4207	99.8856	
   919	-2.1793	 1.3546	-0.8247	-2.7505	 1.1178	-1.6327	-2.5573	 0.7879	-1.7694	63.1538	99.8895	
   920	-2.1648	 1.3333	-0.8315	-2.7063	 1.0535	-1.6527	-2.5259	 0.7160	-1.8099	63.4285	99.8898	
   921	-2.2300	 1.3082	-0.9218	-2.7261	 1.0674	-1.6586	-2.4880	 0.7513	-1.7367	63.4415	99.8895	
   922	-2.2270	 1.3556	-0.8714	-2.6903	 1.0895	-1.6006	-2.5135	 0.7238	-1.7897	63.6182	99.8991	
   923	-2.2124	 1.3342	-0.8782	-2.7379	 1.0994	-1.6384	-2.5493	 0.7242	-1.8250	63.4303	99.8974	
   924	-2.0664	 1.3787	-0.6877	-2.6253	 1.0249	-1.6004	-2.6032	 0.6216	-1.9815	63.5426	99.9013	
   925	-2.7761	 1.3507	-1.4254	-3.7530	 1.2981	-2.4547	-3.6740	 1.3467	-2.3273	59.1149	99.8458	
   926	-2.6637	 1.8592	-0.8044	-3.0998	 1.8182	-1.2815	-2.7284	 1.8034	-0.9249	61.2062	99.8706	
   927	-1.9417	 2.0765	 0.1348	-2.4295	 2.0611	-0.3683	-2.3237	 1.9890	-0.3348	60.7766	99.8962	
   928	-2.0134	 2.3201	 0.3067	-2.1931	 2.5337	 0.3408	-1.5471	 2.7062	 1.1590	60.9743	99.8701	
   929	-0.5808	 2.7022	 2.1214	-0.7870	 2.5236	 1.7367	-0.6999	 2.1270	 1.4271	63.6526	99.9298	
   930	-1.9051	 1.7809	-0.1242	-2.3079	 1.4689	-0.8389	-2.5534	 1.4436	-1.1099	61.3167	99.8995	
   931	-2.0759	 1.6000	-0.4759	-2.7428	 1.4626	-1.2800	-2.6145	 1.2218	-1.3927	61.8241	99.8880	
   932	-2.6682	 1.1748	-1.4933	-3.4841	 0.9667	-2.5172	-3.5642	 0.7969	-2.7673	60.8273	99.8811	
   933	-3.3961	 1.7264	-1.6696	-3.5784	 1.9943	-1.5841	-2.8964	 2.1791	-0.7173	60.4241	99.8698	
   934	-0.4763	 2.8423	 2.3660	-0.4969	 3.0816	 2.5848	 0.0455	 3.0194	 3.0650	62.4013	99.9114	
   935	 0.0489	 2.9687	 3.0176	 0.0684	 3.2990	 3.3675	 0.5495	 3.5653	 4.1148	61.0815	99.8969	
   936	 0.0227	 3.3010	 3.3236	 0.0318	 3.4858	 3.5176	 0.3008	 3.5923	 3.8931	61.3068	99.9144	
   937	 0.7477	 3.5655	 4.3133	 0.5203	 3.7998	 4.3202	 0.7966	 3.7091	 4.5058	61.5002	99.9196	
   938	 0.2557	 3.4595	 3.7152	 0.0807	 3.6075	 3.6883	 0.3665	 3.4961	 3.8626	61.8160	99.9180	
   939	-0.1347	 3.2041	 3.0693	-0.4167	 3.2618	 2.8452	-0.2270	 3.1461	 2.9192	61.6200	99.9126	
   940	-0.6898	 2.8624	 2.1726	-0.9158	 2.8889	 1.9732	-0.6960	 2.7826	 2.0866	61.8605	99.9107	
   941	-1.1267	 2.5025	 1.3759	-1.3610	 2.4970	 1.1361	-1.1294	 2.4186	 1.2893	61.9210	99.9044	
   942	-1.5802	 2.2536	 0.6733	-1.7942	 2.2955	 0.5014	-1.4852	 2.2524	 0.7672	61.7893	99.9004	
   943	-1.8019	 2.1474	 0.3455	-1.9887	 2.1626	 0.1740	-1.6484	 2.1154	 0.4669	62.0033	99.8980	
   944	-1.8474	 2.0588	 0.2114	-2.0423	 2.0772	 0.0350	-1.7147	 2.0050	 0.2902	62.0817	99.9009	
   945	-2.1353	 1.9119	-0.2234	-2.3342	 2.0413	-0.2928	-2.0926	 2.0655	-0.0271	61.0154	99.9066	
   946	-2.2670	 2.0883	-0.1788	-2.3404	 2.2729	-0.0674	-1.9538	 2.2902	 0.3364	61.2921	99.9087	
   947	-1.9483	 2.4663	 0.5180	-1.9897	 2.6983	 0.7087	-1.6562	 2.7751	 1.1189	60.7219	99.9128	
   948	-1.5358	 2.3264	 0.7906	-1.6757	 2.3162	 0.6406	-1.5849	 1.9834	 0.3985	62.6654	99.9385	
   949	-2.6708	 1.7488	-0.9220	-3.1049	 1.7366	-1.3682	-2.8862	 1.6584	-1.2277	61.0327	99.8917	
   950	-2.6346	 1.8165	-0.8181	-3.0585	 1.8175	-1.2409	-2.8330	 1.7492	-1.0839	60.9532	99.8920	
   951	-2.6864	 1.7544	-0.9320	-3.1847	 1.6744	-1.5102	-3.0152	 1.4972	-1.5180	61.3508	99.8951	
   952	-3.1180	 1.3523	-1.7657	-3.6438	 1.1692	-2.4745	-3.5768	 0.9839	-2.5929	61.5087	99.8934	
   953	-3.3541	 1.1464	-2.2077	-3.7809	 1.0716	-2.7092	-3.5987	 1.0159	-2.5827	61.1947	99.8872	
   954	-3.0217	 1.3662	-1.6555	-3.2772	 1.4081	-1.8690	-2.9790	 1.4053	-1.5737	61.3408	99.8943	
   955	-2.7452	 1.5818	-1.1634	-2.9211	 1.5882	-1.3328	-2.7135	 1.4575	-1.2560	61.9209	99.9147	
   956	-2.7744	 1.7456	-1.0288	-2.9610	 1.9430	-1.0179	-2.5670	 2.0080	-0.5590	60.7617	99.8977	
   957	-2.1684	 1.8915	-0.2769	-2.4949	 2.0077	-0.4871	-2.1793	 2.0110	-0.1684	60.9979	99.8940	
   958	-2.5060	 1.7139	-0.7921	-2.7418	 1.6987	-1.0430	-2.6313	 1.6353	-0.9960	61.3741	99.9107	
   959	-2.1706	 1.9810	-0.1895	-2.1127	 2.1647	 0.0521	-1.5708	 2.1184	 0.5476	62.4171	99.9107	
   960	-2.1247	 1.7063	-0.4184	-2.5343	 1.7088	-0.8254	-2.4540	 1.6092	-0.8448	61.1700	99.9066	
   961	-2.7391	 1.6765	-1.0627	-2.8598	 1.7960	-1.0637	-2.4851	 1.7844	-0.7007	61.5435	99.9042	
   962	-2.3133	 1.7417	-0.5717	-2.5444	 1.7680	-0.7763	-2.3611	 1.6676	-0.6935	61.6670	99.9119	
   963	-2.7598	 1.6032	-1.1566	-2.9860	 1.6529	-1.3331	-2.7530	 1.5932	-1.1599	61.3922	99.9069	
   964	-2.6448	 1.6588	-0.9860	-2.9008	 1.6923	-1.2084	-2.6932	 1.5964	-1.0969	61.4721	99.9089	
   965	-2.8250	 1.5781	-1.2469	-3.1404	 1.6101	-1.5302	-2.9360	 1.5240	-1.4121	61.2255	99.9045	
   966	-2.8965	 1.5796	-1.3170	-3.2096	 1.6067	-1.6028	-3.0199	 1.5171	-1.5028	61.1735	99.9057	
   967	-2.9369	 1.5698	-1.3671	-3.2707	 1.6214	-1.6493	-3.0845	 1.5338	-1.5506	60.9893	99.9063	
   968	-2.9660	 1.6125	-1.3534	-3.3023	 1.6673	-1.6349	-3.1119	 1.5739	-1.5379	60.9442	99.9066	
   969	-3.0675	 1.6409	-1.4266	-3.3770	 1.6867	-1.6902	-3.1826	 1.5868	-1.5959	60.9893	99.9079	
   970	-3.0469	 1.7142	-1.3327	-3.3466	 1.7316	-1.6149	-3.1283	 1.5980	-1.5303	61.2621	99.9077	
   971	-3.0520	 1.6353	-1.4167	-3.3580	 1.6591	-1.6988	-3.1490	 1.5506	-1.5985	61.1700	99.9062	
   972	-2.5911	 1.8736	-0.7176	-2.8307	 1.9317	-0.8989	-2.5242	 1.8286	-0.6956	61.5487	99.9054	
   973	-2.4243	 1.8703	-0.5541	-2.7856	 1.8810	-0.9045	-2.5416	 1.7375	-0.8042	61.5121	99.9023	
   974	-2.6024	 1.7001	-0.9023	-2.9978	 1.6848	-1.3129	-2.7971	 1.5540	-1.2431	61.3927	99.9002	
   975	-2.6324	 1.7270	-0.9055	-2.9720	 1.7661	-1.2058	-2.6958	 1.6520	-1.0438	61.4256	99.9007	
   976	-2.5329	 1.6671	-0.8658	-2.9607	 1.6161	-1.3445	-2.7259	 1.4497	-1.2762	61.7484	99.8959	
   977	-2.6860	 1.3911	-1.2949	-3.1393	 1.2968	-1.8424	-2.9467	 1.1506	-1.7961	61.8103	99.8919	
   978	-2.7718	 1.1716	-1.6002	-3.2597	 1.0265	-2.2331	-3.1467	 0.8988	-2.2479	61.7766	99.8896	
   979	-2.8401	 1.0993	-1.7408	-3.2597	 1.0265	-2.2331	-3.0695	 0.9932	-2.0763	61.5431	99.8848	
   980	-2.4445	 1.3125	-1.1320	-2.8112	 1.2504	-1.5607	-2.6506	 1.1190	-1.5316	62.0145	99.9010	
   981	-2.5118	 1.2560	-1.2558	-2.9260	 1.1797	-1.7461	-2.8066	 1.1011	-1.7055	61.6358	99.8950	
   982	-2.6257	 1.2161	-1.4096	-3.0803	 1.1370	-1.9433	-2.9944	 1.0519	-1.9426	61.4321	99.8953	
   983	-2.7293	 1.2129	-1.5164	-3.1837	 1.1387	-2.0449	-3.0721	 1.0489	-2.0232	61.4321	99.8942	
   984	-2.7366	 1.2236	-1.5130	-3.1874	 1.1887	-1.9986	-3.0608	 1.1362	-1.9247	61.1718	99.8929	
   985	-2.7626	 1.3136	-1.4490	-3.1671	 1.2928	-1.8743	-3.0317	 1.2232	-1.8085	61.2295	99.8981	
   986	-2.7399	 1.4185	-1.3214	-3.1388	 1.4149	-1.7239	-3.0129	 1.3382	-1.6747	61.0984	99.9013	
   987	-2.7856	 1.5721	-1.2136	-3.1261	 1.6189	-1.5071	-2.8672	 1.5787	-1.2884	61.1061	99.8958	
   988	-2.4564	 1.8656	-0.5908	-2.7087	 2.0068	-0.7018	-2.3639	 2.1127	-0.2513	60.6240	99.8891	
   989	-1.3506	 2.6070	 1.2565	-1.2250	 2.9078	 1.6829	-0.6137	 2.9604	 2.3466	61.9476	99.9102	
   990	-0.7165	 2.6944	 1.9779	-0.8770	 2.8474	 1.9705	-0.6052	 2.8053	 2.2000	61.5917	99.9143	
   991	-1.3048	 2.4534	 1.1486	-1.5284	 2.5770	 1.0487	-1.2644	 2.5515	 1.2871	61.2839	99.9076	
   992	-1.6519	 2.3761	 0.7242	-1.8401	 2.5550	 0.7151	-1.4938	 2.6022	 1.1083	60.9555	99.9017	
   993	-1.5835	 2.4485	 0.8649	-1.7371	 2.6577	 0.9207	-1.3692	 2.6919	 1.3228	61.0179	99.9056	
   994	-1.3930	 2.5658	 1.1727	-1.4519	 2.8072	 1.3554	-1.0031	 2.8303	 1.8272	61.4101	99.9089	
   995	-1.1444	 2.5976	 1.4533	-1.2533	 2.7857	 1.5325	-0.9105	 2.7854	 1.8749	61.4282	99.9114	
   996	-1.4541	 2.4827	 1.0287	-1.6169	 2.7056	 1.0888	-1.2376	 2.7975	 1.5600	60.8191	99.9003	
   997	-1.1984	 2.7462	 1.5478	-1.1430	 3.1152	 1.9723	-0.4561	 3.3001	 2.8440	61.2246	99.8944	
   998	 0.1231	 3.3779	 3.5010	 0.2182	 3.6006	 3.8190	 0.4878	 3.6297	 4.1175	61.6608	99.9276	
   999	 0.7197	 3.6240	 4.3437	 0.5987	 3.7304	 4.3292	 0.7037	 3.6507	 4.3544	61.6893	99.9274	
  1000	 0.8025	 3.6750	 4.4775	 0.5435	 3.8403	 4.3839	 0.8076	 3.6931	 4.5007	61.7818	99.9186	
  1001	 1.5296	 3.9712	 5.5008	 1.0400	 3.9499	 4.9900	 1.0742	 3.6658	 4.7400	62.0119	99.9194	
  1002	 1.8124	 4.0392	 5.8516	 1.1712	 3.9522	 5.1235	 1.0972	 3.5543	 4.6515	62.1406	99.9226	
  1003	 1.8114	 4.0234	 5.8348	 1.1353	 3.9301	 5.0655	 1.0422	 3.5311	 4.5733	62.0432	99.9216	
  1004	 1.8476	 4.0912	 5.9388	 1.2391	 4.0464	 5.2856	 1.1960	 3.7080	 4.9039	61.9013	99.9205	
  1005	 2.2670	 4.3039	 6.5710	 1.6597	 4.2663	 5.9261	 1.6783	 3.8965	 5.5748	62.2340	99.9194	
  1006	 2.7788	 4.3464	 7.1252	 2.0148	 4.2103	 6.2253	 1.8924	 3.7904	 5.6828	62.3264	99.9174	
  1007	 2.6795	 4.1641	 6.8436	 1.7541	 4.0105	 5.7646	 1.5881	 3.5877	 5.1758	61.9767	99.9098	
  1008	 2.1856	 3.9054	 6.0909	 1.3212	 3.7046	 5.0258	 1.1164	 3.2798	 4.3962	62.1267	99.9131	
  1009	 1.7351	 3.5827	 5.3178	 0.8676	 3.3990	 4.2667	 0.7074	 3.0228	 3.7303	61.9801	99.9067	
  1010	 1.5208	 3.4658	 4.9866	 0.6946	 3.2794	 3.9741	 0.5697	 2.9133	 3.4830	62.1157	99.9056	
  1011	 1.4161	 3.4469	 4.8630	 0.5609	 3.2362	 3.7972	 0.3866	 2.8442	 3.2308	62.0486	99.9079	
  1012	 1.3612	 3.4585	 4.8197	 0.3965	 3.2526	 3.6492	 0.1882	 2.9143	 3.1025	61.3976	99.8992	
  1013	 1.4450	 3.6464	 5.0914	 0.4514	 3.4696	 3.9211	 0.3284	 3.1628	 3.4913	61.2011	99.8903	
  1014	 1.6862	 3.8101	 5.4963	 0.6531	 3.6069	 4.2601	 0.5143	 3.2796	 3.7940	61.2460	99.8888	
  1015	 1.7929	 3.8606	 5.6535	 0.7050	 3.6650	 4.3701	 0.5537	 3.3387	 3.8924	61.0612	99.8866	
  1016	 1.7856	 3.8713	 5.6569	 0.6995	 3.6878	 4.3874	 0.5839	 3.3463	 3.9302	61.1579	99.8863	
  1017	 1.7598	 3.8402	 5.5999	 0.6484	 3.6433	 4.2918	 0.4917	 3.2998	 3.7915	61.0505	99.8869	
  1018	 1.5579	 3.6705	 5.2283	 0.3885	 3.4570	 3.8457	 0.2191	 3.1285	 3.3475	60.8843	99.8810	
  1019	 1.3197	 3.5541	 4.8738	 0.2198	 3.4054	 3.6253	 0.1173	 3.1218	 3.2391	60.7766	99.8813	
  1020	 1.2783	 3.5286	 4.8069	 0.2055	 3.3966	 3.6021	 0.1213	 3.0900	 3.2113	60.9173	99.8853	
  1021	 1.2193	 3.4771	 4.6964	 0.1114	 3.3255	 3.4370	-0.0026	 3.0121	 3.0095	60.8501	99.8842	
  1022	 1.0659	 3.4433	 4.5093	-0.0152	 3.2868	 3.2717	-0.1167	 2.9977	 2.8810	60.8068	99.8824	
  1023	 1.0617	 3.5013	 4.5631	-0.0126	 3.3276	 3.3151	-0.1200	 3.0414	 2.9214	60.8068	99.8817	
  1024	 1.1155	 3.5950	 4.7106	 0.0912	 3.4439	 3.5352	 0.0316	 3.1825	 3.2141	60.8402	99.8809	
  1025	 1.2242	 3.6771	 4.9014	 0.2220	 3.5506	 3.7727	 0.1941	 3.3076	 3.5017	60.8212	99.8802	
  1026	 1.2149	 3.6562	 4.8712	 0.2140	 3.5326	 3.7467	 0.1989	 3.2877	 3.4866	60.8677	99.8797	
  1027	 1.0917	 3.5955	 4.6872	 0.1351	 3.4840	 3.6192	 0.1376	 3.2606	 3.3983	60.8768	99.8802	
  1028	 1.0834	 3.5904	 4.6738	 0.1288	 3.4932	 3.6221	 0.1384	 3.2726	 3.4109	60.8359	99.8807	
  1029	 1.0347	 3.5756	 4.6103	 0.0946	 3.4983	 3.5930	 0.1507	 3.2803	 3.4311	60.8931	99.8793	
  1030	 1.2036	 3.6038	 4.8074	 0.2760	 3.5316	 3.8076	 0.3199	 3.3179	 3.6378	60.9483	99.8812	
  1031	 1.2512	 3.6029	 4.8541	 0.3173	 3.5309	 3.8483	 0.3852	 3.3131	 3.6983	61.0422	99.8792	
  1032	 1.1870	 3.5936	 4.7806	 0.3173	 3.5309	 3.8483	 0.3695	 3.3491	 3.7186	60.9660	99.8823	
  1033	 1.2056	 3.6354	 4.8410	 0.3629	 3.5982	 3.9612	 0.4501	 3.3997	 3.8497	61.0699	99.8850	
  1034	 1.3133	 3.7017	 5.0150	 0.4481	 3.6376	 4.0858	 0.4748	 3.4153	 3.8901	61.0543	99.8884	
  1035	 1.2056	 3.6354	 4.8410	 0.2857	 3.5768	 3.8626	 0.3392	 3.3415	 3.6807	60.9961	99.8842	
  1036	 1.0927	 3.6113	 4.7040	 0.1878	 3.5557	 3.7437	 0.2444	 3.3507	 3.5951	60.8650	99.8823	
  1037	 1.0895	 3.6851	 4.7746	 0.2478	 3.6319	 3.8798	 0.3581	 3.4565	 3.8146	60.9836	99.8799	
  1038	 1.4271	 3.8626	 5.2898	 0.5608	 3.7855	 4.3464	 0.6224	 3.5882	 4.2106	61.0293	99.8823	
  1039	 1.5265	 3.9238	 5.4504	 0.5912	 3.8304	 4.4217	 0.6239	 3.6120	 4.2359	60.9236	99.8806	
  1040	 1.4312	 3.9257	 5.3570	 0.5165	 3.8498	 4.3664	 0.5772	 3.6285	 4.2057	60.9307	99.8815	
  1041	 1.3680	 3.9323	 5.3003	 0.4617	 3.8553	 4.3171	 0.5236	 3.6292	 4.1528	60.9289	99.8824	
  1042	 1.2872	 3.9128	 5.2000	 0.3512	 3.8526	 4.2039	 0.4156	 3.6187	 4.0343	60.7875	99.8822	
  1043	 1.2996	 3.9810	 5.2806	 0.3736	 3.8795	 4.2531	 0.3689	 3.6352	 4.0041	60.7709	99.8861	
  1044	 1.2944	 4.0232	 5.3176	 0.3141	 3.9213	 4.2356	 0.3208	 3.6278	 3.9486	60.8006	99.8861	
  1045	 1.3182	 4.0228	 5.3410	 0.2648	 3.9040	 4.1689	 0.2348	 3.5852	 3.8200	60.6835	99.8850	
  1046	 1.2633	 4.0344	 5.2977	 0.2774	 3.8856	 4.1631	 0.2417	 3.6011	 3.8427	60.7840	99.8845	
  1047	 1.3544	 4.0905	 5.4449	 0.3913	 3.9427	 4.3341	 0.3153	 3.6359	 3.9512	60.8286	99.8914	
  1048	 1.3047	 4.0599	 5.3646	 0.3222	 3.9393	 4.2616	 0.2562	 3.6446	 3.9008	60.6502	99.8903	
  1049	 1.2570	 4.0608	 5.3179	 0.3175	 3.9757	 4.2934	 0.2956	 3.7037	 3.9993	60.6304	99.8905	
  1050	 1.2570	 4.0608	 5.3179	 0.3606	 4.0022	 4.3629	 0.4188	 3.7696	 4.1884	60.7103	99.8856	
  1051	 1.3057	 4.0757	 5.3814	 0.4593	 4.0369	 4.4963	 0.5303	 3.8397	 4.3701	60.6904	99.8863	
  1052	 1.3409	 4.1276	 5.4685	 0.5319	 4.0947	 4.6266	 0.6233	 3.8981	 4.5214	60.7945	99.8876	
  1053	 1.3730	 4.1322	 5.5052	 0.5534	 4.1079	 4.6614	 0.6357	 3.9059	 4.5416	60.7489	99.8888	
  1054	 1.4227	 4.1628	 5.5855	 0.6386	 4.1473	 4.7860	 0.7629	 3.9401	 4.7030	60.9433	99.8891	
  1055	 1.6631	 4.1896	 5.8527	 0.8541	 4.1755	 5.0297	 0.9726	 3.9572	 4.9298	61.0356	99.8890	
  1056	 1.7014	 4.1678	 5.8692	 0.8642	 4.1163	 4.9806	 0.9278	 3.9061	 4.8339	60.9730	99.8877	
  1057	 1.5388	 4.1131	 5.6519	 0.7027	 4.0691	 4.7718	 0.7772	 3.8803	 4.6574	60.8382	99.8855	
  1058	 1.4932	 4.1456	 5.6388	 0.6711	 4.1150	 4.7862	 0.7670	 3.9082	 4.6752	60.8873	99.8875	
  1059	 1.4797	 4.1828	 5.6624	 0.6593	 4.1470	 4.8064	 0.7389	 3.9364	 4.6752	60.8400	99.8889	
  1060	 1.4330	 4.1995	 5.6325	 0.5918	 4.1708	 4.7627	 0.6929	 3.9648	 4.6577	60.7526	99.8860	
  1061	 1.4278	 4.2417	 5.6695	 0.6087	 4.2205	 4.8293	 0.6965	 4.0244	 4.7208	60.6707	99.8882	
  1062	 1.4537	 4.2728	 5.7265	 0.6399	 4.2790	 4.9190	 0.7763	 4.0631	 4.8394	60.7725	99.8888	
  1063	 1.7302	 4.3673	 6.0976	 0.9280	 4.3649	 5.2930	 1.0563	 4.1588	 5.2151	60.8773	99.8887	
  1064	 1.9260	 4.4424	 6.3684	 1.1056	 4.4481	 5.5539	 1.2277	 4.2321	 5.4598	60.8844	99.8895	
  1065	 1.9539	 4.5050	 6.4589	 1.1360	 4.4930	 5.6291	 1.2236	 4.2639	 5.4876	60.8773	99.8922	
  1066	 1.9000	 4.5324	 6.4324	 1.0964	 4.5209	 5.6174	 1.1948	 4.2802	 5.4750	60.9225	99.8934	
  1067	 1.8689	 4.5436	 6.4125	 1.0901	 4.5301	 5.6203	 1.1674	 4.3203	 5.4877	60.7959	99.8937	
  1068	 1.9020	 4.5640	 6.4660	 1.1196	 4.5614	 5.6811	 1.1875	 4.3558	 5.5433	60.7110	99.8947	
  1069	 1.8720	 4.5909	 6.4629	 1.0952	 4.6117	 5.7070	 1.2432	 4.3908	 5.6341	60.8587	99.8921	
  1070	 1.9921	 4.6043	 6.5964	 1.2137	 4.6324	 5.8462	 1.3924	 4.3929	 5.7853	61.0417	99.8919	
  1071	 2.2252	 4.6418	 6.8670	 1.4284	 4.6470	 6.0754	 1.5368	 4.4149	 5.9517	60.9917	99.8936	
  1072	 2.2491	 4.6413	 6.8904	 1.4014	 4.6565	 6.0580	 1.4948	 4.4114	 5.9063	60.8499	99.8933	
  1073	 2.1641	 4.6798	 6.8439	 1.3348	 4.6939	 6.0288	 1.4675	 4.4515	 5.9190	60.9019	99.8913	
  1074	 2.1599	 4.7378	 6.8977	 1.3302	 4.7303	 6.0606	 1.4160	 4.4880	 5.9040	60.8048	99.8932	
  1075	 2.0956	 4.7286	 6.8242	 1.2530	 4.7089	 5.9620	 1.3136	 4.4694	 5.7830	60.7055	99.8932	
  1076	 2.0169	 4.7407	 6.7576	 1.1918	 4.7236	 5.9155	 1.2366	 4.4784	 5.7150	60.6585	99.8962	
  1077	 2.0054	 4.8094	 6.8148	 1.1754	 4.7920	 5.9675	 1.2416	 4.5617	 5.8034	60.5791	99.8930	
  1078	 2.1784	 4.9007	 7.0791	 1.3960	 4.9017	 6.2979	 1.5093	 4.6497	 6.1589	60.8692	99.8959	
  1079	 2.4840	 4.9525	 7.4365	 1.6204	 4.9615	 6.5820	 1.7018	 4.6790	 6.3808	60.8173	99.8962	
  1080	 2.5430	 5.0040	 7.5470	 1.6930	 5.0193	 6.7124	 1.7054	 4.7386	 6.4439	60.6391	99.9025	
  1081	 2.4590	 5.0583	 7.5173	 1.6138	 5.0751	 6.6889	 1.6018	 4.7995	 6.4013	60.4605	99.9043	
  1082	 2.1740	 5.0798	 7.2539	 1.4312	 5.1326	 6.5639	 1.3921	 4.7823	 6.1744	60.5866	99.9204	
  1083	 1.0596	 4.5755	 5.6352	 0.1108	 4.5285	 4.6394	-0.1478	 4.1584	 4.0106	59.5908	99.9186	
  1084	-0.7394	 3.8164	 3.0770	-1.3459	 3.8404	 2.4946	-1.4683	 3.6151	 2.1468	59.5151	99.9222	
  1085	-1.4912	 3.3839	 1.8927	-1.9535	 3.3877	 1.4343	-2.0289	 3.2170	 1.1882	59.7722	99.9215	
  1086	-1.9550	 2.9772	 1.0222	-2.3493	 3.0130	 0.6638	-2.3219	 2.9069	 0.5850	59.9196	99.9152	
  1087	-2.2523	 2.9304	 0.6781	-2.3876	 3.1726	 0.7851	-2.1868	 3.2668	 1.0799	59.4161	99.9162	
  1088	-2.0359	 3.0788	 1.0429	-2.1033	 3.3085	 1.2053	-1.8773	 3.3581	 1.4809	59.8836	99.9211	
  1089	-1.8453	 3.0750	 1.2297	-1.8435	 3.2723	 1.4289	-1.5097	 3.3256	 1.8159	60.5768	99.9153	
  1090	-1.5963	 2.7436	 1.1473	-1.6822	 2.8746	 1.1926	-1.4182	 2.8674	 1.4493	61.0910	99.9150	
  1091	-1.9462	 2.4978	 0.5516	-2.1938	 2.7426	 0.5489	-1.9842	 2.9701	 0.9859	59.2396	99.8970	
  1092	-1.5024	 3.2103	 1.7079	-1.3764	 3.5731	 2.1968	-0.8338	 3.6586	 2.8248	60.8205	99.9168	
  1093	-1.2650	 3.0687	 1.8037	-1.3521	 3.3003	 1.9483	-1.0386	 3.4268	 2.3882	60.2991	99.9077	
  1094	-1.4090	 3.0558	 1.6467	-1.3217	 3.3452	 2.0236	-0.9270	 3.4969	 2.5699	60.5704	99.9142	
  1095	-1.2268	 3.1680	 1.9412	-1.1327	 3.5009	 2.3683	-0.6565	 3.6325	 2.9759	60.7311	99.9137	
  1096	-1.1046	 3.2129	 2.1084	-1.0070	 3.5260	 2.5191	-0.5581	 3.6829	 3.1248	60.6925	99.9124	
  1097	-0.9813	 3.2736	 2.2923	-0.8986	 3.6059	 2.7074	-0.3875	 3.7443	 3.3568	60.8360	99.9101	
  1098	-0.9274	 3.2462	 2.3188	-0.8859	 3.5875	 2.7017	-0.3820	 3.7362	 3.3542	60.7049	99.9080	
  1099	-0.9254	 3.2778	 2.3524	-0.8357	 3.6184	 2.7828	-0.3139	 3.7791	 3.4652	60.8044	99.9085	
  1100	-0.8601	 3.3028	 2.4427	-0.7640	 3.6626	 2.8987	-0.2264	 3.8455	 3.6191	60.7346	99.9073	
  1101	-0.6975	 3.3575	 2.6600	-0.5539	 3.7135	 3.1597	-0.0036	 3.8824	 3.8788	61.0031	99.9101	
  1102	-0.5949	 3.3449	 2.7500	-0.4515	 3.6982	 3.2468	 0.0898	 3.8494	 3.9392	61.1279	99.9119	
  1103	-0.5254	 3.3119	 2.7865	-0.4262	 3.6615	 3.2354	 0.1350	 3.8091	 3.9441	61.1664	99.9080	
  1104	-0.5358	 3.2753	 2.7395	-0.4350	 3.6298	 3.1949	 0.1165	 3.7974	 3.9138	61.0831	99.9075	
  1105	-0.5368	 3.2595	 2.7227	-0.4304	 3.5934	 3.1631	 0.1033	 3.7777	 3.8810	61.0799	99.9062	
  1106	-0.5534	 3.2493	 2.6959	-0.4422	 3.6254	 3.1833	 0.1536	 3.8207	 3.9744	61.0561	99.9042	
  1107	-0.4550	 3.2947	 2.8397	-0.3435	 3.6601	 3.3166	 0.2623	 3.8432	 4.1055	61.1853	99.9038	
  1108	-0.3752	 3.2984	 2.9232	-0.2313	 3.6899	 3.4587	 0.3957	 3.8812	 4.2769	61.2438	99.9054	
  1109	-0.2467	 3.3169	 3.0701	-0.0715	 3.7099	 3.6386	 0.5751	 3.8908	 4.4660	61.4636	99.9068	
  1110	-0.1411	 3.3516	 3.2105	 0.0138	 3.7493	 3.7632	 0.6790	 3.9332	 4.6122	61.4695	99.9044	
  1111	-0.0934	 3.3507	 3.2573	 0.0614	 3.7395	 3.8010	 0.7141	 3.9208	 4.6349	61.5092	99.9049	
  1112	-0.0934	 3.3507	 3.2573	 0.0749	 3.7347	 3.8097	 0.7319	 3.9206	 4.6525	61.5532	99.9046	
  1113	-0.0706	 3.3344	 3.2638	 0.0732	 3.7075	 3.7808	 0.7352	 3.8768	 4.6121	61.6298	99.9034	
  1114	-0.1120	 3.3089	 3.1969	 0.0382	 3.6990	 3.7373	 0.6933	 3.8734	 4.5667	61.5475	99.9051	
  1115	-0.0955	 3.3191	 3.2237	 0.0795	 3.6983	 3.7779	 0.7476	 3.8846	 4.6323	61.6369	99.9039	
  1116	 0.0102	 3.3539	 3.3641	 0.2150	 3.7686	 3.9837	 0.9361	 3.9458	 4.8819	61.7806	99.9052	
  1117	 0.1821	 3.4294	 3.6115	 0.3917	 3.8383	 4.2301	 1.1122	 3.9991	 5.1114	61.9099	99.9065	
  1118	 0.2308	 3.4442	 3.6750	 0.4276	 3.8604	 4.2880	 1.1673	 4.0223	 5.1896	61.9138	99.9048	
  1119	 0.2557	 3.4595	 3.7152	 0.4347	 3.8648	 4.2996	 1.1425	 4.0067	 5.1492	61.9046	99.9069	
  1120	 0.2070	 3.4447	 3.6517	 0.3854	 3.8475	 4.2330	 1.1068	 4.0072	 5.1139	61.8651	99.9043	
  1121	 0.2163	 3.4656	 3.6819	 0.3943	 3.8791	 4.2735	 1.1315	 4.0227	 5.1543	61.9086	99.9052	
  1122	 0.2100	 3.4920	 3.7021	 0.4023	 3.8971	 4.2995	 1.1509	 4.0463	 5.1972	61.9533	99.9043	
  1123	 0.2981	 3.5008	 3.7989	 0.4930	 3.9138	 4.4068	 1.2347	 4.0532	 5.2879	61.9967	99.9062	
  1124	 0.2908	 3.5115	 3.8023	 0.4947	 3.9410	 4.4357	 1.2486	 4.0848	 5.3334	61.9610	99.9067	
  1125	 0.2847	 3.4168	 3.7015	 0.3617	 3.6890	 4.0508	 0.8874	 3.7318	 4.6192	62.0876	99.9122	
  1126	-0.1875	 3.1261	 2.9386	 0.0153	 3.5541	 3.5696	 0.8338	 3.7325	 4.5663	62.0286	99.8990	
  1127	 0.8761	 3.7051	 4.5812	 1.3899	 4.3616	 5.7516	 2.5282	 4.5452	 7.0734	62.8524	99.9104	
  1128	 3.8289	 4.9625	 8.7914	 4.3269	 5.1246	 9.4516	 4.8351	 4.6426	 9.4777	66.0366	99.9596	
  1129	 4.5712	 4.5106	 9.0818	 4.2845	 4.6668	 8.9514	 4.4904	 4.2656	 8.7560	64.1391	99.9370	
  1130	 4.3362	 4.3205	 8.6567	 3.8964	 4.4146	 8.3111	 3.9301	 3.9708	 7.9009	63.7695	99.9390	
  1131	 3.2321	 3.8529	 7.0850	 2.6536	 3.9499	 6.6036	 2.5818	 3.5590	 6.1408	62.6898	99.9354	
  1132	 1.6317	 3.4584	 5.0900	 1.1356	 3.6033	 4.7389	 1.3311	 3.3804	 4.7115	62.0926	99.9139	
  1133	 1.3797	 3.6214	 5.0011	 1.1787	 3.8522	 5.0310	 1.6868	 3.7414	 5.4282	62.5714	99.9067	
  1134	 1.9980	 3.9565	 5.9545	 1.9841	 4.2699	 6.2540	 2.6048	 4.1349	 6.7396	63.1715	99.9171	
  1135	 2.2414	 4.0306	 6.2720	 2.2616	 4.2970	 6.5586	 2.8611	 4.1356	 6.9967	63.5433	99.9193	
  1136	 2.1565	 3.9481	 6.1046	 1.9747	 4.1202	 6.0950	 2.5863	 3.9285	 6.5148	63.5576	99.9033	
  1137	 2.1327	 3.9486	 6.0812	 2.1219	 4.1586	 6.2806	 2.9170	 3.9759	 6.8929	64.2026	99.9025	
  1138	 3.1281	 4.2130	 7.3412	 3.3958	 4.4594	 7.8552	 3.8589	 4.0750	 7.9339	65.0232	99.9515	
  1139	 1.4318	 3.3202	 4.7520	 0.9663	 3.4336	 4.4001	 0.9236	 3.6400	 4.5635	60.1158	99.8937	
  1140	 1.1929	 3.9305	 5.1234	 1.6173	 4.5802	 6.1976	 2.7055	 4.5190	 7.2245	63.3847	99.9255	
  1141	 1.6144	 4.1748	 5.7892	 2.0707	 4.6633	 6.7342	 2.8571	 4.6601	 7.5172	63.1684	99.9323	
  1142	 3.1027	 4.8033	 7.9060	 3.2966	 5.0784	 8.3751	 3.7092	 4.8518	 8.5610	63.5682	99.9437	
  1143	 3.7687	 5.0164	 8.7851	 3.9766	 5.3665	 9.3432	 4.4851	 5.0644	 9.5494	64.0342	99.9469	
  1144	 4.0238	 4.7796	 8.8034	 4.1042	 5.0920	 9.1963	 4.5867	 4.7730	 9.3596	64.2245	99.9417	
  1145	 3.4637	 4.3590	 7.8227	 3.6030	 4.7963	 8.3995	 4.1744	 4.5597	 8.7341	63.8677	99.9408	
  1146	 2.8754	 4.1180	 6.9934	 3.1170	 4.5231	 7.6402	 3.7180	 4.3073	 8.0253	64.0645	99.9411	
  1147	 2.4611	 3.9841	 6.4452	 2.8551	 4.4140	 7.2692	 3.5178	 4.2503	 7.7681	64.1538	99.9428	
  1148	 2.3969	 3.9749	 6.3717	 2.8226	 4.4464	 7.2691	 3.5021	 4.2862	 7.7884	64.0777	99.9451	
  1149	 2.3885	 4.0909	 6.4793	 2.8805	 4.5997	 7.4803	 3.5735	 4.4800	 8.0535	63.8886	99.9467	
  1150	 2.8678	 4.4920	 7.3598	 3.3184	 4.9873	 8.3058	 4.0287	 4.8119	 8.8406	64.0153	99.9465	
  1151	 3.3307	 4.7618	 8.0925	 3.3995	 5.1811	 8.5807	 3.8062	 4.8784	 8.6846	63.2005	99.9493	
  1152	 2.7961	 4.7357	 7.5317	 2.6689	 4.9665	 7.6355	 2.8352	 4.6922	 7.5274	62.4251	99.9434	
  1153	 1.7685	 4.4666	 6.2351	 1.7667	 4.7638	 6.5306	 2.1930	 4.6210	 6.8141	62.2477	99.9298	
  1154	 1.8137	 4.7974	 6.6112	 2.0853	 5.1170	 7.2024	 2.6414	 4.9371	 7.5785	62.9979	99.9392	
  1155	 2.5864	 5.0610	 7.6475	 2.4612	 5.2832	 7.7445	 2.7241	 5.0235	 7.7475	62.2320	99.9370	
  1156	 2.6206	 5.0972	 7.7178	 2.3806	 5.2074	 7.5881	 2.4364	 4.9000	 7.3365	62.0057	99.9404	
  1157	 1.0464	 4.3705	 5.4168	 0.8713	 4.6700	 5.5414	 1.2085	 4.5065	 5.7150	61.3021	99.9281	
  1158	-0.2180	 3.6375	 3.4195	-0.4918	 3.9349	 3.4432	-0.2391	 3.7344	 3.4953	60.7990	99.9306	
  1159	-1.0928	 3.8866	 2.7939	-0.5232	 4.4257	 3.9026	 0.3501	 4.5057	 4.8557	61.7934	99.9308	
  1160	 1.2771	 4.7397	 6.0168	 1.5699	 5.0350	 6.6049	 2.1732	 4.8835	 7.0567	62.8685	99.9346	
  1161	 2.3859	 4.5438	 6.9297	 2.2538	 4.7238	 6.9777	 2.3959	 4.4277	 6.8236	62.5228	99.9433	
  1162	 1.4269	 4.1048	 5.5317	 1.3482	 4.4667	 5.8150	 1.7341	 4.4243	 6.1583	61.4815	99.9250	
  1163	 1.2622	 4.0186	 5.2809	 1.1836	 4.2607	 5.4444	 1.5133	 4.1251	 5.6384	62.0659	99.9280	
  1164	-0.2531	 3.4644	 3.2113	 0.0691	 3.8619	 3.9311	 0.6459	 3.8780	 4.5239	62.0804	99.9319	
  1165	 0.2066	 3.8080	 4.0146	 0.6855	 4.3463	 5.0319	 1.4577	 4.3881	 5.8457	62.3299	99.9342	
  1166	 1.2193	 4.4618	 5.6811	 1.7972	 5.0311	 6.8284	 2.5597	 4.9660	 7.5256	62.8568	99.9471	
  1167	 1.5759	 4.3177	 5.8936	 1.8261	 4.7220	 6.5482	 2.2438	 4.5727	 6.8164	62.4841	99.9479	
  1168	 0.2276	 3.5180	 3.7456	 0.1340	 3.7973	 3.9313	 0.2306	 3.8118	 4.0424	60.5503	99.9330	
  1169	-0.1283	 4.0411	 3.9129	-0.1812	 4.2701	 4.0890	 0.1054	 4.5009	 4.6062	59.8655	99.9030	
  1170	-0.9443	 3.5993	 2.6550	-0.9367	 3.9878	 3.0512	-0.3526	 3.9266	 3.5740	61.0812	99.9204	
  1171	-0.5218	 3.8594	 3.3376	-0.4162	 4.1515	 3.7354	-0.0395	 4.0775	 4.0381	61.2429	99.9335	
  1172	-0.3242	 4.0872	 3.7630	-0.1153	 4.4415	 4.3263	 0.3848	 4.3900	 4.7748	61.4326	99.9334	
  1173	 0.5054	 4.4918	 4.9972	 0.5609	 4.7796	 5.3407	 1.0330	 4.6598	 5.6928	61.6400	99.9282	
  1174	 0.7105	 4.5878	 5.2982	 0.6558	 4.8643	 5.5202	 1.0654	 4.7031	 5.7685	61.4504	99.9286	
  1175	 0.6608	 4.5572	 5.2179	 0.5276	 4.7984	 5.3261	 0.8528	 4.6383	 5.4911	61.1636	99.9276	
  1176	 0.4867	 4.5712	 5.0579	 0.4045	 4.8141	 5.2186	 0.7711	 4.6671	 5.4383	61.2167	99.9269	
  1177	 0.5239	 4.6547	 5.1786	 0.4121	 4.9365	 5.3487	 0.7783	 4.7863	 5.5646	60.9685	99.9280	
  1178	 0.6211	 4.8054	 5.4266	 0.5733	 5.0881	 5.6615	 1.0091	 4.9542	 5.9632	61.1711	99.9260	
  1179	 1.0302	 4.9816	 6.0118	 0.9437	 5.2771	 6.2209	 1.3058	 5.1292	 6.4349	61.0081	99.9302	
  1180	 1.2715	 5.1452	 6.4167	 1.1749	 5.4457	 6.6207	 1.5303	 5.2932	 6.8235	60.9797	99.9307	
  1181	 1.5138	 5.3247	 6.8385	 1.4036	 5.5734	 6.9771	 1.7341	 5.4098	 7.1438	61.1056	99.9293	
  1182	 1.8183	 5.4818	 7.3001	 1.6706	 5.7641	 7.4349	 2.0487	 5.5845	 7.6332	61.1278	99.9276	
  1183	 2.0958	 5.5921	 7.6880	 1.9587	 5.8500	 7.8089	 2.2908	 5.6450	 7.9357	61.2958	99.9312	
  1184	 2.4719	 5.6267	 8.0987	 2.2030	 5.8958	 8.0989	 2.5059	 5.6541	 8.1600	61.1994	99.9293	
  1185	 2.6305	 5.6183	 8.2488	 2.3818	 5.8883	 8.2702	 2.7025	 5.6516	 8.3541	61.3783	99.9289	
  1186	 2.8958	 5.5393	 8.4351	 2.6327	 5.8205	 8.4533	 2.9202	 5.6051	 8.5253	61.3827	99.9292	
  1187	 3.0149	 5.5369	 8.5518	 2.7002	 5.7967	 8.4969	 2.9841	 5.5764	 8.5605	61.4165	99.9259	
  1188	 2.9818	 5.5165	 8.4983	 2.7048	 5.7603	 8.4651	 3.0300	 5.5480	 8.5781	61.6326	99.9238	
  1189	 2.9705	 5.4641	 8.4345	 2.6655	 5.6838	 8.3494	 2.9892	 5.4651	 8.4544	61.7053	99.9214	
  1190	 2.8658	 5.4451	 8.3109	 2.5596	 5.6447	 8.2044	 2.8820	 5.4665	 8.3485	61.5787	99.9173	
  1191	 2.8958	 5.5393	 8.4351	 2.6078	 5.7528	 8.3607	 2.9392	 5.5254	 8.4646	61.7067	99.9222	
  1192	 2.8606	 5.4873	 8.3479	 2.5407	 5.6722	 8.2130	 2.8408	 5.4750	 8.3158	61.5700	99.9185	
  1193	 2.9382	 5.5806	 8.5188	 2.6588	 5.7974	 8.4563	 2.9793	 5.5964	 8.5757	61.5886	99.9217	
  1194	 3.1827	 5.6705	 8.8531	 2.8508	 5.8894	 8.7403	 3.1485	 5.6339	 8.7824	61.6654	99.9243	
  1195	 3.1744	 5.6654	 8.8397	 2.8141	 5.8537	 8.6679	 3.0508	 5.5954	 8.6462	61.5643	99.9250	
  1196	 3.0200	 5.6158	 8.6358	 2.6192	 5.8253	 8.4446	 2.8666	 5.6058	 8.4724	61.2268	99.9207	
  1197	 2.9423	 5.6437	 8.5860	 2.5382	 5.8539	 8.3922	 2.7718	 5.6149	 8.3867	61.1774	99.9229	
  1198	 2.7361	 5.6531	 8.3892	 2.2759	 5.8492	 8.1252	 2.4859	 5.6186	 8.1045	60.8615	99.9200	
  1199	 2.6469	 5.7496	 8.3965	 2.2144	 5.9683	 8.1828	 2.4147	 5.7229	 8.1375	60.7398	99.9245	
  1200	 2.5204	 5.8838	 8.4041	 2.0846	 6.0976	 8.1822	 2.2232	 5.8088	 8.0319	60.5514	99.9309	
  1201	 2.3908	 5.9706	 8.3614	 1.9800	 6.1901	 8.1703	 2.1031	 5.8938	 7.9969	60.4240	99.9340	
  1202	 2.1908	 5.9535	 8.1443	 1.8290	 6.2018	 8.0309	 1.9795	 5.9192	 7.8987	60.3515	99.9355	
  1203	 2.1276	 5.9601	 8.0877	 1.8020	 6.2113	 8.0135	 1.9521	 5.9593	 7.9114	60.2774	99.9355	
  1204	 2.1224	 6.0023	 8.1247	 1.7848	 6.2661	 8.0510	 1.9721	 5.9948	 7.9669	60.3247	99.9346	
  1205	 2.0933	 6.0450	 8.1383	 1.7452	 6.2940	 8.0392	 1.8802	 6.0516	 7.9318	60.0630	99.9346	
  1206	 2.0000	 6.0785	 8.0785	 1.6722	 6.3406	 8.0129	 1.8116	 6.1002	 7.9118	59.9835	99.9359	
  1207	 1.8892	 6.0859	 7.9751	 1.5419	 6.3519	 7.8939	 1.7051	 6.1135	 7.8186	59.8960	99.9337	
  1208	 1.8528	 6.1393	 7.9922	 1.5723	 6.3968	 7.9692	 1.7733	 6.1563	 7.9296	60.1261	99.9345	
  1209	 1.9906	 6.1787	 8.1693	 1.6782	 6.4358	 8.1141	 1.8600	 6.2108	 8.0708	60.0013	99.9330	
  1210	 2.0155	 6.1940	 8.2095	 1.6736	 6.4722	 8.1459	 1.8483	 6.2149	 8.0633	59.9517	99.9352	
  1211	 1.9284	 6.2010	 8.1294	 1.6107	 6.4597	 8.0705	 1.7433	 6.2521	 7.9954	59.7394	99.9346	
  1212	 1.8569	 6.2024	 8.0594	 1.5289	 6.4747	 8.0037	 1.7021	 6.2605	 7.9626	59.7435	99.9329	
  1213	 1.7771	 6.1988	 7.9759	 1.4597	 6.4713	 7.9311	 1.6299	 6.2496	 7.8794	59.7394	99.9341	
  1214	 1.6808	 6.1849	 7.8657	 1.3564	 6.4730	 7.8295	 1.5482	 6.2784	 7.8266	59.5770	99.9316	
  1215	 1.6331	 6.1858	 7.8190	 1.3016	 6.4785	 7.7802	 1.5000	 6.2711	 7.7711	59.5728	99.9320	
  1216	 1.5471	 6.2086	 7.7557	 1.2493	 6.5248	 7.7742	 1.4865	 6.3428	 7.8293	59.5109	99.9310	
  1217	 1.6217	 6.2545	 7.8762	 1.3480	 6.5594	 7.9075	 1.5835	 6.3694	 7.9528	59.6439	99.9322	
  1218	 1.6879	 6.2953	 7.9833	 1.4134	 6.6128	 8.0263	 1.6235	 6.4404	 8.0639	59.4823	99.9332	
  1219	 1.8288	 6.3820	 8.2108	 1.5379	 6.7287	 8.2667	 1.7894	 6.5217	 8.3111	59.5820	99.9337	
  1220	 2.0318	 6.4464	 8.4782	 1.7362	 6.8116	 8.5479	 1.9648	 6.5631	 8.5279	59.6688	99.9383	
  1221	 2.0090	 6.4627	 8.4716	 1.7100	 6.8348	 8.5449	 1.8948	 6.5879	 8.4826	59.4930	99.9408	
  1222	 1.9955	 6.4998	 8.4953	 1.7252	 6.8572	 8.5825	 1.9031	 6.6275	 8.5306	59.4994	99.9408	
  1223	 2.0234	 6.5624	 8.5858	 1.7295	 6.9252	 8.6548	 1.9286	 6.6550	 8.5836	59.5799	99.9412	
