OxySoft export of:	C:\Users\TO3 TechSupport\Documents\Train2Adapt\Post_tests\T2A_59_POST_NIRS
Export date:	2022/12/22 14:05:18
Start of measurement:	2022-12-22 12:55:46.192

Datafile sample rate:	10.00	Hz
Datafile duration:	3433.700	s
Datafile total number of samples:	34337

Description:	

Optode-template:	PortaMon TSI Fit Factor
Optode distance (mm):	 35.00
Optode gradients (mm):	 5.00
DPF:	6.39

Device id:	291
# Receivers:	1
# Light sources:	6
# ADC:	2

Light source wavelengths:
device	index	wavelength
1	1	847	nm
1	2	761	nm
1	3	848	nm
1	4	761	nm
1	5	848	nm
1	6	762	nm

Export sample rate:	10.00	Hz
Selected time span:	0	3433.700
Selected time span (sample numbers):	0	34337


Legend:
Column	Trace (Measurement)
1	(Sample number)
2	Rx1-Tx1 O2Hb (T2A_59_POST_NIRS)
3	Rx1-Tx1 HHb (T2A_59_POST_NIRS)
4	Rx1-Tx1 tHb (T2A_59_POST_NIRS)
5	Rx1-Tx1 HbDiff (T2A_59_POST_NIRS)
6	Rx1-Tx2 O2Hb (T2A_59_POST_NIRS)
7	Rx1-Tx2 HHb (T2A_59_POST_NIRS)
8	Rx1-Tx2 tHb (T2A_59_POST_NIRS)
9	Rx1-Tx2 HbDiff (T2A_59_POST_NIRS)
10	Rx1-Tx3 O2Hb (T2A_59_POST_NIRS)
11	Rx1-Tx3 HHb (T2A_59_POST_NIRS)
12	Rx1-Tx3 tHb (T2A_59_POST_NIRS)
13	Rx1-Tx3 HbDiff (T2A_59_POST_NIRS)
14	Rx1-Tx1,Tx2,Tx3 TSI% (T2A_59_POST_NIRS)
15	Rx1-Tx1,Tx2,Tx3 TSI Fit Factor (T2A_59_POST_NIRS)
16	(Event)


1	2	3	4	5	6	7	8	9	10	11	12	13	14	15	16
     0	125.7987	65.2436	191.0424	60.5552	101.7552	51.4480	153.2032	50.3072	84.1621	45.6614	129.8236	38.5007	43.7250	98.5201	
     1	 0.2442	 0.1757	 0.4200	 0.0685	-0.5126	 0.3234	-0.1892	-0.8360	-0.2602	-0.0677	-0.3278	-0.1925	62.3884	99.9623	
     2	 0.2424	 0.1451	 0.3876	 0.0973	-0.5378	 0.2321	-0.3057	-0.7699	-0.3872	-0.1558	-0.5429	-0.2314	62.3199	99.9643	
     3	-0.0225	 0.0161	-0.0063	-0.0385	-0.8055	 0.0829	-0.7226	-0.8883	-0.6654	-0.2344	-0.8997	-0.4310	62.0532	99.9628	
     4	-0.2586	-0.0219	-0.2804	-0.2367	-0.8291	 0.0179	-0.8113	-0.8470	-0.8395	-0.1041	-0.9435	-0.7354	61.4766	99.9701	
     5	-0.5576	-0.0679	-0.6254	-0.4897	-0.7893	-0.0974	-0.8867	-0.6920	-0.8780	-0.1723	-1.0502	-0.7057	62.0556	99.9795	
     6	-0.5540	-0.1396	-0.6935	-0.4144	-0.6998	-0.1572	-0.8571	-0.5426	-0.8334	-0.2127	-1.0460	-0.6208	62.1061	99.9826	
     7	-0.6456	-0.1058	-0.7513	-0.5398	-0.7373	-0.1166	-0.8539	-0.6207	-0.9099	-0.1131	-1.0229	-0.7969	61.8184	99.9839	
     8	-0.6034	-0.0510	-0.6543	-0.5524	-0.5675	-0.0519	-0.6194	-0.5156	-0.7414	-0.0110	-0.7523	-0.7303	61.9326	99.9861	
     9	-0.4157	-0.0421	-0.4577	-0.3736	-0.2562	-0.0663	-0.3225	-0.1899	-0.6149	-0.0467	-0.6615	-0.5682	62.0510	99.9917	
    10	-0.4490	-0.0767	-0.5256	-0.3722	-0.3824	-0.0666	-0.4490	-0.3158	-0.6781	-0.0289	-0.7069	-0.6492	61.7985	99.9894	
    11	-0.4319	-0.0517	-0.4835	-0.3801	-0.4000	-0.0266	-0.4266	-0.3734	-0.6420	-0.0070	-0.6489	-0.6350	61.8447	99.9880	
    12	-0.3672	-0.0130	-0.3802	-0.3542	-0.3190	-0.0029	-0.3219	-0.3161	-0.5595	 0.0092	-0.5501	-0.5687	61.9743	99.9883	
    13	-0.3044	-0.0050	-0.3093	-0.2994	-0.2647	 0.0173	-0.2474	-0.2819	-0.4993	 0.0457	-0.4535	-0.5450	61.8965	99.9880	
    14	-0.2011	 0.0273	-0.1737	-0.2284	-0.1951	 0.0720	-0.1230	-0.2671	-0.3752	 0.0759	-0.2993	-0.4511	61.9883	99.9867	
    15	-0.0907	 0.0491	-0.0415	-0.1398	-0.1194	 0.1178	-0.0016	-0.2372	-0.2741	 0.1146	-0.1593	-0.3887	61.9523	99.9858	
    16	-0.0350	 0.0676	 0.0327	-0.1027	-0.0720	 0.1338	 0.0619	-0.2058	-0.2042	 0.1120	-0.0921	-0.3163	62.0798	99.9853	
    17	-0.0359	 0.0523	 0.0165	-0.0883	-0.1263	 0.1137	-0.0126	-0.2399	-0.2114	 0.0852	-0.1261	-0.2967	62.1186	99.9832	
    18	 0.0027	 0.0459	 0.0487	-0.0432	 0.0023	 0.0394	 0.0417	-0.0371	-0.0627	 0.0294	-0.0332	-0.0920	62.5882	99.9836	
    19	-0.0000	-0.0000	 0.0000	 0.0000	 0.0444	-0.0365	 0.0079	 0.0809	-0.0368	-0.0335	-0.0701	-0.0033	62.7552	99.9844	
    20	-0.0000	-0.0000	 0.0000	 0.0000	-0.0000	-0.0000	-0.0000	 0.0000	-0.0000	-0.0000	 0.0000	 0.0000	62.7218	99.9818	
    21	 0.0341	 0.0499	 0.0841	-0.0158	 0.0436	 0.0644	 0.1079	-0.0208	 0.0276	 0.0840	 0.1118	-0.0564	62.5611	99.9823	
    22	 0.2496	 0.1346	 0.3843	 0.1150	 0.4000	 0.1406	 0.5405	 0.2594	 0.2643	 0.1487	 0.4131	 0.1156	62.7366	99.9880	
    23	 0.3313	 0.0654	 0.3967	 0.2659	 0.3855	 0.0051	 0.3906	 0.3804	 0.1331	-0.0205	 0.1127	 0.1536	62.6999	99.9886	
    24	 0.3887	-0.0184	 0.3704	 0.4072	 0.4314	-0.1191	 0.3123	 0.5505	 0.1952	-0.1737	 0.0216	 0.3688	63.0695	99.9881	
    25	 0.5692	 0.0010	 0.5702	 0.5682	 0.6647	-0.1047	 0.5600	 0.7694	 0.4397	-0.1828	 0.2569	 0.6225	63.4134	99.9889	
    26	 0.7254	 0.0059	 0.7313	 0.7195	 0.8445	-0.0973	 0.7472	 0.9418	 0.6438	-0.1827	 0.4612	 0.8265	63.6297	99.9889	
    27	 0.8663	 0.0164	 0.8828	 0.8500	 0.9867	-0.0493	 0.9374	 1.0360	 0.8088	-0.1502	 0.6587	 0.9590	63.6787	99.9888	
    28	 0.9121	-0.0005	 0.9117	 0.9127	 1.0380	-0.0816	 0.9564	 1.1196	 0.8299	-0.1935	 0.6365	 1.0234	63.7581	99.9894	
    29	 0.8798	-0.0199	 0.8600	 0.8997	 1.0296	-0.1120	 0.9176	 1.1416	 0.7829	-0.1995	 0.5835	 0.9824	63.6737	99.9903	
    30	 0.8556	-0.0344	 0.8213	 0.8900	 1.0349	-0.1341	 0.9008	 1.1691	 0.7697	-0.2300	 0.5398	 0.9996	63.7557	99.9909	
    31	 0.8385	-0.0594	 0.7792	 0.8979	 1.0074	-0.1508	 0.8566	 1.1582	 0.7456	-0.2445	 0.5012	 0.9901	63.7135	99.9908	
    32	 0.8457	-0.0698	 0.7759	 0.9155	 1.0135	-0.1597	 0.8538	 1.1733	 0.7390	-0.2598	 0.4793	 0.9987	63.7118	99.9910	
    33	 0.8062	-0.0787	 0.7275	 0.8849	 0.9722	-0.1847	 0.7875	 1.1569	 0.7257	-0.2902	 0.4356	 1.0160	63.8362	99.9905	
    34	 0.8133	-0.0892	 0.7242	 0.9026	 0.9914	-0.1985	 0.7929	 1.1898	 0.7547	-0.2952	 0.4596	 1.0498	63.8800	99.9904	
    35	 0.8457	-0.0698	 0.7759	 0.9155	 1.0319	-0.1866	 0.8453	 1.2185	 0.8082	-0.2739	 0.5344	 1.0822	63.9244	99.9903	
    36	 0.9013	-0.0513	 0.8501	 0.9527	 1.0931	-0.1623	 0.9308	 1.2554	 0.8733	-0.2570	 0.6163	 1.1303	63.9679	99.9903	
    37	 0.9319	-0.0626	 0.8694	 0.9944	 1.1260	-0.1677	 0.9582	 1.2937	 0.8962	-0.2656	 0.6306	 1.1618	63.9679	99.9906	
    38	 0.9624	-0.0738	 0.8886	 1.0362	 1.1657	-0.1690	 0.9967	 1.3348	 0.9191	-0.2742	 0.6449	 1.1933	63.9679	99.9910	
    39	 0.9615	-0.0892	 0.8724	 1.0507	 1.1780	-0.1869	 0.9911	 1.3649	 0.9516	-0.3219	 0.6298	 1.2734	64.1753	99.9909	
    40	 0.9507	-0.1399	 0.8109	 1.0906	 1.1482	-0.2430	 0.9052	 1.3912	 0.9076	-0.3821	 0.5256	 1.2898	64.1713	99.9909	
    41	 0.9166	-0.1899	 0.7268	 1.1065	 1.1115	-0.3032	 0.8083	 1.4147	 0.8523	-0.4381	 0.4143	 1.2903	64.1679	99.9911	
    42	 0.8932	-0.1891	 0.7042	 1.0823	 1.1115	-0.3032	 0.8083	 1.4147	 0.8763	-0.4235	 0.4529	 1.2998	64.2133	99.9910	
    43	 1.0099	-0.1931	 0.8170	 1.2030	 1.2255	-0.2849	 0.9405	 1.5104	 1.0227	-0.4135	 0.6093	 1.4362	64.3011	99.9905	
    44	 1.0638	-0.2051	 0.8588	 1.2690	 1.2851	-0.2868	 0.9983	 1.5720	 1.0751	-0.4154	 0.6597	 1.4905	64.3024	99.9907	
    45	 1.0629	-0.2205	 0.8426	 1.2834	 1.3104	-0.3096	 1.0008	 1.6199	 1.0913	-0.4393	 0.6522	 1.5306	64.3855	99.9911	
    46	 1.0692	-0.2462	 0.8230	 1.3155	 1.3219	-0.3406	 0.9812	 1.6625	 1.0901	-0.4624	 0.6278	 1.5526	64.3849	99.9914	
    47	 1.0755	-0.2720	 0.8035	 1.3475	 1.2943	-0.3573	 0.9371	 1.6516	 1.0715	-0.4850	 0.5866	 1.5564	64.3418	99.9909	
    48	 1.0431	-0.2914	 0.7519	 1.3345	 1.2255	-0.3989	 0.8266	 1.6244	 0.9872	-0.5360	 0.4513	 1.5232	64.3357	99.9907	
    49	 1.0288	-0.2704	 0.7585	 1.2992	 1.2179	-0.4162	 0.8017	 1.6340	 0.9625	-0.5621	 0.4005	 1.5246	64.4571	99.9909	
    50	 1.1177	-0.2172	 0.9006	 1.3349	 1.3379	-0.4069	 0.9310	 1.7448	 1.0811	-0.5240	 0.5572	 1.6051	64.5849	99.9911	
    51	 1.1410	-0.2180	 0.9231	 1.3591	 1.2821	-0.3393	 0.9427	 1.6214	 1.1004	-0.3777	 0.7227	 1.4781	64.0548	99.9884	
    52	 1.3062	-0.0600	 1.2463	 1.3663	 1.5665	-0.1293	 1.4372	 1.6958	 1.4050	-0.1260	 1.2791	 1.5310	63.9954	99.9900	
    53	 1.7058	 0.2382	 1.9442	 1.4676	 2.0338	 0.1406	 2.1744	 1.8931	 1.7343	 0.1519	 1.8863	 1.5825	63.8789	99.9930	
    54	 1.9689	 0.6025	 2.5716	 1.3664	 2.2088	 0.5252	 2.7340	 1.6836	 1.9859	 0.5061	 2.4921	 1.4798	63.7264	99.9911	
    55	 2.2733	 0.8734	 3.1468	 1.4000	 2.2553	 0.7560	 3.0114	 1.4993	 2.0774	 0.5839	 2.6615	 1.4935	63.8691	99.9873	
    56	 2.1297	 0.8169	 2.9467	 1.3128	 2.2156	 0.6433	 2.8589	 1.5723	 1.8691	 0.5027	 2.3719	 1.3663	63.7756	99.9913	
    57	 1.8343	 0.6992	 2.5336	 1.1351	 2.0199	 0.4743	 2.4941	 1.5456	 1.6108	 0.3576	 1.9685	 1.2531	63.8921	99.9930	
    58	 1.5676	 0.5396	 2.1073	 1.0281	 1.7071	 0.2344	 1.9416	 1.4727	 1.2484	 0.0036	 1.2521	 1.2447	64.3638	99.9931	
    59	 0.9328	 0.2186	 1.1516	 0.7142	 1.0028	-0.1155	 0.8873	 1.1184	 0.6348	-0.3565	 0.2785	 0.9913	64.4740	99.9909	
    60	 0.9553	 0.3355	 1.2909	 0.6198	 1.0280	-0.0243	 1.0037	 1.0523	 0.7553	-0.2836	 0.4718	 1.0388	64.7741	99.9893	
    61	 0.9409	 0.0905	 1.0315	 0.8504	 1.0297	-0.3400	 0.6897	 1.3697	 0.5837	-0.5557	 0.0281	 1.1394	64.7192	99.9919	
    62	 0.6203	-0.3229	 0.2974	 0.9432	 0.7552	-0.7213	 0.0339	 1.4766	 0.1256	-0.9564	-0.8308	 1.0820	64.5311	99.9947	
    63	-0.0936	-0.7945	-0.8880	 0.7010	 0.1450	-1.0524	-0.9075	 1.1974	-0.3079	-1.2188	-1.5266	 0.9109	64.4144	99.9936	
    64	-0.0639	-0.8211	-0.8850	 0.7572	 0.2551	-0.9858	-0.7307	 1.2409	 0.0449	-1.1623	-1.1173	 1.2073	64.9022	99.9915	
    65	 0.0223	-0.8138	-0.7915	 0.8361	 0.4639	-0.9356	-0.4717	 1.3994	 0.3159	-1.1106	-0.7945	 1.4265	65.2048	99.9919	
    66	 0.0977	-0.8573	-0.7596	 0.9550	 0.5825	-0.9525	-0.3701	 1.5350	 0.4147	-1.1181	-0.7033	 1.5328	65.2071	99.9924	
    67	 0.0734	-0.8718	-0.7983	 0.9453	 0.5480	-0.9733	-0.4253	 1.5214	 0.4075	-1.1449	-0.7374	 1.5524	65.2900	99.9921	
    68	 0.1273	-0.8839	-0.7565	 1.0112	 0.5817	-0.9656	-0.3840	 1.5473	 0.4430	-1.1346	-0.6915	 1.5776	65.2075	99.9919	
    69	 0.1587	-0.8799	-0.7211	 1.0386	 0.5886	-0.9615	-0.3729	 1.5501	 0.4550	-1.1274	-0.6722	 1.5824	65.1657	99.9916	
    70	 0.2063	-0.8662	-0.6598	 1.0725	 0.6284	-0.9628	-0.3344	 1.5911	 0.4665	-1.1317	-0.6651	 1.5981	65.1644	99.9919	
    71	 0.2305	-0.8517	-0.6210	 1.0822	 0.6421	-0.9544	-0.3123	 1.5966	 0.5020	-1.1214	-0.6193	 1.6234	65.2065	99.9916	
    72	 0.2700	-0.8428	-0.5726	 1.1128	 0.6758	-0.9467	-0.2710	 1.6225	 0.5309	-1.1263	-0.5953	 1.6572	65.2476	99.9916	
    73	 0.3895	-0.8008	-0.4113	 1.1903	 0.7905	-0.9154	-0.1249	 1.7059	 0.6676	-1.0773	-0.4096	 1.7449	65.2912	99.9913	
    74	 0.6220	-0.6912	-0.0691	 1.3132	 1.0153	-0.8174	 0.1979	 1.8327	 0.9109	-0.9974	-0.0864	 1.9082	65.4586	99.9911	
    75	 0.8546	-0.5815	 0.2731	 1.4361	 1.2134	-0.7229	 0.4905	 1.9363	 1.1541	-0.9175	 0.2368	 2.0716	65.6252	99.9901	
    76	 1.0287	-0.5363	 0.4925	 1.5651	 1.3159	-0.6736	 0.6423	 1.9895	 1.2294	-0.8158	 0.4137	 2.0452	65.2545	99.9895	
    77	 1.0781	-0.4920	 0.5862	 1.5701	 1.4076	-0.5801	 0.8275	 1.9877	 1.3016	-0.6599	 0.6418	 1.9615	64.8900	99.9903	
    78	 1.4265	-0.1357	 1.2909	 1.5623	 1.7608	-0.2145	 1.5464	 1.9753	 1.6254	-0.2619	 1.3636	 1.8874	64.5718	99.9909	
    79	 1.9312	 0.3584	 2.2897	 1.5728	 2.2793	 0.1371	 2.4164	 2.1422	 2.0361	 0.0090	 2.0452	 2.0270	65.0183	99.9926	
    80	 1.9779	 0.3568	 2.3347	 1.6211	 2.1539	 0.1499	 2.3038	 2.0039	 1.8723	-0.0003	 1.8721	 1.8726	64.5980	99.9913	
    81	 1.8306	 0.3720	 2.2028	 1.4586	 2.1669	 0.1451	 2.3120	 2.0217	 1.8843	 0.0070	 1.8914	 1.8773	64.8917	99.9930	
    82	 1.8513	 0.1924	 2.0437	 1.6589	 1.9758	-0.1731	 1.8026	 2.1489	 1.5009	-0.5281	 0.9729	 2.0289	65.4451	99.9928	
    83	 0.8160	-0.4421	 0.3739	 1.2581	 0.9060	-0.8709	 0.0351	 1.7768	 0.4171	-1.1840	-0.7668	 1.6011	65.3888	99.9928	
    84	 0.4928	-0.3697	 0.1232	 0.8625	 0.7613	-0.7303	 0.0310	 1.4917	 0.4737	-0.9926	-0.5189	 1.4663	65.5700	99.9920	
    85	 1.0082	-0.0907	 0.9175	 1.0989	 1.2325	-0.6227	 0.6098	 1.8552	 0.7838	-0.8611	-0.0772	 1.6448	65.6936	99.9933	
    86	 0.7567	-0.5219	 0.2349	 1.2786	 0.9351	-0.9419	-0.0069	 1.8770	 0.4334	-1.2078	-0.7743	 1.6412	65.3917	99.9938	
    87	 0.1282	-1.0016	-0.8733	 1.1297	 0.3110	-1.2814	-0.9703	 1.5924	-0.1814	-1.4789	-1.6601	 1.2975	64.7054	99.9936	
    88	-0.0101	-1.0991	-1.1091	 1.0890	 0.3072	-1.2330	-0.9258	 1.5402	 0.2341	-1.4518	-1.2176	 1.6860	65.5332	99.9896	
    89	 0.1425	-1.0225	-0.8799	 1.1650	 0.5320	-1.1350	-0.6030	 1.6671	 0.5232	-1.3891	-0.8658	 1.9123	65.9112	99.9895	
    90	 0.1865	-1.0700	-0.8834	 1.2566	 0.7302	-1.1545	-0.4244	 1.8847	 0.6936	-1.3645	-0.6708	 2.0581	65.9956	99.9914	
    91	 0.2018	-1.0757	-0.8738	 1.2775	 0.7041	-1.1449	-0.4408	 1.8491	 0.6587	-1.3632	-0.7044	 2.0219	65.8715	99.9910	
    92	 0.2179	-1.0660	-0.8480	 1.2839	 0.7508	-1.1421	-0.3913	 1.8929	 0.7291	-1.3542	-0.6250	 2.0834	65.9958	99.9911	
    93	 0.2431	-1.0362	-0.7930	 1.2793	 0.7187	-1.1235	-0.4048	 1.8422	 0.6888	-1.3450	-0.6561	 2.0338	65.9127	99.9907	
    94	 0.2978	-1.0329	-0.7350	 1.3308	 0.7722	-1.1164	-0.3442	 1.8887	 0.7418	-1.3354	-0.5935	 2.0771	65.9129	99.9907	
    95	 0.3777	-0.9999	-0.6220	 1.3776	 0.8533	-1.0927	-0.2395	 1.9460	 0.8309	-1.3039	-0.4729	 2.1348	65.9544	99.9907	
    96	 0.5286	-0.9539	-0.4252	 1.4825	 1.0009	-1.0668	-0.0659	 2.0677	 0.9495	-1.2657	-0.3161	 2.2153	65.9545	99.9911	
    97	 0.6660	-0.8717	-0.2056	 1.5376	 1.1034	-1.0175	 0.0859	 2.1209	 1.0416	-1.1763	-0.1346	 2.2180	65.8311	99.9910	
    98	 0.9425	-0.6766	 0.2661	 1.6191	 1.4153	-0.7908	 0.6246	 2.2061	 1.4444	-0.9438	 0.5007	 2.3882	65.9570	99.9902	
    99	 1.2182	-0.6297	 0.5885	 1.8479	 1.6914	-0.7251	 0.9663	 2.4166	 1.5967	-0.8179	 0.7789	 2.4147	65.5087	99.9920	
   100	 1.6186	-0.3162	 1.3026	 1.9348	 2.1273	-0.4235	 1.7038	 2.5508	 1.9869	-0.4920	 1.4949	 2.4789	65.3911	99.9930	
   101	 2.1852	 0.1707	 2.3560	 2.0145	 2.6549	-0.0284	 2.6265	 2.6833	 2.4938	-0.1628	 2.3311	 2.6566	65.7163	99.9929	
   102	 2.2607	 0.2602	 2.5209	 2.0005	 2.5784	 0.0267	 2.6051	 2.5517	 2.3143	-0.1367	 2.1777	 2.4511	65.3441	99.9927	
   103	 2.1475	 0.3254	 2.4731	 1.8222	 2.5784	 0.0267	 2.6051	 2.5517	 2.1843	-0.1706	 2.0138	 2.3549	65.5457	99.9948	
   104	 2.1529	 0.1514	 2.3044	 2.0016	 2.4003	-0.2964	 2.1039	 2.6967	 1.8478	-0.6996	 1.1483	 2.5475	66.2434	99.9940	
   105	 1.2002	-0.4041	 0.7962	 1.6044	 1.4337	-0.8177	 0.6160	 2.2514	 1.0169	-1.0903	-0.0733	 2.1072	65.8641	99.9934	
   106	 1.3215	-0.0657	 1.2559	 1.3872	 1.6829	-0.4136	 1.2693	 2.0965	 1.4293	-0.6724	 0.7570	 2.1017	65.9944	99.9927	
   107	 2.0174	 0.2327	 2.2502	 1.7847	 2.2267	-0.3127	 1.9140	 2.5394	 1.7315	-0.5792	 1.1524	 2.3108	65.9917	99.9941	
   108	 1.5351	-0.2775	 1.2577	 1.8127	 1.6540	-0.6845	 0.9695	 2.3384	 1.1620	-0.9913	 0.1708	 2.1533	65.6088	99.9932	
   109	 0.7746	-0.7475	 0.0272	 1.5222	 0.9183	-1.1168	-0.1985	 2.0351	 0.2793	-1.3684	-1.0890	 1.6477	64.9577	99.9947	
   110	 0.3436	-0.9169	-0.5731	 1.2605	 0.7508	-1.1421	-0.3913	 1.8929	 0.5713	-1.3600	-0.7885	 1.9313	65.8679	99.9921	
   111	 0.6408	-0.9015	-0.2606	 1.5423	 0.9948	-1.0578	-0.0631	 2.0526	 0.9760	-1.3170	-0.3409	 2.2931	66.1603	99.9894	
   112	 0.4729	-1.1054	-0.6324	 1.5783	 1.0935	-1.1881	-0.0947	 2.2816	 1.0598	-1.3898	-0.3299	 2.4495	66.3246	99.9920	
   113	 0.3544	-1.1320	-0.7775	 1.4864	 0.9321	-1.2224	-0.2903	 2.1545	 0.8424	-1.4204	-0.5779	 2.2627	66.0781	99.9922	
   114	 0.3167	-1.1103	-0.7935	 1.4270	 0.9810	-1.1801	-0.1991	 2.1612	 0.9568	-1.3511	-0.3943	 2.3079	66.2017	99.9924	
   115	 0.4190	-1.0933	-0.6742	 1.5124	 1.0545	-1.1737	-0.1193	 2.2282	 0.9796	-1.3597	-0.3800	 2.3394	66.1607	99.9925	
   116	 0.3732	-1.0764	-0.7031	 1.4497	 0.9826	-1.1539	-0.1713	 2.1365	 0.9176	-1.3187	-0.4010	 2.2363	65.9966	99.9924	
   117	 0.4298	-1.0426	-0.6126	 1.4724	 1.0307	-1.1248	-0.0940	 2.1555	 0.9718	-1.2859	-0.3140	 2.2577	65.9967	99.9924	
   118	 0.4945	-1.0039	-0.5093	 1.4983	 1.0843	-1.1177	-0.0334	 2.2020	 1.0145	-1.2488	-0.2342	 2.2634	65.9557	99.9926	
   119	 0.6004	-0.9257	-0.3251	 1.5261	 1.1699	-1.0152	 0.1547	 2.1852	 1.1145	-1.1210	-0.0065	 2.2355	65.7520	99.9923	
   120	 0.8509	-0.7757	 0.0753	 1.6267	 1.4169	-0.8785	 0.5384	 2.2954	 1.3986	-0.9266	 0.4721	 2.3252	65.6732	99.9917	
   121	 1.2119	-0.6040	 0.6080	 1.8159	 1.8008	-0.6717	 1.1291	 2.4725	 1.7557	-0.7890	 0.9668	 2.5448	65.8371	99.9924	
   122	 1.5477	-0.4620	 1.0857	 2.0097	 2.1426	-0.5029	 1.6397	 2.6456	 2.0369	-0.5403	 1.4966	 2.5772	65.3954	99.9934	
   123	 2.1349	-0.0219	 2.1131	 2.1568	 2.7353	-0.1318	 2.6035	 2.8671	 2.5522	-0.1611	 2.3912	 2.7133	65.3987	99.9944	
   124	 2.7383	 0.4279	 3.1664	 2.3104	 3.1237	 0.1538	 3.2775	 2.9699	 2.8497	-0.0484	 2.8014	 2.8981	65.8768	99.9935	
   125	 2.3307	 0.3907	 2.7215	 1.9400	 2.7857	 0.0507	 2.8364	 2.7350	 2.3541	-0.2698	 2.0845	 2.6239	66.1606	99.9943	
   126	 1.7103	 0.0489	 1.7593	 1.6614	 2.1770	-0.3681	 1.8089	 2.5451	 1.6973	-0.6785	 1.0188	 2.3758	66.2848	99.9951	
   127	 1.2649	-0.2325	 1.0325	 1.4974	 1.6754	-0.6589	 1.0165	 2.3342	 1.2475	-0.9171	 0.3305	 2.1646	66.1179	99.9950	
   128	 1.7570	 0.1802	 1.9373	 1.5768	 2.1242	-0.2481	 1.8761	 2.3722	 1.7707	-0.4995	 1.2713	 2.2701	66.0773	99.9940	
   129	 2.2840	 0.2594	 2.5435	 2.0246	 2.4087	-0.2660	 2.1427	 2.6747	 1.7869	-0.5233	 1.2638	 2.3102	65.5273	99.9949	
   130	 1.6231	-0.2396	 1.3836	 1.8628	 1.7121	-0.7127	 0.9994	 2.4247	 0.9693	-0.9957	-0.0263	 1.9650	65.1314	99.9954	
   131	 0.5439	-0.6936	-0.1496	 1.2375	 0.7798	-0.9852	-0.2054	 1.7650	 0.2256	-1.1652	-0.9395	 1.3908	64.6297	99.9947	
   132	 0.4101	-0.7146	-0.3044	 1.1248	 0.9427	-0.9246	 0.0181	 1.8673	 0.7314	-1.0835	-0.3520	 1.8150	65.6636	99.9937	
   133	 0.8689	-0.6025	 0.2666	 1.4714	 1.4780	-0.7402	 0.7378	 2.2183	 1.3583	-0.9174	 0.4410	 2.2756	65.9974	99.9931	
   134	 0.9380	-0.6202	 0.3180	 1.5582	 1.5714	-0.7344	 0.8369	 2.3058	 1.3944	-0.8955	 0.4990	 2.2899	65.8341	99.9937	
   135	 0.8213	-0.6162	 0.2053	 1.4375	 1.5270	-0.6979	 0.8290	 2.2249	 1.4094	-0.8303	 0.5793	 2.2397	65.8360	99.9937	
   136	 0.8222	-0.6009	 0.2215	 1.4231	 1.5599	-0.7034	 0.8565	 2.2633	 1.4269	-0.8309	 0.5961	 2.2578	65.9174	99.9941	
   137	 0.7603	-0.5936	 0.1668	 1.3539	 1.4474	-0.6954	 0.7521	 2.1428	 1.2854	-0.8605	 0.4250	 2.1459	65.8345	99.9937	
   138	 0.7378	-0.5775	 0.1604	 1.3154	 1.4214	-0.6858	 0.7357	 2.1072	 1.2637	-0.8287	 0.4351	 2.0924	65.7531	99.9939	
   139	 0.7387	-0.5622	 0.1766	 1.3010	 1.3832	-0.6582	 0.7249	 2.0414	 1.2240	-0.8079	 0.4162	 2.0318	65.6301	99.9936	
   140	 0.8034	-0.5235	 0.2800	 1.3269	 1.4788	-0.6131	 0.8657	 2.0919	 1.3263	-0.7459	 0.5805	 2.0722	65.6317	99.9938	
   141	 0.8833	-0.4905	 0.3929	 1.3738	 1.5407	-0.5756	 0.9651	 2.1163	 1.3925	-0.7059	 0.6868	 2.0984	65.5914	99.9937	
   142	 0.9013	-0.4502	 0.4512	 1.3514	 1.5430	-0.5362	 1.0067	 2.0792	 1.3775	-0.6589	 0.7187	 2.0363	65.4689	99.9938	
   143	 0.9031	-0.4195	 0.4836	 1.3226	 1.5254	-0.4962	 1.0292	 2.0216	 1.3732	-0.6278	 0.7456	 2.0010	65.4282	99.9935	
   144	 0.8968	-0.3938	 0.5031	 1.2906	 1.5139	-0.4652	 1.0487	 1.9791	 1.3516	-0.5960	 0.7557	 1.9475	65.3465	99.9935	
   145	 0.8824	-0.3728	 0.5097	 1.2553	 1.5016	-0.4472	 1.0544	 1.9489	 1.3124	-0.5636	 0.7489	 1.8760	65.2238	99.9938	
   146	 0.8681	-0.3519	 0.5163	 1.2199	 1.4703	-0.4155	 1.0547	 1.8858	 1.2907	-0.5318	 0.7590	 1.8225	65.1423	99.9936	
   147	 0.8860	-0.3116	 0.5746	 1.1976	 1.5315	-0.3912	 1.1402	 1.9227	 1.3401	-0.4795	 0.8607	 1.8196	65.1444	99.9942	
   148	 0.9740	-0.2737	 0.7004	 1.2477	 1.6079	-0.3323	 1.2756	 1.9402	 1.4244	-0.4285	 0.9960	 1.8529	65.1051	99.9939	
   149	 1.0081	-0.2237	 0.7845	 1.2319	 1.6308	-0.2804	 1.3504	 1.9113	 1.4557	-0.3871	 1.0687	 1.8428	65.1055	99.9937	
   150	 1.0261	-0.1834	 0.8428	 1.2095	 1.6530	-0.2417	 1.4113	 1.8947	 1.4466	-0.3365	 1.1102	 1.7831	64.9833	99.9940	
   151	 1.0135	-0.1318	 0.8818	 1.1454	 1.6423	-0.1975	 1.4448	 1.8398	 1.4309	-0.3011	 1.1300	 1.7320	64.9830	99.9940	
   152	 1.0082	-0.0907	 0.9175	 1.0989	 1.6316	-0.1533	 1.4783	 1.7849	 1.4044	-0.2498	 1.1547	 1.6542	64.8607	99.9941	
   153	 1.0028	-0.0497	 0.9532	 1.0525	 1.6270	-0.1181	 1.5089	 1.7450	 1.3719	-0.2021	 1.1698	 1.5740	64.7379	99.9944	
   154	 0.9974	-0.0086	 0.9889	 1.0060	 1.6170	-0.0608	 1.5562	 1.6778	 1.3803	-0.1522	 1.2282	 1.5325	64.6987	99.9942	
   155	 1.0863	 0.0446	 1.1311	 1.0417	 1.7325	-0.0163	 1.7162	 1.7487	 1.4658	-0.0780	 1.3879	 1.5438	64.6201	99.9948	
   156	 1.1366	 0.1043	 1.2410	 1.0323	 1.7952	 0.0343	 1.8295	 1.7608	 1.4983	-0.0134	 1.4850	 1.5117	64.5396	99.9951	
   157	 1.1617	 0.1341	 1.2959	 1.0276	 1.7913	 0.0827	 1.8740	 1.7087	 1.5001	 0.0213	 1.5215	 1.4788	64.4580	99.9947	
   158	 1.1564	 0.1752	 1.3317	 0.9812	 1.7936	 0.1221	 1.9157	 1.6715	 1.4850	 0.0683	 1.5534	 1.4167	64.3769	99.9949	
   159	 1.1276	 0.2171	 1.3448	 0.9106	 1.7821	 0.1531	 1.9352	 1.6290	 1.4633	 0.1001	 1.5635	 1.3633	64.3769	99.9951	
   160	 1.1214	 0.2429	 1.3643	 0.8785	 1.7576	 0.1890	 1.9466	 1.5687	 1.4193	 0.1520	 1.5715	 1.2673	64.1730	99.9952	
   161	 1.0998	 0.2743	 1.3742	 0.8255	 1.7270	 0.2338	 1.9608	 1.4932	 1.3868	 0.1996	 1.5866	 1.1872	64.0514	99.9951	
   162	 1.1268	 0.3347	 1.4616	 0.7920	 1.7966	 0.2885	 2.0851	 1.5080	 1.4717	 0.2622	 1.7340	 1.2095	64.1384	99.9953	
   163	 1.1923	 0.3887	 1.5812	 0.8036	 1.8593	 0.3391	 2.1984	 1.5202	 1.5265	 0.3066	 1.8332	 1.2199	64.1391	99.9953	
   164	 1.2094	 0.4137	 1.6232	 0.7957	 1.8608	 0.3654	 2.2262	 1.4954	 1.5223	 0.3377	 1.8601	 1.1845	64.0576	99.9953	
   165	 1.1797	 0.4403	 1.6202	 0.7395	 1.8424	 0.3923	 2.2347	 1.4502	 1.4777	 0.3781	 1.8559	 1.0996	63.9356	99.9955	
   166	 1.1501	 0.4669	 1.6171	 0.6832	 1.8241	 0.4192	 2.2433	 1.4049	 1.4440	 0.4026	 1.8466	 1.0414	63.8944	99.9955	
   167	 1.1205	 0.4935	 1.6141	 0.6270	 1.7919	 0.4378	 2.2297	 1.3542	 1.3934	 0.4393	 1.8327	 0.9541	63.7716	99.9958	
   168	 1.0837	 0.5305	 1.6143	 0.5532	 1.7545	 0.4784	 2.2329	 1.2760	 1.3542	 0.4717	 1.8260	 0.8825	63.7303	99.9957	
   169	 1.0693	 0.5515	 1.6209	 0.5179	 1.7368	 0.5184	 2.2553	 1.2184	 1.3391	 0.5187	 1.8579	 0.8205	63.6105	99.9956	
   170	 1.1340	 0.5902	 1.7243	 0.5438	 1.8187	 0.5553	 2.3739	 1.2634	 1.4054	 0.5587	 1.9642	 0.8466	63.6130	99.9957	
   171	 1.1358	 0.6208	 1.7567	 0.5150	 1.8202	 0.5815	 2.4017	 1.2387	 1.4011	 0.5899	 1.9911	 0.8113	63.5726	99.9958	
   172	 1.1133	 0.6369	 1.7503	 0.4765	 1.8011	 0.5953	 2.3963	 1.2058	 1.3554	 0.6070	 1.9625	 0.7483	63.4892	99.9959	
   173	 1.0676	 0.6538	 1.7215	 0.4138	 1.7621	 0.6097	 2.3717	 1.1524	 1.2927	 0.6365	 1.9293	 0.6563	63.3661	99.9961	
   174	 1.0227	 0.6860	 1.7088	 0.3367	 1.7368	 0.6324	 2.3692	 1.1044	 1.2301	 0.6659	 1.8960	 0.5642	63.2824	99.9962	
   175	 0.9850	 0.7078	 1.6928	 0.2772	 1.7047	 0.6510	 2.3557	 1.0537	 1.1795	 0.7026	 1.8822	 0.4769	63.1599	99.9965	
   176	 0.9473	 0.7295	 1.6769	 0.2178	 1.6534	 0.6833	 2.3367	 0.9701	 1.1229	 0.7356	 1.8586	 0.3872	63.0363	99.9964	
   177	 0.9491	 0.7601	 1.7093	 0.1890	 1.6756	 0.7221	 2.3976	 0.9535	 1.1481	 0.7734	 1.9216	 0.3747	63.0404	99.9963	
   178	 0.9590	 0.7956	 1.7546	 0.1634	 1.6840	 0.7525	 2.4365	 0.9315	 1.1614	 0.8038	 1.9653	 0.3575	63.0414	99.9963	
   179	 0.9293	 0.8222	 1.7516	 0.1072	 1.6457	 0.7800	 2.4257	 0.8657	 1.1048	 0.8369	 1.9418	 0.2678	62.9169	99.9964	
   180	 0.8835	 0.8391	 1.7227	 0.0445	 1.5937	 0.7992	 2.3929	 0.7945	 1.0361	 0.8627	 1.8989	 0.1734	62.7921	99.9964	
   181	 0.8306	 0.8665	 1.6971	-0.0359	 1.5547	 0.8136	 2.3683	 0.7411	 0.9903	 0.8799	 1.8703	 0.1104	62.7910	99.9966	
   182	 0.7848	 0.8834	 1.6683	-0.0985	 1.4904	 0.8508	 2.3412	 0.6396	 0.9162	 0.9136	 1.8299	 0.0026	62.6254	99.9963	
   183	 0.7318	 0.9107	 1.6427	-0.1789	 1.4315	 0.8658	 2.2973	 0.5657	 0.8416	 0.9357	 1.7774	-0.0942	62.5395	99.9965	
   184	 0.6941	 0.9325	 1.6267	-0.2383	 1.4001	 0.8975	 2.2977	 0.5026	 0.7915	 0.9840	 1.7757	-0.1925	62.3770	99.9966	
   185	 0.7121	 0.9728	 1.6850	-0.2607	 1.4476	 0.9135	 2.3611	 0.5340	 0.8223	 1.0138	 1.8362	-0.1916	62.4201	99.9969	
   186	 0.6906	 1.0042	 1.6948	-0.3136	 1.3971	 0.9590	 2.3561	 0.4381	 0.7771	 1.0426	 1.8198	-0.2655	62.3352	99.9966	
   187	 0.6600	 1.0155	 1.6756	-0.3554	 1.3519	 0.9824	 2.3343	 0.3696	 0.7090	 1.0799	 1.7891	-0.3709	62.1281	99.9966	
   188	 0.6151	 1.0477	 1.6629	-0.4325	 1.3068	 1.0057	 2.3125	 0.3011	 0.6578	 1.1051	 1.7630	-0.4472	62.0848	99.9967	
   189	 0.5622	 1.0751	 1.6373	-0.5129	 1.2486	 1.0339	 2.2825	 0.2147	 0.5837	 1.1388	 1.7226	-0.5550	61.9586	99.9968	
   190	 0.5092	 1.1024	 1.6118	-0.5932	 1.1974	 1.0662	 2.2636	 0.1311	 0.5325	 1.1639	 1.6965	-0.6314	61.9165	99.9966	
   191	 0.4562	 1.1298	 1.5862	-0.6736	 1.1331	 1.1034	 2.2365	 0.0297	 0.4645	 1.2013	 1.6658	-0.7368	61.7914	99.9965	
   192	 0.4509	 1.1709	 1.6219	-0.7200	 1.1675	 1.1242	 2.2917	 0.0433	 0.4675	 1.2592	 1.7267	-0.7917	61.7143	99.9971	
   193	 0.4760	 1.2007	 1.6768	-0.7247	 1.1568	 1.1684	 2.3252	-0.0116	 0.4632	 1.2903	 1.7536	-0.8271	61.6299	99.9968	
   194	 0.4159	 1.2386	 1.6546	-0.8227	 1.0994	 1.2097	 2.3091	-0.1103	 0.3897	 1.3356	 1.7254	-0.9458	61.5046	99.9968	
   195	 0.3710	 1.2708	 1.6419	-0.8998	 1.0673	 1.2282	 2.2955	-0.1610	 0.3331	 1.3687	 1.7019	-1.0355	61.4200	99.9970	
   196	 0.3333	 1.2925	 1.6259	-0.9592	 1.0099	 1.2695	 2.2795	-0.2596	 0.2651	 1.4060	 1.6712	-1.1409	61.2521	99.9967	
   197	 0.2884	 1.3248	 1.6133	-1.0363	 0.9586	 1.3019	 2.2605	-0.3432	 0.2084	 1.4391	 1.6476	-1.2306	61.1672	99.9967	
   198	 0.2283	 1.3626	 1.5910	-1.1343	 0.9204	 1.3294	 2.2498	-0.4090	 0.1350	 1.4844	 1.6194	-1.3494	61.0414	99.9969	
   199	 0.2148	 1.3989	 1.6138	-1.1841	 0.8967	 1.3784	 2.2751	-0.4817	 0.1319	 1.5387	 1.6707	-1.4067	60.9647	99.9969	
   200	 0.2399	 1.4287	 1.6687	-1.1887	 0.9181	 1.4040	 2.3221	-0.4860	 0.1337	 1.5734	 1.7072	-1.4397	60.8814	99.9971	
   201	 0.2031	 1.4657	 1.6690	-1.2626	 0.8737	 1.4405	 2.3142	-0.5668	 0.0663	 1.6223	 1.6887	-1.5561	60.7127	99.9972	
   202	 0.1502	 1.4931	 1.6434	-1.3429	 0.8163	 1.4818	 2.2981	-0.6655	 0.0151	 1.6475	 1.6626	-1.6324	60.6701	99.9968	
   203	 0.1125	 1.5149	 1.6274	-1.4024	 0.7712	 1.5052	 2.2764	-0.7340	-0.0416	 1.6805	 1.6391	-1.7221	60.5438	99.9969	
   204	 0.0676	 1.5471	 1.6148	-1.4795	 0.7138	 1.5465	 2.2603	-0.8327	-0.1096	 1.7179	 1.6084	-1.8275	60.4155	99.9967	
   205	 0.0227	 1.5793	 1.6021	-1.5566	 0.6625	 1.5788	 2.2414	-0.9163	-0.1717	 1.7589	 1.5873	-1.9306	60.2889	99.9968	
   206	-0.0060	 1.6212	 1.6153	-1.6272	 0.6449	 1.6188	 2.2638	-0.9739	-0.1807	 1.8095	 1.6289	-1.9902	60.2537	99.9970	
   207	 0.0119	 1.6615	 1.6735	-1.6495	 0.6610	 1.6666	 2.3275	-1.0056	-0.1609	 1.8552	 1.6945	-2.0161	60.2167	99.9969	
   208	-0.0096	 1.6929	 1.6834	-1.7025	 0.6365	 1.7024	 2.3389	-1.0659	-0.2054	 1.8956	 1.6902	-2.1010	60.0901	99.9968	
   209	-0.0383	 1.7348	 1.6966	-1.7731	 0.6181	 1.7293	 2.3474	-1.1112	-0.2319	 1.9469	 1.7150	-2.1788	60.0103	99.9973	
   210	-0.0527	 1.7557	 1.7032	-1.8084	 0.5806	 1.7700	 2.3506	-1.1894	-0.2825	 1.9836	 1.7011	-2.2661	59.8406	99.9970	
   211	-0.0823	 1.7823	 1.7001	-1.8646	 0.5362	 1.8065	 2.3427	-1.2702	-0.3325	 2.0319	 1.6994	-2.3644	59.6748	99.9971	
   212	-0.1101	 1.8395	 1.7295	-1.9496	 0.5263	 1.8638	 2.3900	-1.3375	-0.3464	 2.1020	 1.7557	-2.4484	59.5994	99.9972	
   213	-0.0984	 1.9056	 1.8073	-2.0040	 0.5698	 1.9281	 2.4980	-1.3583	-0.2844	 2.1732	 1.8889	-2.4576	59.6573	99.9973	
   214	-0.0176	 1.9540	 1.9364	-1.9716	 0.6402	 1.9960	 2.6362	-1.3558	-0.2278	 2.2523	 2.0246	-2.4802	59.5007	99.9972	
   215	-0.0059	 2.0200	 2.0142	-2.0260	 0.6700	 2.0521	 2.7220	-1.3821	-0.2176	 2.3371	 2.1195	-2.5547	59.3851	99.9976	
   216	 0.0291	 2.0853	 2.1145	-2.0562	 0.6944	 2.1302	 2.8246	-1.4357	-0.1906	 2.4096	 2.2191	-2.6001	59.3082	99.9974	
   217	 0.0174	 2.1522	 2.1697	-2.1348	 0.6845	 2.1875	 2.8720	-1.5030	-0.2171	 2.4608	 2.2439	-2.6779	59.2630	99.9973	
   218	-0.0032	 2.1989	 2.1958	-2.2021	 0.6539	 2.2323	 2.8862	-1.5785	-0.2550	 2.5164	 2.2615	-2.7714	59.1387	99.9975	
   219	-0.0158	 2.2505	 2.2348	-2.2663	 0.6240	 2.2903	 2.9143	-1.6663	-0.2930	 2.5720	 2.2791	-2.8650	59.0120	99.9974	
   220	-0.0364	 2.2972	 2.2609	-2.3336	 0.6072	 2.3434	 2.9506	-1.7363	-0.3183	 2.6464	 2.3282	-2.9648	58.8540	99.9976	
   221	 0.0130	 2.3416	 2.3546	-2.3286	 0.6568	 2.3988	 3.0557	-1.7420	-0.2689	 2.6988	 2.4299	-2.9677	58.8204	99.9974	
   222	 0.0390	 2.3867	 2.4258	-2.3477	 0.6729	 2.4465	 3.1194	-1.7736	-0.2599	 2.7603	 2.5005	-3.0203	58.7010	99.9976	
   223	 0.0345	 2.4431	 2.4777	-2.4085	 0.6568	 2.5128	 3.1696	-1.8560	-0.2853	 2.8348	 2.5496	-3.1200	58.5385	99.9976	
   224	 0.0444	 2.4786	 2.5231	-2.4341	 0.6598	 2.5653	 3.2251	-1.9055	-0.2654	 2.8805	 2.6152	-3.1459	58.5054	99.9975	
   225	 0.0390	 2.5196	 2.5588	-2.4806	 0.6491	 2.6095	 3.2586	-1.9604	-0.2979	 2.9281	 2.6303	-3.2260	58.3786	99.9974	
   226	-0.0211	 2.5575	 2.5365	-2.5786	 0.6101	 2.6239	 3.2340	-2.0138	-0.3774	 2.9698	 2.5924	-3.3472	58.2492	99.9977	
   227	-0.0427	 2.5889	 2.5464	-2.6315	 0.5802	 2.6818	 3.2621	-2.1016	-0.3744	 3.0277	 2.6533	-3.4021	58.1809	99.9976	
   228	 0.0139	 2.6228	 2.6368	-2.6088	 0.6292	 2.7241	 3.3533	-2.0949	-0.3317	 3.0648	 2.7332	-3.3965	58.1429	99.9975	
   229	 0.0157	 2.6534	 2.6692	-2.6377	 0.6177	 2.7552	 3.3729	-2.1375	-0.3534	 3.0965	 2.7432	-3.4499	58.0566	99.9975	
   230	-0.0372	 2.6808	 2.6436	-2.7180	 0.5534	 2.7923	 3.3457	-2.2389	-0.4160	 3.1259	 2.7100	-3.5420	57.9702	99.9973	
   231	-0.0741	 2.7178	 2.6439	-2.7919	 0.5159	 2.8330	 3.3489	-2.3170	-0.4431	 3.1656	 2.7226	-3.6088	57.9323	99.9973	
   232	-0.0875	 2.7541	 2.6667	-2.8416	 0.4853	 2.8778	 3.3631	-2.3925	-0.4811	 3.2212	 2.7402	-3.7023	57.7674	99.9974	
   233	-0.1019	 2.7750	 2.6733	-2.8769	 0.4608	 2.9136	 3.3745	-2.4528	-0.5311	 3.2695	 2.7385	-3.8006	57.5590	99.9973	
   234	-0.1468	 2.8072	 2.6606	-2.9540	 0.4295	 2.9453	 3.3748	-2.5159	-0.5353	 3.3006	 2.7654	-3.8360	57.6106	99.9974	
   235	-0.1297	 2.8322	 2.7026	-2.9619	 0.4577	 2.9751	 3.4329	-2.5174	-0.5046	 3.3304	 2.8259	-3.8351	57.6189	99.9973	
   236	-0.1369	 2.8427	 2.7059	-2.9796	 0.4394	 3.0020	 3.4414	-2.5626	-0.5438	 3.3628	 2.8192	-3.9066	57.4513	99.9971	
   237	-0.1907	 2.8548	 2.6641	-3.0455	 0.3744	 3.0260	 3.4004	-2.6517	-0.5902	 3.3684	 2.7784	-3.9586	57.4485	99.9968	
   238	-0.2608	 2.8572	 2.5965	-3.1179	 0.3269	 3.0100	 3.3370	-2.6831	-0.6546	 3.3631	 2.7086	-4.0177	57.4429	99.9970	
   239	-0.2931	 2.8378	 2.5448	-3.1309	 0.2673	 3.0119	 3.2792	-2.7447	-0.7070	 3.3651	 2.6582	-4.0721	57.3155	99.9969	
   240	-0.3550	 2.8450	 2.4901	-3.2001	 0.2137	 3.0049	 3.2186	-2.7912	-0.7835	 3.3524	 2.5691	-4.1359	57.3012	99.9968	
   241	-0.4179	 2.8370	 2.4192	-3.2548	 0.1464	 2.9895	 3.1360	-2.8431	-0.8539	 3.3435	 2.4897	-4.1974	57.2519	99.9970	
   242	-0.4340	 2.8273	 2.3933	-3.2613	 0.1464	 2.9895	 3.1360	-2.8431	-0.8250	 3.3385	 2.5136	-4.1635	57.3475	99.9969	
   243	-0.4098	 2.8418	 2.4321	-3.2516	 0.1724	 2.9799	 3.1524	-2.8075	-0.8250	 3.3385	 2.5136	-4.1635	57.3389	99.9972	
   244	-0.4565	 2.8434	 2.3870	-3.2999	 0.1067	 2.9908	 3.0975	-2.8841	-0.9117	 3.3534	 2.4417	-4.2651	57.1618	99.9971	
   245	-0.4879	 2.8394	 2.3515	-3.3273	 0.0539	 2.9969	 3.0508	-2.9430	-0.9587	 3.3474	 2.3888	-4.3061	57.1122	99.9969	
   246	-0.5265	 2.8458	 2.3194	-3.3723	 0.0080	 3.0071	 3.0151	-2.9991	-1.0171	 3.3457	 2.3287	-4.3628	57.0596	99.9966	
   247	-0.5732	 2.8474	 2.2743	-3.4206	-0.0326	 2.9953	 2.9627	-3.0278	-1.0641	 3.3397	 2.2757	-4.4038	57.0537	99.9968	
   248	-0.6118	 2.8538	 2.2421	-3.4656	-0.0662	 2.9876	 2.9214	-3.0538	-1.1159	 3.3533	 2.2375	-4.4691	56.9661	99.9972	
   249	-0.6351	 2.8546	 2.2196	-3.4898	-0.0792	 2.9924	 2.9132	-3.0716	-1.1219	 3.3496	 2.2278	-4.4715	57.0099	99.9970	
   250	-0.5885	 2.8530	 2.2647	-3.4415	-0.0509	 3.0222	 2.9713	-3.0731	-1.0978	 3.3642	 2.2665	-4.4620	56.9282	99.9963	
   251	-0.5885	 2.8530	 2.2647	-3.4415	-0.0647	 3.0138	 2.9492	-3.0785	-1.1273	 3.3575	 2.2303	-4.4849	56.8753	99.9964	
   252	-0.6361	 2.8393	 2.2034	-3.4753	-0.1190	 2.9937	 2.8747	-3.1127	-1.1984	 3.3370	 2.1387	-4.5354	56.8192	99.9964	
   253	-0.7222	 2.8320	 2.1099	-3.5543	-0.1932	 2.9741	 2.7810	-3.1673	-1.2700	 3.3048	 2.0349	-4.5749	56.8920	99.9963	
   254	-0.7860	 2.8086	 2.0228	-3.5946	-0.2612	 2.9456	 2.6844	-3.2069	-1.3525	 3.2886	 1.9361	-4.6411	56.7978	99.9965	
   255	-0.8794	 2.8118	 1.9326	-3.6912	-0.3408	 2.9482	 2.6074	-3.2890	-1.4338	 3.2955	 1.8618	-4.7293	56.7537	99.9965	
   256	-0.9332	 2.8239	 1.8908	-3.7571	-0.3798	 2.9626	 2.5828	-3.3424	-1.4736	 3.3163	 1.8428	-4.7899	56.7157	99.9965	
   257	-0.8937	 2.8328	 1.9392	-3.7265	-0.3454	 2.9834	 2.6380	-3.3288	-1.4200	 3.3375	 1.9176	-4.7575	56.7281	99.9965	
   258	-0.9000	 2.8586	 1.9587	-3.7585	-0.3569	 3.0145	 2.6576	-3.3713	-1.4369	 3.3498	 1.9130	-4.7866	56.7219	99.9960	
   259	-0.9305	 2.8698	 1.9394	-3.8003	-0.3898	 3.0199	 2.6302	-3.4097	-1.4766	 3.3706	 1.8941	-4.8472	56.6368	99.9964	
   260	-0.9458	 2.8755	 1.9298	-3.8212	-0.4219	 3.0385	 2.6166	-3.4604	-1.5001	 3.3676	 1.8676	-4.8677	56.6305	99.9959	
   261	-0.9916	 2.8924	 1.9009	-3.8839	-0.4548	 3.0439	 2.5891	-3.4987	-1.5453	 3.3964	 1.8512	-4.9416	56.5484	99.9964	
   262	-1.0059	 2.9133	 1.9075	-3.9192	-0.4854	 3.0887	 2.6033	-3.5741	-1.5784	 3.4324	 1.8541	-5.0108	56.4221	99.9959	
   263	-1.0445	 2.9198	 1.8753	-3.9643	-0.5122	 3.0852	 2.5731	-3.5974	-1.6133	 3.4337	 1.8205	-5.0471	56.4189	99.9960	
   264	-1.0122	 2.9391	 1.9270	-3.9513	-0.4770	 3.1192	 2.6422	-3.5962	-1.5483	 3.4506	 1.9024	-4.9990	56.5169	99.9957	
   265	-0.9727	 2.9480	 1.9754	-3.9207	-0.4502	 3.1227	 2.6725	-3.5729	-1.5417	 3.4659	 1.9243	-5.0076	56.4285	99.9959	
   266	-1.0032	 2.9593	 1.9561	-3.9625	-0.4762	 3.1323	 2.6561	-3.6085	-1.5646	 3.4745	 1.9100	-5.0390	56.4285	99.9959	
   267	-1.0113	 2.9544	 1.9432	-3.9657	-0.4831	 3.1281	 2.6450	-3.6113	-1.5766	 3.4672	 1.8907	-5.0438	56.4253	99.9958	
   268	-1.0266	 2.9601	 1.9336	-3.9866	-0.5022	 3.1419	 2.6397	-3.6441	-1.6110	 3.4801	 1.8692	-5.0910	56.3368	99.9955	
   269	-1.0652	 2.9665	 1.9014	-4.0316	-0.5298	 3.1252	 2.5955	-3.6550	-1.6356	 3.4539	 1.8184	-5.0895	56.4536	99.9956	
   270	-1.0894	 2.9520	 1.8627	-4.0414	-0.5642	 3.1044	 2.5402	-3.6686	-1.6832	 3.4363	 1.7532	-5.1195	56.3997	99.9957	
   271	-1.1128	 2.9528	 1.8401	-4.0655	-0.5711	 3.1003	 2.5292	-3.6713	-1.6772	 3.4400	 1.7629	-5.1172	56.4505	99.9960	
   272	-1.0589	 2.9407	 1.8819	-3.9996	-0.5183	 3.0942	 2.5759	-3.6125	-1.6254	 3.4264	 1.8012	-5.0518	56.4947	99.9957	
   273	-1.0670	 2.9359	 1.8690	-4.0028	-0.5321	 3.0859	 2.5538	-3.6179	-1.6320	 3.4112	 1.7793	-5.0432	56.5327	99.9958	
   274	-1.0984	 2.9318	 1.8335	-4.0302	-0.5596	 3.0692	 2.5096	-3.6288	-1.6615	 3.4046	 1.7432	-5.0661	56.5295	99.9961	
   275	-1.1217	 2.9326	 1.8110	-4.0543	-0.5726	 3.0740	 2.5014	-3.6466	-1.6844	 3.4132	 1.7289	-5.0976	56.4884	99.9959	
   276	-1.1370	 2.9383	 1.8014	-4.0752	-0.6108	 3.1016	 2.4907	-3.7124	-1.6958	 3.4175	 1.7217	-5.1133	56.4884	99.9955	
   277	-1.1451	 2.9334	 1.7884	-4.0785	-0.6185	 3.0843	 2.4658	-3.7027	-1.7079	 3.4102	 1.7024	-5.1181	56.4852	99.9959	
   278	-1.1837	 2.9399	 1.7563	-4.1235	-0.6453	 3.0807	 2.4355	-3.7260	-1.7428	 3.4115	 1.6688	-5.1543	56.4820	99.9960	
   279	-1.1684	 2.9342	 1.7659	-4.1026	-0.6254	 3.0801	 2.4547	-3.7055	-1.7133	 3.4181	 1.7049	-5.1314	56.4916	99.9961	
   280	-1.1137	 2.9375	 1.8239	-4.0511	-0.5649	 3.0913	 2.5264	-3.6563	-1.6663	 3.4241	 1.7579	-5.0904	56.4947	99.9957	
   281	-1.1137	 2.9375	 1.8239	-4.0511	-0.5718	 3.0871	 2.5153	-3.6590	-1.6501	 3.4003	 1.7503	-5.0503	56.6180	99.9957	
   282	-1.1298	 2.9278	 1.7981	-4.0576	-0.5795	 3.0699	 2.4904	-3.6493	-1.6790	 3.4052	 1.7264	-5.0842	56.5327	99.9960	
   283	-1.1379	 2.9230	 1.7851	-4.0608	-0.5932	 3.0615	 2.4683	-3.6548	-1.6970	 3.3943	 1.6974	-5.0913	56.5263	99.9960	
   284	-1.1388	 2.9076	 1.7689	-4.0464	-0.6131	 3.0622	 2.4490	-3.6753	-1.6976	 3.3827	 1.6852	-5.0804	56.5263	99.9958	
   285	-1.1621	 2.9084	 1.7464	-4.0706	-0.6139	 3.0490	 2.4352	-3.6629	-1.7211	 3.3797	 1.6587	-5.1008	56.5232	99.9958	
   286	-1.1711	 2.8883	 1.7173	-4.0594	-0.6468	 3.0545	 2.4077	-3.7013	-1.7506	 3.3731	 1.6226	-5.1237	56.4345	99.9954	
   287	-1.1783	 2.8988	 1.7206	-4.0771	-0.6269	 3.0538	 2.4270	-3.6807	-1.7097	 3.3754	 1.6658	-5.0851	56.5738	99.9956	
   288	-1.1011	 2.8859	 1.7849	-3.9870	-0.5734	 3.0609	 2.4875	-3.6342	-1.6513	 3.3771	 1.7259	-5.0284	56.5358	99.9954	
   289	-1.0930	 2.8907	 1.7978	-3.9837	-0.5603	 3.0561	 2.4957	-3.6164	-1.6627	 3.3814	 1.7188	-5.0441	56.4884	99.9955	
   290	-1.1092	 2.8811	 1.7720	-3.9902	-0.5741	 3.0478	 2.4737	-3.6219	-1.6525	 3.3539	 1.7016	-5.0064	56.6149	99.9953	
   291	-1.1020	 2.8706	 1.7687	-3.9726	-0.5810	 3.0436	 2.4626	-3.6246	-1.6753	 3.3625	 1.6873	-5.0379	56.4852	99.9954	
   292	-1.1029	 2.8553	 1.7525	-3.9582	-0.5948	 3.0353	 2.4405	-3.6300	-1.6651	 3.3351	 1.6701	-5.0002	56.5675	99.9952	
   293	-1.1262	 2.8561	 1.7299	-3.9823	-0.6146	 3.0359	 2.4213	-3.6506	-1.6940	 3.3400	 1.6461	-5.0340	56.5232	99.9952	
   294	-1.1424	 2.8464	 1.7041	-3.9888	-0.6345	 3.0366	 2.4020	-3.6711	-1.7061	 3.3327	 1.6268	-5.0388	56.5232	99.9949	
   295	-1.1505	 2.8416	 1.6912	-3.9920	-0.6475	 3.0414	 2.3938	-3.6889	-1.7169	 3.3486	 1.6318	-5.0655	56.4441	99.9951	
   296	-1.0876	 2.8496	 1.7621	-3.9373	-0.5802	 3.0567	 2.4765	-3.6370	-1.6464	 3.3576	 1.7112	-5.0040	56.4947	99.9948	
   297	-1.0643	 2.8488	 1.7846	-3.9131	-0.5412	 3.0423	 2.5011	-3.5835	-1.6121	 3.3447	 1.7327	-4.9568	56.5801	99.9949	
   298	-1.0580	 2.8231	 1.7651	-3.8811	-0.5619	 3.0298	 2.4680	-3.5917	-1.6308	 3.3222	 1.6915	-4.9530	56.5295	99.9947	
   299	-1.0670	 2.8029	 1.7360	-3.8699	-0.5695	 3.0125	 2.4430	-3.5821	-1.6265	 3.2911	 1.6646	-4.9176	56.6117	99.9944	
   300	-1.0760	 2.7828	 1.7069	-3.8587	-0.5771	 2.9953	 2.4181	-3.5724	-1.6500	 3.2881	 1.6382	-4.9381	56.5263	99.9945	
   301	-1.0993	 2.7836	 1.6843	-3.8829	-0.6039	 2.9917	 2.3878	-3.5956	-1.6627	 3.2692	 1.6066	-4.9319	56.6055	99.9944	
   302	-1.1083	 2.7634	 1.6552	-3.8717	-0.6307	 2.9882	 2.3575	-3.6189	-1.6862	 3.2662	 1.5802	-4.9524	56.5200	99.9943	
   303	-1.1316	 2.7642	 1.6327	-3.8958	-0.6322	 2.9620	 2.3297	-3.5942	-1.7096	 3.2632	 1.5537	-4.9729	56.5168	99.9949	
   304	-1.1245	 2.7537	 1.6294	-3.8782	-0.6383	 2.9709	 2.3326	-3.6092	-1.6868	 3.2546	 1.5680	-4.9414	56.5643	99.9946	
   305	-1.0625	 2.7465	 1.6841	-3.8090	-0.5718	 2.9732	 2.4014	-3.5449	-1.6283	 3.2563	 1.6281	-4.8847	56.5706	99.9943	
   306	-1.0473	 2.7409	 1.6937	-3.7881	-0.5718	 2.9732	 2.4014	-3.5449	-1.6175	 3.2404	 1.6231	-4.8579	56.6086	99.9941	
   307	-1.0634	 2.7312	 1.6679	-3.7946	-0.5733	 2.9469	 2.3736	-3.5202	-1.6410	 3.2375	 1.5966	-4.8784	56.5643	99.9946	
   308	-1.0634	 2.7312	 1.6679	-3.7946	-0.5863	 2.9517	 2.3654	-3.5380	-1.6301	 3.2216	 1.5915	-4.8517	56.6466	99.9943	
   309	-1.0643	 2.7159	 1.6517	-3.7802	-0.5802	 2.9427	 2.3626	-3.5229	-1.6422	 3.2143	 1.5722	-4.8565	56.6023	99.9940	
   310	-1.0580	 2.6901	 1.6322	-3.7481	-0.6070	 2.9392	 2.3323	-3.5462	-1.6657	 3.2113	 1.5457	-4.8770	56.4725	99.9939	
   311	-1.0814	 2.6909	 1.6096	-3.7723	-0.6276	 2.9267	 2.2991	-3.5543	-1.6837	 3.2004	 1.5167	-4.8841	56.5105	99.9942	
   312	-1.1047	 2.6917	 1.5871	-3.7964	-0.6475	 2.9274	 2.2799	-3.5749	-1.7072	 3.1974	 1.4903	-4.9046	56.5073	99.9940	
   313	-1.0966	 2.6965	 1.6000	-3.7932	-0.6138	 2.9351	 2.3212	-3.5489	-1.6711	 3.2192	 1.5482	-4.8903	56.5232	99.9942	
   314	-1.0266	 2.6941	 1.6676	-3.7207	-0.5542	 2.9331	 2.3790	-3.4873	-1.6133	 3.2093	 1.5962	-4.8226	56.5643	99.9940	
   315	-1.0114	 2.6885	 1.6773	-3.6998	-0.5412	 2.9283	 2.3872	-3.4695	-1.6139	 3.1978	 1.5840	-4.8116	56.5580	99.9937	
   316	-1.0194	 2.6837	 1.6643	-3.7031	-0.5542	 2.9331	 2.3790	-3.4873	-1.6193	 3.2057	 1.5865	-4.8250	56.5200	99.9937	
   317	-0.9961	 2.6829	 1.6869	-3.6790	-0.5397	 2.9546	 2.4149	-3.4942	-1.5958	 3.2087	 1.6130	-4.8045	56.5232	99.9930	
   318	-0.9871	 2.7030	 1.7160	-3.6901	-0.5259	 2.9629	 2.4370	-3.4888	-1.5832	 3.2276	 1.6445	-4.8107	56.5263	99.9935	
   319	-0.9701	 2.7280	 1.7581	-3.6980	-0.4984	 2.9796	 2.4812	-3.4779	-1.5759	 3.2544	 1.6785	-4.8303	56.4852	99.9936	
   320	-0.9692	 2.7433	 1.7743	-3.7124	-0.5106	 2.9975	 2.4869	-3.5081	-1.5759	 3.2544	 1.6785	-4.8303	56.5232	99.9933	
   321	-0.9853	 2.7336	 1.7484	-3.7189	-0.5114	 2.9844	 2.4730	-3.4957	-1.5934	 3.2550	 1.6617	-4.8484	56.4820	99.9934	
   322	-0.9404	 2.7014	 1.7611	-3.6418	-0.4785	 2.9789	 2.5005	-3.4574	-1.5187	 3.2329	 1.7143	-4.7516	56.5801	99.9930	
   323	-0.9099	 2.6902	 1.7804	-3.6000	-0.4203	 2.9508	 2.5304	-3.3711	-1.4958	 3.2243	 1.7286	-4.7201	56.5801	99.9932	
   324	-0.9018	 2.6950	 1.7933	-3.5968	-0.4142	 2.9418	 2.5276	-3.3560	-1.4904	 3.2164	 1.7260	-4.7068	56.6180	99.9935	
   325	-0.8946	 2.6845	 1.7900	-3.5791	-0.4203	 2.9508	 2.5304	-3.3711	-1.4904	 3.2164	 1.7260	-4.7068	56.5769	99.9931	
   326	-0.8803	 2.6636	 1.7834	-3.5438	-0.4020	 2.9239	 2.5219	-3.3258	-1.4862	 3.1852	 1.6992	-4.6714	56.6117	99.9929	
   327	-0.9189	 2.6700	 1.7512	-3.5889	-0.4234	 2.8982	 2.4749	-3.3216	-1.5109	 3.1591	 1.6483	-4.6700	56.7289	99.9933	
   328	-0.9440	 2.6402	 1.6963	-3.5842	-0.4647	 2.8733	 2.4086	-3.3379	-1.5536	 3.1220	 1.5685	-4.6756	56.7165	99.9930	
   329	-0.9997	 2.6216	 1.6220	-3.6213	-0.5128	 2.8441	 2.3313	-3.3570	-1.5849	 3.0806	 1.4958	-4.6655	56.8371	99.9930	
   330	-1.0329	 2.5870	 1.5542	-3.6199	-0.5740	 2.8198	 2.2458	-3.3938	-1.6271	 3.0551	 1.4281	-4.6822	56.7897	99.9933	
   331	-1.0195	 2.5507	 1.5314	-3.5702	-0.5289	 2.7964	 2.2675	-3.3253	-1.5873	 3.0343	 1.4471	-4.6216	56.8432	99.9927	
   332	-0.9755	 2.5032	 1.5278	-3.4787	-0.4921	 2.7426	 2.2505	-3.2348	-1.5716	 2.9989	 1.4273	-4.5705	56.7958	99.9932	
   333	-1.0006	 2.4734	 1.4729	-3.4740	-0.5396	 2.7266	 2.1871	-3.2662	-1.6138	 2.9734	 1.3597	-4.5872	56.7453	99.9929	
   334	-1.0410	 2.4492	 1.4083	-3.4902	-0.5809	 2.7016	 2.1208	-3.2825	-1.6276	 2.9313	 1.3038	-4.5590	56.8691	99.9928	
   335	-1.0437	 2.4033	 1.3596	-3.4470	-0.5831	 2.6623	 2.0791	-3.2454	-1.6409	 2.9009	 1.2601	-4.5417	56.8248	99.9928	
   336	-1.0536	 2.3678	 1.3143	-3.4214	-0.6175	 2.6415	 2.0239	-3.2590	-1.6716	 2.8711	 1.1996	-4.5426	56.7742	99.9925	
   337	-1.0859	 2.3485	 1.2626	-3.4344	-0.6451	 2.6248	 1.9797	-3.2699	-1.6902	 2.8486	 1.1584	-4.5388	56.8155	99.9923	
   338	-1.1021	 2.3388	 1.2368	-3.4409	-0.6718	 2.6213	 1.9494	-3.2931	-1.7197	 2.8419	 1.1223	-4.5616	56.7680	99.9922	
   339	-1.1093	 2.3492	 1.2401	-3.4585	-0.6718	 2.6213	 1.9494	-3.2931	-1.7023	 2.8413	 1.1391	-4.5435	56.8569	99.9925	
   340	-1.0545	 2.3525	 1.2981	-3.4070	-0.6053	 2.6235	 2.0182	-3.2288	-1.6378	 2.8466	 1.2089	-4.4844	56.9074	99.9925	
   341	-1.0464	 2.3573	 1.3110	-3.4037	-0.5801	 2.6008	 2.0207	-3.1808	-1.6330	 2.8271	 1.1942	-4.4601	56.9839	99.9928	
   342	-1.0545	 2.3525	 1.2981	-3.4070	-0.6061	 2.6104	 2.0043	-3.2165	-1.6619	 2.8320	 1.1702	-4.4939	56.8951	99.9925	
   343	-1.0554	 2.3372	 1.2819	-3.3926	-0.6137	 2.5931	 1.9794	-3.2068	-1.6625	 2.8204	 1.1580	-4.4830	56.8951	99.9928	
   344	-1.0635	 2.3323	 1.2689	-3.3958	-0.6206	 2.5889	 1.9684	-3.2095	-1.6752	 2.8016	 1.1265	-4.4767	56.9304	99.9923	
   345	-1.0868	 2.3331	 1.2464	-3.4200	-0.6344	 2.5806	 1.9463	-3.2150	-1.6866	 2.8059	 1.1194	-4.4925	56.9334	99.9928	
   346	-1.0868	 2.3331	 1.2464	-3.4200	-0.6466	 2.5985	 1.9520	-3.2451	-1.6812	 2.7979	 1.1168	-4.4791	56.9748	99.9920	
   347	-1.0797	 2.3227	 1.2431	-3.4023	-0.6474	 2.5854	 1.9381	-3.2328	-1.6980	 2.8102	 1.1122	-4.5082	56.8476	99.9927	
   348	-1.0402	 2.3315	 1.2915	-3.3717	-0.5931	 2.6056	 2.0125	-3.1987	-1.6222	 2.8112	 1.1891	-4.4334	56.9869	99.9920	
   349	-1.0006	 2.3404	 1.3399	-3.3410	-0.5472	 2.5954	 2.0482	-3.1425	-1.5987	 2.8142	 1.2156	-4.4129	56.9839	99.9925	
   350	-1.0006	 2.3404	 1.3399	-3.3410	-0.5663	 2.6091	 2.0428	-3.1754	-1.5987	 2.8142	 1.2156	-4.4129	56.9839	99.9922	
   351	-0.9926	 2.3453	 1.3528	-3.3378	-0.5586	 2.6264	 2.0678	-3.1851	-1.5921	 2.8294	 1.2375	-4.4215	56.9456	99.9919	
   352	-0.9620	 2.3340	 1.3720	-3.2960	-0.5250	 2.6341	 2.1091	-3.1591	-1.5620	 2.8476	 1.2858	-4.4096	56.8722	99.9917	
   353	-0.9001	 2.3268	 1.4268	-3.2268	-0.4906	 2.6549	 2.1643	-3.1455	-1.5379	 2.8622	 1.3244	-4.4001	56.7453	99.9910	
   354	-0.9010	 2.3114	 1.4105	-3.2124	-0.5043	 2.6466	 2.1422	-3.1509	-1.5620	 2.8476	 1.2858	-4.4096	56.6947	99.9907	
   355	-0.9540	 2.3388	 1.3850	-3.2928	-0.5510	 2.6437	 2.0927	-3.1947	-1.6089	 2.8416	 1.2328	-4.4506	56.7680	99.9912	
   356	-1.0006	 2.3404	 1.3399	-3.3410	-0.5862	 2.6098	 2.0236	-3.1959	-1.6228	 2.7996	 1.1769	-4.4224	56.9718	99.9919	
   357	-1.0536	 2.3678	 1.3143	-3.4214	-0.6137	 2.5931	 1.9794	-3.2068	-1.6185	 2.7685	 1.1501	-4.3870	57.2644	99.9926	
   358	-1.0761	 2.3839	 1.3080	-3.4599	-0.6206	 2.5889	 1.9684	-3.2095	-1.6468	 2.7850	 1.1383	-4.4319	57.2200	99.9931	
   359	-1.0437	 2.4033	 1.3596	-3.4470	-0.5923	 2.6187	 2.0264	-3.2110	-1.5987	 2.8142	 1.2156	-4.4129	57.2318	99.9932	
   360	-0.9719	 2.4315	 1.4597	-3.4034	-0.5372	 2.6520	 2.1148	-3.1893	-1.5276	 2.8347	 1.3072	-4.3624	57.2790	99.9931	
   361	-0.9162	 2.4500	 1.5339	-3.3662	-0.4829	 2.6722	 2.1893	-3.1551	-1.5090	 2.8573	 1.3484	-4.3662	57.1905	99.9927	
   362	-0.8992	 2.4750	 1.5759	-3.3742	-0.4692	 2.6805	 2.2113	-3.1497	-1.4963	 2.8761	 1.3799	-4.3725	57.1905	99.9933	
   363	-0.8677	 2.4791	 1.6114	-3.3468	-0.4615	 2.6978	 2.2363	-3.1593	-1.4903	 2.8798	 1.3896	-4.3701	57.1432	99.9929	
   364	-0.8211	 2.4775	 1.6565	-3.2985	-0.4279	 2.7055	 2.2776	-3.1334	-1.4210	 2.8656	 1.4446	-4.2866	57.2761	99.9926	
   365	-0.7582	 2.4855	 1.7274	-3.2437	-0.3621	 2.6946	 2.3325	-3.0567	-1.3747	 2.8600	 1.4854	-4.2347	57.3145	99.9929	
   366	-0.7582	 2.4855	 1.7274	-3.2437	-0.3690	 2.6905	 2.3215	-3.0594	-1.4036	 2.8649	 1.4615	-4.2685	57.2230	99.9930	
   367	-0.7510	 2.4751	 1.7241	-3.2261	-0.3759	 2.6863	 2.3104	-3.0622	-1.4036	 2.8649	 1.4615	-4.2685	57.1816	99.9932	
   368	-0.7358	 2.4694	 1.7338	-3.2052	-0.3621	 2.6946	 2.3325	-3.0567	-1.3970	 2.8802	 1.4833	-4.2771	57.1019	99.9931	
   369	-0.7124	 2.4686	 1.7563	-3.1810	-0.3415	 2.7071	 2.3657	-3.0486	-1.3614	 2.8904	 1.5291	-4.2519	57.1108	99.9930	
   370	-0.6810	 2.4727	 1.7918	-3.1537	-0.3330	 2.7375	 2.4045	-3.0706	-1.3663	 2.9100	 1.5438	-4.2762	56.9809	99.9922	
   371	-0.6810	 2.4727	 1.7918	-3.1537	-0.3262	 2.7417	 2.4155	-3.0678	-1.3596	 2.9252	 1.5657	-4.2848	56.9456	99.9923	
   372	-0.6487	 2.4920	 1.8434	-3.1407	-0.2726	 2.7487	 2.4761	-3.0214	-1.3121	 2.9428	 1.6308	-4.2548	56.9960	99.9926	
   373	-0.5796	 2.4743	 1.8949	-3.0539	-0.2252	 2.7647	 2.5395	-2.9899	-1.2591	 2.9524	 1.6934	-4.2115	56.9195	99.9920	
   374	-0.5634	 2.4840	 1.9207	-3.0474	-0.2176	 2.7820	 2.5645	-2.9996	-1.2296	 2.9590	 1.7295	-4.1886	56.9668	99.9919	
   375	-0.5562	 2.4735	 1.9174	-3.0297	-0.2046	 2.7772	 2.5727	-2.9818	-1.2410	 2.9633	 1.7224	-4.2043	56.8814	99.9917	
   376	-0.5490	 2.4630	 1.9141	-3.0121	-0.2046	 2.7772	 2.5727	-2.9818	-1.2639	 2.9719	 1.7081	-4.2358	56.7515	99.9915	
   377	-0.5266	 2.4469	 1.9204	-2.9735	-0.2237	 2.7910	 2.5673	-3.0147	-1.2639	 2.9719	 1.7081	-4.2358	56.6659	99.9911	
   378	-0.5490	 2.4630	 1.9141	-3.0121	-0.2298	 2.8000	 2.5701	-3.0298	-1.2693	 2.9798	 1.7106	-4.2492	56.7103	99.9910	
   379	-0.5993	 2.5364	 1.9372	-3.1356	-0.2359	 2.8089	 2.5730	-3.0449	-1.2802	 2.9957	 1.7157	-4.2759	56.9165	99.9921	
   380	-0.6181	 2.6137	 1.9957	-3.2318	-0.2015	 2.8297	 2.6282	-3.0313	-1.2332	 3.0017	 1.7686	-4.2349	57.2553	99.9926	
   381	-0.6154	 2.6596	 2.0443	-3.2750	-0.1748	 2.8333	 2.6585	-3.0080	-1.2206	 3.0206	 1.8001	-4.2411	57.3378	99.9934	
   382	-0.6370	 2.6911	 2.0542	-3.3280	-0.1878	 2.8381	 2.6503	-3.0258	-1.2549	 3.0335	 1.7787	-4.2884	57.3291	99.9938	
   383	-0.5948	 2.6129	 2.0182	-3.2077	-0.2069	 2.8518	 2.6449	-3.0587	-1.2549	 3.0335	 1.7787	-4.2884	57.0433	99.9924	
   384	-0.5580	 2.5759	 2.0180	-3.1338	-0.2000	 2.8560	 2.6560	-3.0560	-1.2374	 3.0328	 1.7955	-4.2702	56.9226	99.9918	
   385	-0.6226	 2.6701	 2.0476	-3.2927	-0.2061	 2.8650	 2.6588	-3.0711	-1.2766	 3.0652	 1.7888	-4.3418	57.0815	99.9933	
   386	-0.6235	 2.6548	 2.0314	-3.2783	-0.2451	 2.8794	 2.6342	-3.1245	-1.3001	 3.0622	 1.7623	-4.3623	56.9930	99.9927	
   387	-0.6181	 2.6137	 1.9957	-3.2318	-0.2712	 2.8890	 2.6178	-3.1601	-1.3230	 3.0708	 1.7480	-4.3938	56.7866	99.9920	
   388	-0.5876	 2.6024	 2.0149	-3.1900	-0.2245	 2.8918	 2.6674	-3.1163	-1.2814	 3.0848	 1.8035	-4.3662	56.7577	99.9918	
   389	-0.5643	 2.6016	 2.0375	-3.1659	-0.2107	 2.9002	 2.6894	-3.1109	-1.2748	 3.1000	 1.8253	-4.3748	56.6753	99.9918	
   390	-0.5858	 2.6331	 2.0473	-3.2188	-0.2237	 2.9050	 2.6812	-3.1287	-1.2983	 3.0970	 1.7988	-4.3953	56.7484	99.9919	
   391	-0.6154	 2.6596	 2.0443	-3.2750	-0.2429	 2.9187	 2.6759	-3.1616	-1.3145	 3.1208	 1.8064	-4.4353	56.7515	99.9924	
   392	-0.6298	 2.6806	 2.0509	-3.3104	-0.2490	 2.9277	 2.6787	-3.1767	-1.3260	 3.1251	 1.7992	-4.4511	56.7897	99.9924	
   393	-0.6819	 2.7233	 2.0415	-3.4051	-0.2956	 2.9248	 2.6292	-3.2205	-1.3850	 3.1118	 1.7269	-4.4968	56.8951	99.9928	
   394	-0.7896	 2.7474	 1.9579	-3.5370	-0.4180	 2.8762	 2.4581	-3.2942	-1.5163	 3.0548	 1.5387	-4.5711	57.0243	99.9940	
   395	-0.9072	 2.7361	 1.8290	-3.6433	-0.5266	 2.8358	 2.3092	-3.3624	-1.6132	 2.9849	 1.3719	-4.5981	57.2141	99.9938	
   396	-0.9970	 2.6676	 1.6707	-3.6645	-0.6780	 2.7442	 2.0662	-3.4222	-1.7703	 2.8786	 1.1084	-4.6490	57.1693	99.9943	
   397	-1.1011	 2.6200	 1.5189	-3.7211	-0.8073	 2.6914	 1.8841	-3.4987	-1.9227	 2.8650	 0.9424	-4.7877	56.8968	99.9952	
   398	-1.1416	 2.5958	 1.4544	-3.7373	-0.8929	 2.7029	 1.8100	-3.5958	-1.9968	 2.8987	 0.9020	-4.8955	56.6004	99.9955	
   399	-1.1873	 2.6127	 1.4255	-3.8000	-0.9580	 2.7269	 1.7690	-3.6849	-2.0233	 2.9500	 0.9268	-4.9733	56.4877	99.9962	
   400	-1.2071	 2.6748	 1.4678	-3.8818	-0.9603	 2.8015	 1.8412	-3.7618	-1.9655	 3.0523	 1.0869	-5.0178	56.4879	99.9967	
   401	-1.0105	 2.7038	 1.6935	-3.7143	-0.7653	 2.9575	 2.1922	-3.7228	-1.7415	 3.2103	 1.4688	-4.9518	56.2208	99.9953	
   402	-0.8309	 2.8409	 2.0101	-3.6717	-0.5351	 3.0334	 2.4983	-3.5685	-1.5452	 3.2842	 1.7390	-4.8294	56.4850	99.9957	
   403	-0.7545	 2.9456	 2.1912	-3.7002	-0.4395	 3.0785	 2.6390	-3.5180	-1.4447	 3.3114	 1.8668	-4.7561	56.7773	99.9962	
   404	-0.6935	 2.9231	 2.2297	-3.6166	-0.4112	 3.1083	 2.6971	-3.5195	-1.4302	 3.3650	 1.9348	-4.7952	56.4533	99.9960	
   405	-0.5759	 2.9344	 2.3586	-3.5103	-0.3156	 3.1534	 2.8378	-3.4691	-1.3351	 3.4001	 2.0651	-4.7352	56.3805	99.9954	
   406	-0.5148	 2.9119	 2.3971	-3.4267	-0.2736	 3.1915	 2.9180	-3.4651	-1.2924	 3.4372	 2.1450	-4.7296	56.1875	99.9946	
   407	-0.4529	 2.9046	 2.4519	-3.3575	-0.2522	 3.2172	 2.9650	-3.4693	-1.2785	 3.4793	 2.2008	-4.7578	55.9406	99.9946	
   408	-0.4286	 2.9192	 2.4906	-3.3478	-0.2369	 3.2517	 3.0149	-3.4886	-1.2707	 3.5177	 2.2470	-4.7884	55.8206	99.9943	
   409	-0.4116	 2.9441	 2.5327	-3.3557	-0.2277	 3.2953	 3.0676	-3.5230	-1.2454	 3.5554	 2.3101	-4.8008	55.7897	99.9940	
   410	-0.4089	 2.9901	 2.5813	-3.3989	-0.2193	 3.3257	 3.1064	-3.5450	-1.2611	 3.5908	 2.3298	-4.8519	55.7418	99.9942	
   411	-0.4161	 3.0005	 2.5846	-3.4166	-0.2384	 3.3395	 3.1010	-3.5779	-1.2605	 3.6024	 2.3420	-4.8629	55.7452	99.9943	
   412	-0.4511	 3.0682	 2.6173	-3.5193	-0.2170	 3.3651	 3.1480	-3.5821	-1.2587	 3.6371	 2.3785	-4.8958	55.8753	99.9947	
   413	-0.3792	 3.0964	 2.7173	-3.4757	-0.1551	 3.4025	 3.2474	-3.5576	-1.1804	 3.6845	 2.5042	-4.8649	55.8511	99.9950	
   414	-0.3074	 3.1247	 2.8174	-3.4321	-0.1062	 3.4448	 3.3386	-3.5510	-1.1546	 3.7338	 2.5794	-4.8884	55.6837	99.9949	
   415	-0.3415	 3.2076	 2.8662	-3.5491	-0.1046	 3.4711	 3.3664	-3.5757	-1.1419	 3.7527	 2.6109	-4.8946	55.9331	99.9954	
   416	-0.3837	 3.2858	 2.9022	-3.6695	-0.1092	 3.5063	 3.3970	-3.6155	-1.1516	 3.7918	 2.6403	-4.9433	56.0594	99.9959	
   417	-0.3244	 3.2326	 2.9083	-3.5571	-0.0886	 3.5188	 3.4302	-3.6074	-1.1449	 3.8070	 2.6621	-4.9519	55.7725	99.9951	
   418	-0.2948	 3.2061	 2.9113	-3.5009	-0.1131	 3.5546	 3.4415	-3.6677	-1.1504	 3.8149	 2.6646	-4.9653	55.6051	99.9940	
   419	-0.3164	 3.2375	 2.9212	-3.5538	-0.1253	 3.5726	 3.4472	-3.6979	-1.1775	 3.8546	 2.6772	-5.0321	55.5232	99.9945	
   420	-0.3083	 3.2423	 2.9341	-3.5506	-0.1307	 3.5946	 3.4640	-3.7253	-1.1823	 3.8741	 2.6919	-5.0565	55.4412	99.9942	
   421	-0.2921	 3.2520	 2.9600	-3.5441	-0.1162	 3.6161	 3.4999	-3.7323	-1.1570	 3.9119	 2.7550	-5.0689	55.3734	99.9945	
   422	-0.2275	 3.2907	 3.0633	-3.5181	-0.0351	 3.6398	 3.6047	-3.6749	-1.0800	 3.9361	 2.8562	-5.0160	55.4657	99.9946	
   423	-0.1790	 3.3197	 3.1408	-3.4987	-0.0068	 3.6696	 3.6628	-3.6764	-1.0553	 3.9622	 2.9071	-5.0175	55.4213	99.9946	
   424	-0.1924	 3.3560	 3.1636	-3.5484	-0.0053	 3.6958	 3.6905	-3.7011	-1.0655	 3.9897	 2.9243	-5.0552	55.4213	99.9946	
   425	-0.2050	 3.4075	 3.2026	-3.6125	-0.0038	 3.7221	 3.7183	-3.7259	-1.0637	 4.0245	 2.9608	-5.0882	55.4657	99.9951	
   426	-0.1745	 3.3963	 3.2219	-3.5707	 0.0108	 3.7435	 3.7543	-3.7328	-1.0511	 4.0433	 2.9923	-5.0944	55.3466	99.9947	
   427	-0.1736	 3.4116	 3.2381	-3.5851	 0.0000	 3.7877	 3.7877	-3.7877	-1.0722	 4.0867	 3.0146	-5.1589	55.1832	99.9942	
   428	-0.1655	 3.4164	 3.2510	-3.5819	-0.0183	 3.8146	 3.7963	-3.8330	-1.0595	 4.1056	 3.0461	-5.1651	55.1495	99.9940	
   429	-0.1502	 3.4108	 3.2606	-3.5610	-0.0115	 3.8188	 3.8073	-3.8302	-1.0818	 4.1257	 3.0440	-5.2076	54.9789	99.9940	
   430	-0.1413	 3.4309	 3.2898	-3.5721	 0.0099	 3.8444	 3.8543	-3.8344	-1.0343	 4.1433	 3.1091	-5.1776	55.0787	99.9939	
   431	-0.0703	 3.4438	 3.3736	-3.5141	 0.0711	 3.8687	 3.9399	-3.7976	-0.9746	 4.1681	 3.1936	-5.1428	55.0452	99.9937	
   432	-0.0676	 3.4898	 3.4222	-3.5574	 0.1055	 3.8895	 3.9951	-3.7840	-0.9506	 4.1827	 3.2323	-5.1333	55.1710	99.9938	
   433	-0.0515	 3.4994	 3.4481	-3.5509	 0.1002	 3.9116	 4.0118	-3.8115	-0.9548	 4.2138	 3.2591	-5.1686	55.0488	99.9939	
   434	-0.0793	 3.5566	 3.4775	-3.6359	 0.1086	 3.9421	 4.0506	-3.8335	-0.9590	 4.2449	 3.2860	-5.2040	55.1338	99.9941	
   435	-0.0712	 3.5615	 3.4904	-3.6327	 0.1101	 3.9683	 4.0784	-3.8582	-0.9578	 4.2681	 3.3104	-5.2259	55.0560	99.9937	
   436	-0.0856	 3.5824	 3.4970	-3.6680	 0.0917	 3.9952	 4.0869	-3.9035	-0.9741	 4.2919	 3.3179	-5.2660	55.0153	99.9935	
   437	-0.0999	 3.6034	 3.5035	-3.7033	 0.0917	 3.9952	 4.0869	-3.9035	-0.9910	 4.3042	 3.3133	-5.2951	55.0117	99.9939	
   438	-0.1071	 3.6138	 3.5068	-3.7209	 0.0734	 4.0221	 4.0955	-3.9487	-0.9843	 4.3194	 3.3352	-5.3037	55.0189	99.9937	
   439	-0.0838	 3.6130	 3.5294	-3.6968	 0.0886	 4.0567	 4.1453	-3.9680	-0.9362	 4.3485	 3.4125	-5.2847	55.0000	99.9932	
   440	 0.0572	 3.6236	 3.6809	-3.5663	 0.2500	 4.0909	 4.3410	-3.8409	-0.7880	 4.3933	 3.6054	-5.1813	54.9884	99.9929	
   441	 0.1586	 3.6252	 3.7840	-3.4665	 0.2997	 4.1463	 4.4461	-3.8466	-0.7152	 4.4486	 3.7335	-5.1638	54.8005	99.9924	
   442	 0.2601	 3.6268	 3.8870	-3.3667	 0.3586	 4.2453	 4.6038	-3.8867	-0.6689	 4.5552	 3.8865	-5.2241	54.3748	99.9909	
   443	 0.3050	 3.5946	 3.8997	-3.2896	 0.3211	 4.2859	 4.6070	-3.9649	-0.7038	 4.5565	 3.8528	-5.2603	54.1094	99.9888	
   444	 0.2735	 3.4576	 3.7313	-3.1841	 0.2331	 4.2581	 4.4912	-4.0249	-0.7917	 4.5482	 3.7566	-5.3399	53.6245	99.9874	
   445	 0.2618	 3.3916	 3.6535	-3.1297	 0.1934	 4.2594	 4.4527	-4.0660	-0.8031	 4.5525	 3.7494	-5.3556	53.4390	99.9864	
   446	 0.2708	 3.4117	 3.6826	-3.1409	 0.2278	 4.2802	 4.5079	-4.0524	-0.7393	 4.5462	 3.8070	-5.2855	53.6608	99.9856	
   447	 0.2331	 3.4335	 3.6667	-3.2003	 0.2408	 4.1614	 4.4022	-3.9206	-0.7628	 4.4310	 3.6684	-5.1938	54.1055	99.9883	
   448	 0.0760	 3.5462	 3.6223	-3.4702	 0.1712	 4.1066	 4.2779	-3.9354	-0.8230	 4.3946	 3.5717	-5.2176	54.6606	99.9918	
   449	 0.0222	 3.6912	 3.7135	-3.6690	 0.2324	 4.1310	 4.3634	-3.8986	-0.7579	 4.4115	 3.6537	-5.1695	55.2456	99.9931	
   450	-0.0694	 3.7250	 3.6558	-3.7944	 0.1521	 4.1204	 4.2725	-3.9683	-0.8736	 4.4313	 3.5579	-5.3049	55.1433	99.9942	
   451	-0.1762	 3.6315	 3.4554	-3.8078	-0.0207	 4.0032	 3.9825	-4.0239	-1.1307	 4.3094	 3.1788	-5.4400	54.8490	99.9942	
   452	-0.3217	 3.5445	 3.2229	-3.8661	-0.1346	 3.8710	 3.7363	-4.0056	-1.2655	 4.1829	 2.9175	-5.4484	54.9833	99.9947	
   453	-0.3810	 3.4647	 3.0838	-3.8456	-0.2241	 3.8168	 3.5928	-4.0409	-1.3269	 4.1233	 2.7964	-5.4502	54.9350	99.9945	
   454	-0.3558	 3.4945	 3.1388	-3.8503	-0.1637	 3.8281	 3.6644	-3.9917	-1.2673	 4.1481	 2.8809	-5.4154	55.0352	99.9949	
   455	-0.2238	 3.6178	 3.3941	-3.8416	 0.0099	 3.9584	 3.9683	-3.9485	-1.0566	 4.2757	 3.2192	-5.3322	55.2153	99.9948	
   456	 0.0186	 3.7629	 3.7817	-3.7443	 0.2707	 4.1034	 4.3741	-3.8328	-0.8103	 4.4135	 3.6033	-5.2238	55.2914	99.9945	
   457	 0.1892	 3.8798	 4.0692	-3.6906	 0.4167	 4.2171	 4.6338	-3.8004	-0.6953	 4.4943	 3.7991	-5.1896	55.2844	99.9937	
   458	 0.1973	 3.8847	 4.0821	-3.6874	 0.3815	 4.1832	 4.5647	-3.8016	-0.7567	 4.4347	 3.6781	-5.1914	55.3199	99.9938	
   459	 0.0447	 3.8081	 3.8528	-3.7634	 0.2294	 4.0785	 4.3078	-3.8491	-0.9006	 4.3588	 3.4583	-5.2595	55.3022	99.9949	
   460	-0.0523	 3.7500	 3.6978	-3.8023	 0.1475	 4.0416	 4.1892	-3.8941	-0.9488	 4.3297	 3.3810	-5.2785	55.3164	99.9949	
   461	-0.0837	 3.7460	 3.6624	-3.8297	 0.1269	 4.0291	 4.1560	-3.9022	-0.9440	 4.3101	 3.3663	-5.2541	55.4458	99.9950	
   462	-0.1322	 3.7170	 3.5848	-3.8492	 0.0718	 3.9958	 4.0677	-3.9240	-1.0096	 4.2816	 3.2721	-5.2913	55.3910	99.9952	
   463	-0.1358	 3.6557	 3.5200	-3.7915	 0.0474	 3.9177	 3.9651	-3.8703	-1.0415	 4.2287	 3.1873	-5.2702	55.3360	99.9959	
   464	-0.2723	 3.5888	 3.3166	-3.8611	-0.1025	 3.8524	 3.7499	-3.9549	-1.1776	 4.1912	 3.0137	-5.3688	55.2026	99.9965	
   465	-0.2867	 3.6097	 3.3232	-3.8964	-0.0803	 3.8911	 3.8108	-3.9715	-1.1463	 4.2326	 3.0864	-5.3789	55.2276	99.9962	
   466	-0.2301	 3.6436	 3.4136	-3.8737	-0.0375	 3.9424	 3.9049	-3.9799	-1.1240	 4.2124	 3.0885	-5.3364	55.3289	99.9945	
   467	-0.0649	 3.6686	 3.6038	-3.7335	 0.1751	 3.9443	 4.1194	-3.7692	-0.9433	 4.2095	 3.2663	-5.1529	55.5510	99.9943	
   468	 0.0976	 3.6477	 3.7454	-3.5501	 0.3396	 3.9171	 4.2567	-3.5775	-0.7723	 4.1335	 3.3613	-4.9058	55.8814	99.9933	
   469	 0.1326	 3.5801	 3.7128	-3.4475	 0.4107	 3.8841	 4.2948	-3.4734	-0.6922	 4.1034	 3.4114	-4.7956	55.9489	99.9925	
   470	 0.1299	 3.5341	 3.6641	-3.4042	 0.4819	 3.8511	 4.3330	-3.3693	-0.6109	 4.0965	 3.4858	-4.7074	56.0699	99.9924	
   471	 0.1514	 3.5027	 3.6543	-3.3513	 0.5285	 3.8540	 4.3826	-3.3255	-0.5296	 4.0896	 3.5601	-4.6192	56.1803	99.9917	
   472	 0.1568	 3.4616	 3.6186	-3.3048	 0.5454	 3.8009	 4.3463	-3.2555	-0.5320	 4.0433	 3.5114	-4.5753	56.2144	99.9917	
   473	 0.1155	 3.4221	 3.5377	-3.3066	 0.4957	 3.7455	 4.2412	-3.2498	-0.6120	 3.9612	 3.3492	-4.5732	56.2635	99.9909	
   474	 0.0419	 3.3633	 3.4053	-3.3214	 0.3917	 3.6699	 4.0616	-3.2782	-0.7728	 3.8975	 3.1248	-4.6703	56.0548	99.9911	
   475	-0.0048	 3.3649	 3.3602	-3.3697	 0.3198	 3.6898	 4.0095	-3.3700	-0.8138	 3.8952	 3.0815	-4.7090	56.0515	99.9908	
   476	 0.0509	 3.3834	 3.4344	-3.3326	 0.3550	 3.7237	 4.0787	-3.3687	-0.7704	 3.9439	 3.1736	-4.7143	55.9390	99.9912	
   477	 0.0850	 3.4334	 3.5185	-3.3484	 0.4115	 3.7833	 4.1948	-3.3717	-0.7084	 4.0151	 3.3068	-4.7235	55.9215	99.9912	
   478	 0.1030	 3.4737	 3.5768	-3.3707	 0.4406	 3.8262	 4.2667	-3.3856	-0.6831	 4.0528	 3.3698	-4.7359	55.9282	99.9908	
   479	-0.0102	 3.4060	 3.3959	-3.4161	 0.2877	 3.7083	 3.9960	-3.4207	-0.8722	 3.8935	 3.0214	-4.7657	56.0218	99.9905	
   480	-0.3173	 3.2222	 2.9050	-3.5394	-0.1567	 3.4903	 3.3336	-3.6469	-1.3430	 3.6983	 2.3554	-5.0414	55.5797	99.9929	
   481	-0.5776	 3.1697	 2.5922	-3.7473	-0.3555	 3.3827	 3.0272	-3.7382	-1.4117	 3.6119	 2.2003	-5.0236	56.0721	99.9951	
   482	-0.4834	 3.1818	 2.6986	-3.6652	-0.2484	 3.3968	 3.1484	-3.6452	-1.2310	 3.6090	 2.3781	-4.8400	56.3997	99.9951	
   483	-0.4546	 3.1399	 2.6854	-3.5945	-0.1780	 3.3507	 3.1726	-3.5287	-1.1497	 3.6021	 2.4525	-4.7518	56.4695	99.9958	
   484	-0.3505	 3.1875	 2.8371	-3.5380	-0.0144	 3.4243	 3.4100	-3.4387	-0.9113	 3.7015	 2.7904	-4.6128	56.6672	99.9960	
   485	 0.0230	 3.3077	 3.3308	-3.2846	 0.3719	 3.5566	 3.9284	-3.1847	-0.5506	 3.7964	 3.2459	-4.3469	56.8603	99.9951	
   486	 0.2367	 3.3617	 3.5985	-3.1250	 0.5738	 3.6027	 4.1764	-3.0289	-0.3916	 3.8253	 3.4338	-4.2169	56.8979	99.9947	
   487	 0.2825	 3.3448	 3.6274	-3.0623	 0.6250	 3.5703	 4.1954	-2.9453	-0.3753	 3.8015	 3.4262	-4.1768	56.8889	99.9948	
   488	 0.2546	 3.2691	 3.5238	-3.0144	 0.5409	 3.4941	 4.0351	-2.9532	-0.4849	 3.7127	 3.2279	-4.1976	56.7680	99.9946	
   489	 0.2133	 3.2296	 3.4430	-3.0162	 0.5195	 3.4685	 3.9880	-2.9490	-0.5024	 3.7133	 3.2111	-4.2157	56.6987	99.9949	
   490	 0.2744	 3.2070	 3.4815	-2.9326	 0.5532	 3.4762	 4.0294	-2.9230	-0.4572	 3.6846	 3.2275	-4.1418	56.7364	99.9938	
   491	 0.3534	 3.2248	 3.5783	-2.8714	 0.6472	 3.4951	 4.1423	-2.8479	-0.3807	 3.6972	 3.3166	-4.0779	56.7833	99.9934	
   492	 0.4387	 3.2168	 3.6556	-2.7781	 0.7191	 3.4753	 4.1944	-2.7561	-0.3241	 3.6641	 3.3402	-3.9882	56.8557	99.9933	
   493	 0.4997	 3.1942	 3.6941	-2.6945	 0.7582	 3.4608	 4.2190	-2.7027	-0.2669	 3.6427	 3.3759	-3.9095	56.8995	99.9933	
   494	 0.5374	 3.1725	 3.7100	-2.6350	 0.8102	 3.4416	 4.2518	-2.6315	-0.2440	 3.6341	 3.3902	-3.8780	56.8587	99.9931	
   495	 0.5590	 3.1411	 3.7001	-2.5821	 0.8546	 3.4051	 4.2597	-2.5506	-0.2163	 3.6059	 3.3898	-3.8222	56.9025	99.9931	
   496	 0.5715	 3.0895	 3.6611	-2.5179	 0.8592	 3.3699	 4.2291	-2.5108	-0.2024	 3.5358	 3.3335	-3.7382	57.0189	99.9920	
   497	 0.5760	 3.0331	 3.6092	-2.4571	 0.8691	 3.3126	 4.1817	-2.4435	-0.2126	 3.4511	 3.2386	-3.6637	57.1265	99.9909	
   498	 0.4081	 2.9621	 3.3703	-2.5540	 0.6841	 3.2133	 3.8974	-2.5293	-0.4149	 3.3735	 2.9587	-3.7884	57.0120	99.9920	
   499	 0.2420	 2.9218	 3.1639	-2.6798	 0.5395	 3.1259	 3.6655	-2.5864	-0.5191	 3.2768	 2.7578	-3.7959	57.2904	99.9930	
   500	 0.1962	 2.8057	 3.0020	-2.6095	 0.5319	 2.9947	 3.5266	-2.4627	-0.4251	 3.1766	 2.7516	-3.6017	57.6580	99.9947	
   501	 0.2923	 2.8485	 3.1409	-2.5562	 0.6107	 2.9790	 3.5897	-2.3682	-0.3787	 3.1710	 2.7924	-3.5497	57.7233	99.9956	
   502	 0.2456	 2.8501	 3.0958	-2.6045	 0.5832	 2.9623	 3.5455	-2.3791	-0.3721	 3.1862	 2.8142	-3.5583	57.7807	99.9965	
   503	 0.3596	 2.9331	 3.2928	-2.5735	 0.7553	 3.0664	 3.8216	-2.3111	-0.1505	 3.2979	 3.1474	-3.4484	57.9570	99.9964	
   504	 0.5670	 3.0130	 3.5801	-2.4459	 0.9289	 3.0827	 4.0116	-2.1538	-0.0644	 3.2714	 3.2071	-3.3358	58.0802	99.9962	
   505	 0.4171	 2.9823	 3.3995	-2.5652	 0.7606	 3.0443	 3.8049	-2.2837	-0.2011	 3.2224	 3.0214	-3.4235	58.1080	99.9963	
   506	 0.4009	 2.9726	 3.3736	-2.5717	 0.7713	 3.0001	 3.7715	-2.2288	-0.2191	 3.2114	 2.9924	-3.4306	58.1053	99.9971	
   507	 0.5644	 3.1000	 3.6644	-2.5356	 1.0053	 3.1416	 4.1470	-2.1363	 0.0374	 3.3218	 3.3593	-3.2844	58.3941	99.9962	
   508	 0.7197	 3.0895	 3.8093	-2.3699	 1.1033	 3.1122	 4.2154	-2.0089	 0.0585	 3.2785	 3.3370	-3.2200	58.2768	99.9960	
   509	 0.6793	 3.0654	 3.7447	-2.3861	 1.0688	 3.0914	 4.1602	-2.0225	 0.0524	 3.2748	 3.3274	-3.2224	58.2871	99.9965	
   510	 0.7268	 3.0791	 3.8060	-2.3522	 1.1094	 3.1032	 4.2126	-1.9938	 0.0765	 3.2894	 3.3660	-3.2129	58.2436	99.9965	
   511	 0.7511	 3.0936	 3.8448	-2.3425	 1.1361	 3.1067	 4.2429	-1.9706	 0.1000	 3.2924	 3.3925	-3.1924	58.2845	99.9966	
   512	 0.7673	 3.1033	 3.8706	-2.3360	 1.1231	 3.1115	 4.2347	-1.9884	 0.1054	 3.2844	 3.3900	-3.1790	58.3202	99.9966	
   513	 0.7825	 3.0976	 3.8802	-2.3151	 1.1560	 3.1061	 4.2621	-1.9501	 0.1524	 3.2904	 3.4429	-3.1380	58.3738	99.9968	
   514	 0.8750	 3.0791	 3.9542	-2.2041	 1.2218	 3.0952	 4.3170	-1.8734	 0.2560	 3.2633	 3.5194	-3.0073	58.5038	99.9967	
   515	 0.9055	 3.0679	 3.9735	-2.1623	 1.2738	 3.0760	 4.3499	-1.8022	 0.3024	 3.2577	 3.5602	-2.9554	58.5520	99.9970	
   516	 0.9190	 3.0316	 3.9507	-2.1126	 1.2769	 3.0145	 4.2915	-1.7376	 0.2644	 3.2011	 3.4657	-2.9367	58.5322	99.9972	
   517	 0.8687	 2.9720	 3.8407	-2.1033	 1.2494	 2.9979	 4.2473	-1.7485	 0.2940	 3.2078	 3.5018	-2.9138	58.5212	99.9972	
   518	 0.9746	 3.0501	 4.0249	-2.0755	 1.3748	 3.0991	 4.4739	-1.7243	 0.4547	 3.2714	 3.7262	-2.8167	58.7082	99.9965	
   519	 1.0770	 3.0671	 4.1442	-1.9901	 1.4146	 3.0978	 4.5124	-1.6832	 0.4481	 3.2562	 3.7044	-2.8081	58.5977	99.9965	
   520	 1.0375	 3.0582	 4.0958	-2.0207	 1.4283	 3.1061	 4.5345	-1.6778	 0.5198	 3.2883	 3.8082	-2.7686	58.7154	99.9967	
   521	 1.2440	 3.1228	 4.3668	-1.8787	 1.6440	 3.1606	 4.8046	-1.5165	 0.6920	 3.3476	 4.0397	-2.6557	58.7227	99.9967	
   522	 1.2916	 3.1365	 4.4281	-1.8449	 1.6517	 3.1778	 4.8295	-1.5262	 0.6920	 3.3476	 4.0397	-2.6557	58.6701	99.9965	
   523	 1.2844	 3.1469	 4.4314	-1.8625	 1.6784	 3.1814	 4.8598	-1.5029	 0.6992	 3.3745	 4.0737	-2.6753	58.6368	99.9967	
   524	 1.3095	 3.1768	 4.4864	-1.8672	 1.7067	 3.2111	 4.9179	-1.5044	 0.7287	 3.3811	 4.1099	-2.6524	58.7178	99.9964	
   525	 1.3329	 3.1760	 4.5089	-1.8431	 1.7128	 3.2022	 4.9150	-1.4893	 0.7106	 3.3702	 4.0809	-2.6595	58.6652	99.9964	
   526	 1.3167	 3.1663	 4.4831	-1.8496	 1.7052	 3.1849	 4.8901	-1.4797	 0.7100	 3.3586	 4.0687	-2.6485	58.7082	99.9966	
   527	 1.3167	 3.1663	 4.4831	-1.8496	 1.7052	 3.1849	 4.8901	-1.4797	 0.7215	 3.3543	 4.0759	-2.6328	58.7512	99.9965	
   528	 1.3876	 3.1792	 4.5670	-1.7915	 1.7985	 3.1907	 4.9892	-1.3922	 0.8040	 3.3705	 4.1746	-2.5666	58.8013	99.9967	
   529	 1.4810	 3.1760	 4.6571	-1.6950	 1.8643	 3.1798	 5.0441	-1.3155	 0.8672	 3.3527	 4.2200	-2.4855	58.8371	99.9967	
   530	 1.4963	 3.1704	 4.6668	-1.6741	 1.8520	 3.1977	 5.0497	-1.3457	 0.8618	 3.3607	 4.2225	-2.4989	58.7536	99.9964	
   531	 1.4810	 3.1760	 4.6571	-1.6950	 1.8513	 3.1846	 5.0359	-1.3333	 0.8383	 3.3577	 4.1961	-2.5194	58.7488	99.9967	
   532	 1.4810	 3.1760	 4.6571	-1.6950	 1.8383	 3.1894	 5.0277	-1.3511	 0.8154	 3.3663	 4.1818	-2.5508	58.6628	99.9967	
   533	 1.4649	 3.1663	 4.6313	-1.7015	 1.8245	 3.1811	 5.0056	-1.3565	 0.8034	 3.3590	 4.1624	-2.5556	58.6628	99.9967	
   534	 1.4649	 3.1663	 4.6313	-1.7015	 1.8184	 3.1900	 5.0084	-1.3716	 0.7925	 3.3748	 4.1675	-2.5823	58.5816	99.9967	
   535	 1.4505	 3.1873	 4.6379	-1.7368	 1.8123	 3.1990	 5.0113	-1.3867	 0.7919	 3.3633	 4.1553	-2.5713	58.7010	99.9965	
   536	 1.4586	 3.1921	 4.6508	-1.7335	 1.8268	 3.2204	 5.0472	-1.3936	 0.8341	 3.3888	 4.2229	-2.5547	58.7154	99.9964	
   537	 1.5609	 3.2091	 4.7701	-1.6481	 1.9132	 3.2220	 5.1353	-1.3088	 0.9100	 3.3898	 4.2999	-2.4798	58.7536	99.9966	
   538	 1.5762	 3.2034	 4.7797	-1.6272	 1.9140	 3.2352	 5.1492	-1.3212	 0.8937	 3.4136	 4.3074	-2.5199	58.5889	99.9966	
   539	 1.6328	 3.2373	 4.8702	-1.6045	 1.9744	 3.2464	 5.2208	-1.2720	 0.9569	 3.3958	 4.3528	-2.4389	58.7894	99.9963	
   540	 1.5322	 3.1180	 4.6503	-1.5858	 1.8613	 3.1273	 4.9885	-1.2660	 0.8305	 3.3193	 4.1499	-2.4888	58.6149	99.9970	
   541	 1.5349	 3.1639	 4.6989	-1.6290	 1.8781	 3.1881	 5.0662	-1.3100	 0.8618	 3.3607	 4.2225	-2.4989	58.6652	99.9965	
   542	 1.5187	 3.1543	 4.6731	-1.6355	 1.8566	 3.1625	 5.0191	-1.3058	 0.8136	 3.3315	 4.1452	-2.5179	58.6506	99.9966	
   543	 1.4873	 3.1502	 4.6376	-1.6629	 1.8238	 3.1679	 4.9917	-1.3442	 0.7793	 3.3444	 4.1238	-2.5651	58.5693	99.9966	
   544	 1.4640	 3.1510	 4.6151	-1.6871	 1.8031	 3.1554	 4.9585	-1.3523	 0.7504	 3.3493	 4.0998	-2.5990	58.5262	99.9970	
   545	 1.4406	 3.1518	 4.5925	-1.7112	 1.7641	 3.1698	 4.9339	-1.4058	 0.7100	 3.3586	 4.0687	-2.6485	58.4398	99.9968	
   546	 1.4173	 3.1526	 4.5700	-1.7353	 1.7373	 3.1663	 4.9036	-1.4290	 0.6920	 3.3476	 4.0397	-2.6557	58.4780	99.9967	
   547	 1.4244	 3.1422	 4.5667	-1.7177	 1.7633	 3.1567	 4.9201	-1.3934	 0.7323	 3.3384	 4.0708	-2.6061	58.5693	99.9967	
   548	 1.4316	 3.1317	 4.5634	-1.7000	 1.7695	 3.1478	 4.9172	-1.3783	 0.7438	 3.3341	 4.0780	-2.5903	58.5718	99.9968	
   549	 1.4550	 3.1309	 4.5860	-1.6759	 1.7832	 3.1561	 4.9393	-1.3729	 0.7558	 3.3414	 4.0973	-2.5856	58.5311	99.9967	
   550	 1.4792	 3.1454	 4.6247	-1.6662	 1.8306	 3.1721	 5.0027	-1.3415	 0.8088	 3.3510	 4.1599	-2.5422	58.6222	99.9966	
   551	 1.5008	 3.1140	 4.6148	-1.6132	 1.8544	 3.1231	 4.9775	-1.2687	 0.8112	 3.2852	 4.0965	-2.4739	58.7320	99.9964	
   552	 1.4828	 3.0737	 4.5566	-1.5909	 1.8444	 3.0664	 4.9109	-1.2220	 0.7787	 3.2206	 3.9994	-2.4419	58.8014	99.9962	
   553	 1.4487	 3.0237	 4.4725	-1.5750	 1.7756	 3.0248	 4.8004	-1.2492	 0.7173	 3.1610	 3.8784	-2.4437	58.7870	99.9960	
   554	 1.4002	 2.9947	 4.3950	-1.5945	 1.7206	 2.9915	 4.7121	-1.2709	 0.6692	 3.1319	 3.8011	-2.4627	58.7822	99.9962	
   555	 1.3535	 2.9963	 4.3499	-1.6428	 1.6862	 2.9707	 4.6568	-1.2845	 0.5987	 3.1229	 3.7217	-2.5242	58.7292	99.9964	
   556	 1.3059	 2.9826	 4.2886	-1.6766	 1.6181	 2.9422	 4.5603	-1.3241	 0.5102	 3.1030	 3.6133	-2.5928	58.6302	99.9967	
   557	 1.2098	 2.9398	 4.1498	-1.7300	 1.5034	 2.9108	 4.4142	-1.4074	 0.4211	 3.0715	 3.4926	-2.6504	58.5843	99.9968	
   558	 1.1461	 2.9164	 4.0626	-1.7703	 1.4307	 2.9175	 4.3482	-1.4868	 0.3873	 3.0960	 3.4834	-2.7086	58.4738	99.9970	
   559	 1.2000	 2.9044	 4.1044	-1.7044	 1.4896	 2.9025	 4.3921	-1.4129	 0.4337	 3.0904	 3.5242	-2.6566	58.4763	99.9971	
   560	 1.1838	 2.8947	 4.0786	-1.7109	 1.4697	 2.9031	 4.3728	-1.4334	 0.4108	 3.0989	 3.5099	-2.6881	58.3944	99.9971	
   561	 1.1515	 2.8754	 4.0269	-1.7239	 1.4353	 2.8823	 4.3176	-1.4470	 0.3753	 3.0887	 3.4641	-2.7134	58.3509	99.9972	
   562	 1.1272	 2.8608	 3.9882	-1.7336	 1.4078	 2.8657	 4.2734	-1.4579	 0.3560	 3.0546	 3.4107	-2.6985	58.4278	99.9971	
   563	 1.0922	 2.7956	 3.8879	-1.7033	 1.3696	 2.7792	 4.1488	-1.4096	 0.2995	 2.9754	 3.2750	-2.6760	58.4536	99.9973	
   564	 1.0365	 2.7770	 3.8136	-1.7405	 1.3229	 2.7763	 4.0992	-1.4534	 0.2766	 2.9840	 3.2607	-2.7075	58.4227	99.9974	
   565	 1.0698	 2.8117	 3.8815	-1.7419	 1.3650	 2.8144	 4.1794	-1.4495	 0.2904	 3.0261	 3.3166	-2.7357	58.3407	99.9973	
   566	 1.1434	 2.8705	 4.0140	-1.7271	 1.4552	 2.8817	 4.3369	-1.4265	 0.4223	 3.0946	 3.5170	-2.6724	58.4505	99.9973	
   567	 1.2386	 3.0309	 4.2696	-1.7923	 1.5829	 3.0222	 4.6051	-1.4394	 0.5433	 3.1791	 3.7225	-2.6358	58.7029	99.9965	
   568	 1.2332	 2.9390	 4.1723	-1.7058	 1.4912	 2.8148	 4.3059	-1.3236	 0.3404	 2.9778	 3.3183	-2.6374	58.6607	99.9977	
   569	 1.0006	 2.8294	 3.8301	-1.8287	 1.2931	 2.8343	 4.1273	-1.5412	 0.2790	 3.0304	 3.3094	-2.7514	58.4738	99.9972	
   570	 1.1191	 2.8560	 3.9752	-1.7368	 1.4223	 2.8871	 4.3094	-1.4648	 0.4217	 3.0831	 3.5048	-2.6614	58.4963	99.9970	
   571	 1.2511	 2.8464	 4.0976	-1.5952	 1.5209	 2.9848	 4.5057	-1.4638	 0.5306	 3.1602	 3.6910	-2.6296	58.2312	99.9955	
   572	 1.2754	 2.8609	 4.1364	-1.5855	 1.5324	 3.0677	 4.6001	-1.5353	 0.5463	 3.2370	 3.7834	-2.6908	58.0002	99.9945	
   573	 1.3149	 2.8698	 4.1847	-1.5549	 1.5484	 3.1154	 4.6638	-1.5670	 0.5601	 3.2791	 3.8393	-2.7190	57.8404	99.9938	
   574	 1.3301	 2.8641	 4.1944	-1.5340	 1.5461	 3.1900	 4.7361	-1.6439	 0.5589	 3.3681	 3.9271	-2.8092	57.4918	99.9929	
   575	 1.4415	 2.9012	 4.3428	-1.4598	 1.6203	 3.2095	 4.8298	-1.5893	 0.5589	 3.3681	 3.9271	-2.8092	57.3768	99.9922	
   576	 1.3642	 2.7811	 4.1455	-1.4169	 1.4842	 3.1525	 4.6367	-1.6684	 0.4228	 3.3306	 3.7535	-2.9078	56.9960	99.9919	
   577	 1.3849	 2.7344	 4.1194	-1.3495	 1.4765	 3.1353	 4.6118	-1.6587	 0.4144	 3.2806	 3.6951	-2.8663	56.9840	99.9906	
   578	 1.4046	 2.6724	 4.0771	-1.2678	 1.4742	 3.0959	 4.5701	-1.6216	 0.3957	 3.2581	 3.6539	-2.8624	56.8149	99.9906	
   579	 1.3992	 2.7135	 4.1128	-1.3142	 1.4635	 3.1401	 4.6036	-1.6766	 0.4095	 3.3002	 3.7098	-2.8906	56.8240	99.9908	
   580	 1.4675	 2.8134	 4.2810	-1.3459	 1.5813	 3.2239	 4.8052	-1.6427	 0.5420	 3.3803	 3.9224	-2.8383	57.0168	99.9908	
   581	 1.5249	 2.8626	 4.3876	-1.3376	 1.6348	 3.2310	 4.8658	-1.5962	 0.5595	 3.3797	 3.9392	-2.8202	57.0803	99.9911	
   582	 1.4890	 2.9149	 4.4041	-1.4259	 1.6402	 3.2089	 4.8491	-1.5687	 0.6107	 3.3546	 3.9653	-2.7439	57.4988	99.9927	
   583	 1.4316	 2.9987	 4.4304	-1.5671	 1.6448	 3.1737	 4.8185	-1.5289	 0.5920	 3.3320	 3.9241	-2.7400	57.8541	99.9945	
   584	 1.3275	 2.9512	 4.2787	-1.6237	 1.5484	 3.1154	 4.6638	-1.5670	 0.5414	 3.2566	 3.7981	-2.7151	58.0579	99.9945	
   585	 1.3337	 2.9254	 4.2592	-1.5916	 1.5660	 3.0754	 4.6414	-1.5094	 0.5342	 3.2297	 3.7641	-2.6955	58.0526	99.9948	
   586	 1.2628	 2.9125	 4.1754	-1.6496	 1.5232	 3.0242	 4.5474	-1.5009	 0.4915	 3.1926	 3.6842	-2.7012	58.1723	99.9955	
   587	 1.2215	 3.0059	 4.2275	-1.7844	 1.5461	 3.0760	 4.6222	-1.5299	 0.5228	 3.2340	 3.7569	-2.7112	58.4298	99.9957	
   588	 1.2296	 3.0107	 4.2405	-1.7811	 1.5393	 3.0719	 4.6111	-1.5326	 0.4933	 3.2274	 3.7208	-2.7341	58.3764	99.9957	
   589	 1.2484	 2.9334	 4.1819	-1.6849	 1.4872	 3.0911	 4.5783	-1.6038	 0.4427	 3.2641	 3.7069	-2.8214	57.8868	99.9950	
   590	 1.2197	 2.9753	 4.1951	-1.7556	 1.4719	 3.1705	 4.6424	-1.6986	 0.4523	 3.3373	 3.7896	-2.8850	57.8242	99.9943	
   591	 1.2233	 3.0365	 4.2600	-1.8132	 1.4826	 3.2403	 4.7229	-1.7577	 0.4667	 3.3909	 3.8577	-2.9242	57.8296	99.9938	
   592	 1.2619	 3.0301	 4.2921	-1.7682	 1.4917	 3.2838	 4.7756	-1.7921	 0.5215	 3.4353	 3.9569	-2.9137	57.7268	99.9935	
   593	 1.3194	 3.0793	 4.3988	-1.7599	 1.5736	 3.3206	 4.8942	-1.7471	 0.5986	 3.4595	 4.0581	-2.8609	57.8566	99.9933	
   594	 1.3356	 3.0889	 4.4246	-1.7534	 1.6057	 3.3021	 4.9078	-1.6964	 0.5859	 3.4406	 4.0266	-2.8546	57.8837	99.9933	
   595	 1.3176	 3.0487	 4.3663	-1.7310	 1.5568	 3.2598	 4.8166	-1.7030	 0.5372	 3.3999	 3.9371	-2.8627	57.8296	99.9935	
   596	 1.2844	 3.0140	 4.2985	-1.7296	 1.5392	 3.1858	 4.7251	-1.6466	 0.4926	 3.3280	 3.8208	-2.8354	57.9356	99.9939	
   597	 1.2269	 2.9648	 4.1918	-1.7379	 1.4742	 3.0959	 4.5701	-1.6216	 0.3957	 3.2581	 3.6539	-2.8624	57.9115	99.9948	
   598	 1.1452	 2.9011	 4.0464	-1.7559	 1.3901	 3.0197	 4.4098	-1.6295	 0.3048	 3.1919	 3.4968	-2.8871	57.8980	99.9952	
   599	 1.0653	 2.8681	 3.9335	-1.8028	 1.3075	 2.9697	 4.2773	-1.6622	 0.2145	 3.1372	 3.3518	-2.9227	57.9228	99.9953	
   600	 0.9153	 2.8374	 3.7528	-1.9220	 1.1890	 2.8727	 4.0617	-1.6837	 0.0977	 3.0217	 3.1194	-2.9240	58.2302	99.9958	
   601	 0.7438	 2.7052	 3.4491	-1.9613	 1.0200	 2.7072	 3.7272	-1.6871	-0.0685	 2.8538	 2.7854	-2.9222	58.3692	99.9962	
   602	 0.6460	 2.6318	 3.2779	-1.9859	 0.9489	 2.6261	 3.5751	-1.6772	-0.1299	 2.7942	 2.6644	-2.9240	58.4130	99.9966	
   603	 0.6576	 2.5650	 3.2227	-1.9073	 0.9459	 2.5736	 3.5195	-1.6277	-0.1274	 2.7283	 2.6010	-2.8557	58.4492	99.9963	
   604	 0.6091	 2.5359	 3.1452	-1.9268	 0.8970	 2.5314	 3.4283	-1.6344	-0.1678	 2.7375	 2.5699	-2.9053	58.3305	99.9973	
   605	 0.8040	 2.8003	 3.6044	-1.9963	 1.1661	 2.8208	 3.9869	-1.6547	 0.1892	 2.9873	 3.1766	-2.7980	58.6908	99.9966	
   606	 1.0437	 2.8995	 3.9433	-1.8557	 1.3558	 2.8849	 4.2406	-1.5291	 0.3548	 3.0314	 3.3863	-2.6766	58.7629	99.9967	
   607	 1.1712	 2.9463	 4.1176	-1.7750	 1.5500	 2.9137	 4.4637	-1.3637	 0.5373	 3.0633	 3.6007	-2.5260	58.9911	99.9967	
   608	 1.2502	 2.9640	 4.2144	-1.7138	 1.6051	 2.9470	 4.5521	-1.3419	 0.6192	 3.0679	 3.6872	-2.4488	59.0774	99.9963	
   609	 1.3230	 3.0076	 4.3306	-1.6846	 1.6670	 2.9845	 4.6515	-1.3174	 0.6746	 3.1239	 3.7986	-2.4493	59.0004	99.9967	
   610	 1.3813	 3.0720	 4.4535	-1.6907	 1.7565	 3.0386	 4.7951	-1.2821	 0.7402	 3.1524	 3.8927	-2.4122	59.1250	99.9961	
   611	 1.3616	 3.0011	 4.3628	-1.6395	 1.7183	 2.9521	 4.6704	-1.2338	 0.6836	 3.0733	 3.7570	-2.3896	59.1090	99.9964	
   612	 1.3247	 2.9052	 4.2301	-1.5805	 1.7115	 2.8340	 4.5454	-1.1225	 0.6524	 2.9197	 3.5722	-2.2673	59.3796	99.9957	
   613	 1.2682	 2.8714	 4.1396	-1.6032	 1.6434	 2.8055	 4.4489	-1.1621	 0.6042	 2.8905	 3.4949	-2.2863	59.3773	99.9959	
   614	 1.6058	 3.1769	 4.7828	-1.5710	 2.0127	 3.1049	 5.1176	-1.0922	 1.0431	 3.1450	 4.1882	-2.1018	59.7555	99.9954	
   615	 2.4938	 3.6937	 6.1876	-1.1998	 2.7201	 3.5074	 6.2274	-0.7873	 1.6645	 3.4313	 5.0959	-1.7667	60.0143	99.9951	
   616	 2.6087	 3.6590	 6.2679	-1.0503	 2.6788	 3.3684	 6.0472	-0.6896	 1.3170	 3.4791	 4.7962	-2.1620	58.6797	99.9984	
   617	 2.3107	 3.7613	 6.0721	-1.4506	 2.3322	 3.5768	 5.9091	-1.2446	 1.1394	 3.5399	 4.6793	-2.4005	58.8550	99.9959	
   618	 2.2505	 3.6662	 5.9168	-1.4156	 2.2596	 3.4696	 5.7292	-1.2099	 1.0653	 3.4614	 4.5268	-2.3961	58.8040	99.9965	
   619	 2.1787	 3.7709	 5.9497	-1.5922	 2.2205	 3.7119	 5.9324	-1.4914	 1.1387	 3.7527	 4.8914	-2.6140	58.3893	99.9960	
   620	 2.1015	 3.9167	 6.0184	-1.8152	 2.2128	 3.9226	 6.1354	-1.7098	 1.2235	 3.9275	 5.1511	-2.7039	58.5262	99.9947	
   621	 2.0450	 4.0158	 6.0609	-1.9708	 2.2670	 4.0568	 6.3238	-1.7897	 1.3433	 3.9887	 5.3322	-2.6454	58.9750	99.9924	
   622	 2.0109	 3.9658	 5.9768	-1.9550	 2.1554	 3.9639	 6.1193	-1.8085	 1.1489	 3.8374	 4.9864	-2.6885	58.9479	99.9914	
   623	 1.8106	 3.8755	 5.6863	-2.0649	 1.9374	 3.8701	 5.8075	-1.9326	 0.9050	 3.7459	 4.6510	-2.8409	58.7942	99.9914	
   624	 1.6760	 3.8392	 5.5153	-2.1633	 1.8120	 3.8829	 5.6949	-2.0709	 0.8629	 3.7204	 4.5834	-2.8575	58.9338	99.9900	
   625	 1.7765	 3.9585	 5.7352	-2.1820	 1.9619	 3.9482	 5.9101	-1.9863	 0.9351	 3.8763	 4.8115	-2.9412	58.7005	99.9926	
   626	 1.9247	 4.0915	 6.0163	-2.1668	 2.1224	 4.1973	 6.3197	-2.0749	 1.2144	 4.0903	 5.3048	-2.8758	58.7299	99.9904	
   627	 2.2111	 4.1891	 6.4003	-1.9780	 2.3427	 4.1026	 6.4453	-1.7598	 1.3030	 3.8858	 5.1889	-2.5828	59.3773	99.9903	
   628	 1.9543	 4.0649	 6.0194	-2.1106	 2.2764	 3.6444	 5.9208	-1.3680	 1.0928	 3.9942	 5.0872	-2.9014	58.6335	99.9992	
   629	 2.0647	 3.9538	 6.0186	-1.8890	 2.2304	 3.7686	 5.9990	-1.5382	 1.2303	 3.6061	 4.8365	-2.3758	59.8199	99.9938	
   630	 2.1734	 3.9450	 6.1184	-1.7716	 2.3184	 3.7965	 6.1148	-1.4781	 1.3405	 3.5942	 4.9348	-2.2538	59.9081	99.9925	
   631	 1.7899	 3.5234	 5.3134	-1.7335	 1.8949	 3.2489	 5.1438	-1.3541	 0.8336	 3.0406	 3.8743	-2.2070	60.1893	99.9941	
   632	 1.5151	 3.0930	 4.6082	-1.5779	 1.6656	 2.7302	 4.3958	-1.0646	 0.5814	 2.6748	 3.2562	-2.0934	60.2131	99.9976	
   633	 1.1918	 2.7666	 3.9585	-1.5747	 1.4385	 2.4789	 3.9174	-1.0404	 0.4026	 2.4880	 2.8907	-2.0854	60.1536	99.9977	
   634	 1.0284	 2.6392	 3.6677	-1.6108	 1.3361	 2.4296	 3.7656	-1.0935	 0.3286	 2.4095	 2.7382	-2.0810	60.2091	99.9964	
   635	 0.5750	 2.2201	 2.7951	-1.6451	 0.9186	 2.1011	 3.0196	-1.1825	-0.0784	 2.0959	 2.0175	-2.1743	60.0268	99.9953	
   636	 0.1629	 2.1063	 2.2693	-1.9435	 0.6585	 2.0831	 2.7416	-1.4246	-0.1971	 2.1699	 1.9729	-2.3670	59.9328	99.9959	
   637	 0.4736	 2.4843	 2.9580	-2.0108	 1.0820	 2.6306	 3.7127	-1.5486	 0.4146	 2.7197	 3.1343	-2.3051	59.9441	99.9941	
   638	 1.3409	 2.9149	 4.2559	-1.5740	 1.7970	 3.0504	 4.8475	-1.2534	 1.0558	 3.1638	 4.2197	-2.1081	59.5206	99.9950	
   639	 1.5420	 2.8876	 4.4297	-1.3455	 1.8560	 2.9214	 4.7774	-1.0654	 0.9119	 2.9758	 3.8878	-2.0639	59.3763	99.9948	
   640	 0.8183	 2.3805	 3.1989	-1.5622	 1.1815	 2.5135	 3.6950	-1.3319	 0.4231	 2.4331	 2.8563	-2.0100	60.0552	99.9908	
   641	 0.9575	 2.6263	 3.5839	-1.6688	 1.4239	 2.6854	 4.1093	-1.2615	 0.5163	 2.8822	 3.3986	-2.3659	59.1209	99.9966	
   642	 1.2287	 2.8625	 4.0913	-1.6338	 1.6846	 2.9444	 4.6291	-1.2598	 0.7806	 3.0310	 3.8117	-2.2504	59.3752	99.9942	
   643	 1.2709	 2.7843	 4.0553	-1.5135	 1.7298	 2.8071	 4.5369	-1.0773	 0.8282	 2.9363	 3.7647	-2.1081	59.5351	99.9960	
   644	 1.1308	 2.5232	 3.6541	-1.3925	 1.4913	 2.4728	 3.9641	-0.9815	 0.7308	 2.6305	 3.3613	-1.8997	59.9243	99.9973	
   645	 1.1370	 2.4974	 3.6346	-1.3604	 1.5104	 2.4590	 3.9695	-0.9486	 0.8193	 2.6504	 3.4698	-1.8311	59.9909	99.9971	
   646	 1.4037	 2.6571	 4.0609	-1.2533	 1.6534	 2.5202	 4.1736	-0.8668	 1.1204	 2.7204	 3.8409	-1.6000	60.4106	99.9941	
   647	 1.4926	 2.5773	 4.0700	-1.0847	 1.8944	 2.5519	 4.4463	-0.6575	 1.2625	 2.5371	 3.7998	-1.2746	61.0150	99.9952	
   648	 1.0580	 2.2138	 3.2719	-1.1558	 1.4914	 2.2448	 3.7362	-0.7534	 0.8441	 2.3400	 3.1841	-1.4959	60.5209	99.9961	
   649	 0.8398	 2.0832	 2.9231	-1.2434	 1.3277	 2.2852	 3.6129	-0.9575	 0.7206	 2.4336	 3.1543	-1.7130	59.9540	99.9951	
   650	 0.8281	 2.1501	 2.9783	-1.3219	 1.3943	 2.1734	 3.5677	-0.7791	 0.7724	 2.3078	 3.0804	-1.5354	60.7057	99.9967	
   651	 0.7132	 2.0517	 2.7650	-1.3385	 1.2987	 2.1283	 3.4270	-0.8296	 0.6472	 2.2545	 2.9018	-1.6073	60.5390	99.9960	
   652	 0.5731	 2.0565	 2.6297	-1.4833	 1.1396	 2.1334	 3.2730	-0.9938	 0.5309	 2.3749	 2.9059	-1.8440	60.1109	99.9972	
   653	 0.6530	 2.0896	 2.7427	-1.4365	 0.9996	 2.1247	 3.1244	-1.1251	 0.3106	 1.9498	 2.2606	-1.6392	61.0026	99.9908	
   654	-0.1524	 1.3859	 1.2335	-1.5382	 0.5318	 1.3858	 1.9176	-0.8539	-0.2107	 1.4547	 1.2441	-1.6654	61.0639	99.9951	
   655	 0.0352	 1.3948	 1.4301	-1.3595	 0.7712	 1.3912	 2.1624	-0.6200	 0.0742	 1.4364	 1.5106	-1.3622	61.4970	99.9947	
   656	 0.2534	 1.3924	 1.6459	-1.1390	 0.9586	 1.4159	 2.3745	-0.4573	 0.2434	 1.4378	 1.6813	-1.1944	61.4986	99.9937	
   657	 0.3405	 1.4150	 1.7556	-1.0745	 1.0305	 1.3960	 2.4265	-0.3655	 0.2663	 1.4292	 1.6955	-1.1629	61.4879	99.9944	
   658	 0.3001	 1.3908	 1.6910	-1.0907	 0.9701	 1.3848	 2.3549	-0.4147	 0.1958	 1.4202	 1.6161	-1.2244	61.3589	99.9943	
   659	 0.2238	 1.4190	 1.6429	-1.1952	 0.8844	 1.3963	 2.2807	-0.5119	 0.0982	 1.4509	 1.5493	-1.3527	61.2296	99.9949	
   660	 0.1205	 1.3868	 1.5074	-1.2662	 0.7376	 1.3835	 2.1211	-0.6460	-0.0144	 1.4164	 1.4022	-1.4308	61.1804	99.9947	
   661	-0.0833	 1.3682	 1.2850	-1.4514	 0.5349	 1.3243	 1.8592	-0.7894	-0.2576	 1.3366	 1.0790	-1.5942	61.1954	99.9945	
   662	-0.2548	 1.2359	 0.9813	-1.4907	 0.3758	 1.2154	 1.5913	-0.8396	-0.3558	 1.2435	 0.8878	-1.5993	61.2432	99.9949	
   663	-0.2108	 1.1884	 0.9777	-1.3992	 0.3896	 1.2237	 1.6133	-0.8341	-0.3654	 1.2825	 0.9172	-1.6480	60.8739	99.9946	
   664	-0.1183	 1.3029	 1.1847	-1.4212	 0.5617	 1.3278	 1.8895	-0.7661	-0.0637	 1.3641	 1.3005	-1.4279	61.4516	99.9948	
   665	 0.2687	 1.5198	 1.7885	-1.2511	 1.0343	 1.5756	 2.6099	-0.5414	 0.3439	 1.6894	 2.0333	-1.3455	61.1687	99.9951	
   666	 0.9035	 1.7077	 2.6113	-0.8042	 1.5972	 1.6628	 3.2599	-0.0656	 0.8757	 1.4838	 2.3596	-0.6081	62.5218	99.9894	
   667	 0.5793	 1.2330	 1.8124	-0.6537	 1.0497	 1.1543	 2.2040	-0.1046	 0.2470	 1.2829	 1.5300	-1.0358	61.0388	99.9974	
   668	 0.2848	 1.3965	 1.6814	-1.1116	 1.1836	 1.1719	 2.3555	 0.0117	 0.2928	 1.3779	 1.6708	-1.0851	61.7815	99.9983	
   669	 0.4213	 1.4634	 1.8848	-1.0421	 1.0741	 1.4604	 2.5345	-0.3863	 0.3644	 1.5222	 1.8867	-1.1578	61.3792	99.9954	
   670	 0.5856	 1.7390	 2.3248	-1.1534	 1.2024	 1.8420	 3.0445	-0.6396	 0.5365	 2.0304	 2.5669	-1.4939	60.4565	99.9965	
   671	 1.3758	 2.4484	 3.8243	-1.0725	 2.0183	 2.5128	 4.5311	-0.4946	 1.2867	 2.4395	 3.7263	-1.1528	61.2781	99.9907	
   672	 1.3228	 2.2098	 3.5328	-0.8870	 1.7262	 2.1715	 3.8978	-0.4453	 0.8761	 2.1686	 3.0447	-1.2925	60.7056	99.9949	
   673	 1.3417	 2.2654	 3.6072	-0.9237	 1.8280	 2.2077	 4.0357	-0.3797	 1.0735	 2.2656	 3.3393	-1.1921	60.9544	99.9964	
   674	 1.7610	 2.3687	 4.1298	-0.6077	 2.2608	 2.3428	 4.6037	-0.0820	 1.5059	 2.2804	 3.7865	-0.7745	61.4553	99.9936	
   675	 1.8310	 2.3663	 4.1974	-0.5353	 2.3725	 2.4357	 4.8082	-0.0632	 1.7371	 2.4652	 4.2025	-0.7281	61.2292	99.9947	
   676	 2.4478	 2.6469	 5.0949	-0.1991	 3.1135	 2.7319	 5.8454	 0.3816	 2.5440	 2.7291	 5.2732	-0.1851	61.8513	99.9937	
   677	 2.5816	 2.6679	 5.2497	-0.0863	 3.2359	 2.7806	 6.0165	 0.4553	 2.6638	 2.7904	 5.4544	-0.1266	61.7412	99.9936	
   678	 2.4460	 2.3504	 4.7965	 0.0956	 2.7887	 2.1680	 4.9567	 0.6206	 1.8397	 1.9662	 3.8060	-0.1265	62.0843	99.9923	
   679	 1.4942	 1.6773	 3.1716	-0.1831	 2.0163	 1.6756	 3.6919	 0.3408	 1.3182	 1.6955	 3.0139	-0.3773	61.6924	99.9952	
   680	 1.8013	 1.8611	 3.6625	-0.0598	 2.3995	 1.8693	 4.2688	 0.5302	 1.7114	 1.8549	 3.5665	-0.1435	62.0045	99.9942	
   681	 2.1371	 2.0030	 4.1402	 0.1341	 2.7299	 1.9551	 4.6850	 0.7747	 1.9776	 1.9262	 3.9039	 0.0513	62.1644	99.9943	
   682	 2.4397	 2.1103	 4.5501	 0.3294	 2.9501	 2.0883	 5.0384	 0.8618	 2.2263	 1.9982	 4.2246	 0.2281	62.2475	99.9932	
   683	 2.4926	 1.9500	 4.4427	 0.5427	 3.0060	 1.9068	 4.9128	 1.0992	 2.2336	 1.8006	 4.0343	 0.4329	62.4370	99.9927	
   684	 2.4747	 2.0426	 4.5174	 0.4321	 3.1782	 1.7829	 4.9610	 1.3953	 2.4360	 1.6538	 4.0899	 0.7822	63.6970	99.9951	
   685	 2.7395	 2.1716	 4.9113	 0.5679	 3.3370	 2.4617	 5.7986	 0.8753	 2.9259	 2.4441	 5.3701	 0.4818	61.9631	99.9912	
   686	 3.2712	 2.8591	 6.1304	 0.4121	 3.7988	 2.9817	 6.7804	 0.8171	 3.2401	 2.8811	 6.1213	 0.3590	62.0602	99.9916	
   687	 3.2415	 2.7528	 5.9944	 0.4888	 3.7668	 2.6583	 6.4250	 1.1085	 2.9879	 2.4031	 5.3911	 0.5849	62.9058	99.9893	
   688	 2.3983	 1.8049	 4.2033	 0.5934	 2.6619	 1.5847	 4.2466	 1.0773	 1.6947	 1.5306	 3.2254	 0.1641	61.8989	99.9964	
   689	 1.8408	 1.7370	 3.5779	 0.1038	 2.4048	 1.8472	 4.2520	 0.5576	 1.6921	 1.9330	 3.6253	-0.2409	61.2921	99.9947	
   690	 2.2620	 2.4027	 4.6648	-0.1408	 2.9010	 2.5020	 5.4030	 0.3990	 2.3508	 2.4888	 4.8396	-0.1380	61.9156	99.9935	
   691	 2.7046	 2.3723	 5.0769	 0.3323	 3.2223	 2.3163	 5.5386	 0.9060	 2.4509	 2.1678	 4.6187	 0.2831	62.4099	99.9918	
   692	 2.2834	 1.9725	 4.2560	 0.3110	 2.6457	 2.1069	 4.7525	 0.5388	 1.8988	 1.6429	 3.5418	 0.2559	62.6397	99.9759	
   693	 2.0293	 1.6283	 3.6577	 0.4010	 2.5189	 1.5235	 4.0424	 0.9954	 1.6857	 1.4690	 3.1548	 0.2166	62.2769	99.9946	
   694	 1.8623	 1.4397	 3.3021	 0.4226	 2.4035	 1.3650	 3.7685	 1.0385	 1.6358	 1.2929	 2.9288	 0.3428	62.5697	99.9940	
   695	 1.8560	 1.3325	 3.1886	 0.5234	 2.4066	 1.3035	 3.7101	 1.1030	 1.6273	 1.2430	 2.8704	 0.3844	62.4498	99.9933	
   696	 1.8712	 1.3269	 3.1982	 0.5443	 2.4517	 1.2802	 3.7319	 1.1715	 1.6846	 1.2215	 2.9061	 0.4631	62.6173	99.9936	
   697	 1.9332	 1.3197	 3.2529	 0.6135	 2.4976	 1.2699	 3.7675	 1.2277	 1.7189	 1.2086	 2.9276	 0.5103	62.6150	99.9936	
   698	 1.9789	 1.3028	 3.2818	 0.6762	 2.5435	 1.2597	 3.8032	 1.2838	 1.7364	 1.2079	 2.9444	 0.5284	62.5325	99.9934	
   699	 1.9646	 1.3237	 3.2884	 0.6409	 2.5649	 1.2853	 3.8502	 1.2796	 1.7905	 1.2407	 3.0314	 0.5498	62.6242	99.9936	
   700	 2.3121	 1.5317	 3.8439	 0.7804	 2.9327	 1.5584	 4.4911	 1.3743	 2.2499	 1.5524	 3.8024	 0.6975	62.5446	99.9941	
   701	 2.9154	 1.8486	 4.7641	 1.0669	 3.3533	 1.7115	 5.0648	 1.6418	 2.4547	 1.5641	 4.0189	 0.8906	62.7745	99.9928	
   702	 2.3381	 1.4439	 3.7821	 0.8942	 2.8540	 1.3461	 4.2002	 1.5079	 2.0645	 1.2382	 3.3029	 0.8263	62.9407	99.9935	
   703	 2.2573	 1.2626	 3.5199	 0.9947	 2.7967	 1.1595	 3.9562	 1.6372	 1.9448	 1.0647	 3.0096	 0.8800	62.9302	99.9932	
   704	 2.0956	 1.1658	 3.2615	 0.9298	 2.6874	 1.1060	 3.7934	 1.5814	 1.9032	 1.0508	 2.9541	 0.8524	62.9042	99.9937	
   705	 2.1971	 1.1675	 3.3646	 1.0296	 2.8434	 1.1624	 4.0057	 1.6810	 2.1748	 1.1142	 3.2891	 1.0606	63.1350	99.9936	
   706	 2.7268	 1.2925	 4.0194	 1.4343	 3.3925	 1.2411	 4.6337	 2.1514	 2.7017	 1.1525	 3.8544	 1.5492	63.6277	99.9932	
   707	 3.0797	 1.4594	 4.5392	 1.6203	 3.7290	 1.4320	 5.1610	 2.2970	 2.9913	 1.3390	 4.3305	 1.6523	63.4739	99.9922	
   708	 3.1165	 1.4224	 4.5390	 1.6941	 3.6449	 1.3558	 5.0007	 2.2891	 2.8757	 1.2466	 4.1225	 1.6291	63.3742	99.9931	
   709	 2.9360	 1.2700	 4.2061	 1.6660	 3.4759	 1.1902	 4.6662	 2.2857	 2.6975	 1.0715	 3.7691	 1.6261	63.4866	99.9930	
   710	 2.6469	 1.1265	 3.7735	 1.5204	 3.2404	 1.0225	 4.2629	 2.2180	 2.4435	 0.8952	 3.3388	 1.5482	63.6404	99.9926	
   711	 2.3694	 1.0491	 3.4186	 1.3204	 2.9062	 0.9850	 3.8912	 1.9212	 2.1159	 0.8765	 2.9925	 1.2393	63.2238	99.9928	
   712	 2.2383	 0.9410	 3.1795	 1.2973	 2.8144	 0.8915	 3.7059	 1.9229	 2.1039	 0.7570	 2.8610	 1.3468	63.5557	99.9923	
   713	 2.1881	 0.8814	 3.0696	 1.3067	 2.7854	 0.8486	 3.6340	 1.9368	 2.0340	 0.7597	 2.7938	 1.2743	63.3118	99.9926	
   714	 2.1225	 0.8274	 2.9500	 1.2951	 2.7923	 0.7388	 3.5311	 2.0535	 1.9979	 0.6256	 2.6236	 1.3723	63.6729	99.9920	
   715	 2.0929	 0.8540	 2.9470	 1.2389	 2.7792	 0.8575	 3.6368	 1.9217	 2.1014	 0.8229	 2.9244	 1.2785	63.3329	99.9934	
   716	 2.7429	 1.0363	 3.7793	 1.7066	 3.3123	 1.1166	 4.4289	 2.1957	 3.0035	 0.8975	 3.9012	 2.1060	64.4873	99.9907	
   717	 3.3616	 1.4805	 4.8422	 1.8811	 4.0365	 1.4659	 5.5024	 2.5705	 3.3129	 1.3541	 4.6671	 1.9588	63.7245	99.9914	
   718	 3.4298	 1.4475	 4.8774	 1.9824	 4.0044	 1.3705	 5.3749	 2.6339	 3.2539	 1.2286	 4.4827	 2.0253	63.8286	99.9924	
   719	 3.1919	 1.3789	 4.5709	 1.8130	 3.7359	 1.3222	 5.0581	 2.4138	 2.8456	 1.2284	 4.0741	 1.6172	63.1233	99.9919	
   720	 2.9917	 1.4215	 4.4133	 1.5702	 3.4904	 1.3257	 4.8161	 2.1647	 2.7240	 1.1324	 3.8565	 1.5916	63.6436	99.9917	
   721	 2.9477	 1.3361	 4.2839	 1.6116	 3.4705	 1.3263	 4.7968	 2.1442	 2.6487	 1.2551	 3.9039	 1.3936	62.8838	99.9925	
   722	 3.1264	 1.5908	 4.7173	 1.5356	 3.6425	 1.5444	 5.1869	 2.0982	 2.8359	 1.3797	 4.2157	 1.4563	63.2485	99.9908	
   723	 3.0851	 1.4183	 4.5035	 1.6667	 3.5822	 1.3052	 4.8874	 2.2770	 2.7427	 1.1549	 3.8977	 1.5878	63.4373	99.9924	
   724	 3.0285	 1.3845	 4.4131	 1.6440	 3.6090	 1.3087	 4.9177	 2.3003	 2.8481	 1.1626	 4.0107	 1.6855	63.6567	99.9920	
   725	 2.9405	 1.2136	 4.1542	 1.7269	 3.5180	 1.1144	 4.6324	 2.4037	 2.7403	 0.9964	 3.7368	 1.7440	63.6906	99.9931	
   726	 3.0285	 1.2515	 4.2801	 1.7770	 3.6343	 1.1720	 4.8063	 2.4623	 2.8595	 1.0461	 3.9057	 1.8135	63.7374	99.9923	
   727	 2.9458	 1.1725	 4.1185	 1.7733	 3.5173	 1.1012	 4.6185	 2.4160	 2.7566	 0.9725	 3.7292	 1.7841	63.6922	99.9925	
   728	 2.8686	 1.1854	 4.0541	 1.6833	 3.4783	 1.1156	 4.5939	 2.3626	 2.7168	 0.9934	 3.7103	 1.7235	63.6946	99.9923	
   729	 2.8516	 1.1604	 4.0121	 1.6912	 3.4025	 1.0699	 4.4724	 2.3327	 2.6151	 0.9430	 3.5582	 1.6721	63.6031	99.9928	
   730	 2.8345	 1.1354	 3.9700	 1.6991	 3.4484	 1.0596	 4.5081	 2.3888	 2.7138	 0.9354	 3.6494	 1.7784	63.8166	99.9926	
   731	 2.8722	 1.1137	 3.9860	 1.7585	 3.5066	 1.0314	 4.5380	 2.4752	 2.7705	 0.9024	 3.6729	 1.8681	63.9392	99.9925	
   732	 2.7779	 0.9686	 3.7466	 1.8093	 3.4095	 0.8460	 4.2556	 2.5635	 2.7079	 0.7074	 3.4154	 2.0005	64.2585	99.9934	
   733	 2.6441	 0.8147	 3.4589	 1.8295	 3.2880	 0.6965	 3.9845	 2.5914	 2.5941	 0.5376	 3.1318	 2.0566	64.4169	99.9927	
   734	 2.4340	 0.6889	 3.1230	 1.7451	 3.1274	 0.5614	 3.6888	 2.5660	 2.4358	 0.4081	 2.8440	 2.0277	64.5369	99.9927	
   735	 2.2913	 0.6478	 2.9391	 1.6435	 3.0149	 0.5694	 3.5843	 2.4456	 2.3521	 0.4808	 2.8330	 1.8712	64.2193	99.9935	
   736	 2.7591	 1.0460	 3.8052	 1.7131	 3.5181	 1.0004	 4.5184	 2.5177	 2.9114	 0.9203	 3.8318	 1.9910	64.2017	99.9935	
   737	 3.3274	 1.2976	 4.6251	 2.0299	 3.9417	 1.2059	 5.1477	 2.7358	 3.2100	 1.0562	 4.2663	 2.1538	64.1093	99.9923	
   738	 3.2304	 1.1066	 4.3371	 2.1239	 3.7407	 0.9450	 4.6857	 2.7957	 2.9138	 0.7423	 3.6562	 2.1716	64.2046	99.9920	
   739	 2.5031	 0.6712	 3.1744	 1.8320	 3.0402	 0.5467	 3.5869	 2.4935	 2.1973	 0.4208	 2.6183	 1.7765	63.7819	99.9930	
   740	 2.1261	 0.6227	 2.7489	 1.5033	 2.8062	 0.5191	 3.3253	 2.2870	 1.9727	 0.4757	 2.4484	 1.4970	63.5889	99.9937	
   741	 2.2598	 0.6437	 2.9037	 1.6161	 2.9285	 0.5678	 3.4963	 2.3607	 2.1648	 0.4685	 2.6334	 1.6963	63.8811	99.9925	
   742	 2.3074	 0.6574	 2.9650	 1.6500	 2.9752	 0.5707	 3.5458	 2.4045	 2.2112	 0.4629	 2.6741	 1.7483	63.9625	99.9925	
   743	 2.2697	 0.8121	 3.0820	 1.4576	 3.0432	 0.5992	 3.6424	 2.4441	 2.2256	 0.5165	 2.7422	 1.7091	64.2879	99.9941	
   744	 2.4241	 0.6534	 3.0777	 1.7707	 3.0410	 0.5598	 3.6007	 2.4812	 2.2792	 0.4255	 2.7048	 1.8537	64.0404	99.9924	
   745	 2.3281	 0.6107	 2.9389	 1.7174	 3.0150	 0.4554	 3.4704	 2.5596	 2.2106	 0.3391	 2.5498	 1.8715	64.2416	99.9930	
   746	 2.2203	 0.5019	 2.7223	 1.7184	 2.5331	 0.5060	 3.0391	 2.0271	 2.0865	 0.3089	 2.3956	 1.7776	63.9553	99.9921	
   747	 2.3460	 0.6510	 2.9971	 1.6950	 2.9507	 0.6065	 3.5572	 2.3441	 2.6105	 0.1772	 2.7878	 2.4334	65.7969	99.9867	
   748	 2.5094	 0.7784	 3.2879	 1.7311	 3.0692	 0.7036	 3.7728	 2.3656	 2.2406	 0.5817	 2.8224	 1.6589	63.5863	99.9920	
   749	 2.6253	 0.8920	 3.5174	 1.7333	 3.2168	 0.8435	 4.0602	 2.3733	 2.4339	 0.7099	 3.1439	 1.7240	63.6810	99.9914	
   750	 2.9225	 1.0404	 3.9630	 1.8821	 3.4775	 0.9885	 4.4661	 2.4890	 2.6579	 0.8679	 3.5259	 1.7900	63.5220	99.9918	
   751	 3.0841	 1.1371	 4.2213	 1.9470	 3.6167	 1.0980	 4.7147	 2.5187	 2.7903	 0.9481	 3.7385	 1.8423	63.5237	99.9907	
   752	 3.1092	 1.1669	 4.2763	 1.9423	 3.6373	 1.1105	 4.7479	 2.5268	 2.8138	 0.9511	 3.7650	 1.8627	63.6039	99.9909	
   753	 3.2044	 1.1944	 4.3989	 2.0101	 3.7207	 1.1736	 4.8943	 2.5471	 2.9408	 1.0392	 3.9801	 1.9017	63.4927	99.9915	
   754	 3.3167	 1.3797	 4.6965	 1.9370	 3.6143	 1.4006	 5.0149	 2.2137	 2.6385	 1.1704	 3.8090	 1.4681	62.6328	99.9867	
   755	 2.6604	 1.2232	 3.8837	 1.4372	 3.0568	 1.0634	 4.1203	 1.9934	 2.1550	 0.8441	 2.9992	 1.3109	63.3968	99.9915	
   756	 2.4700	 0.9024	 3.3725	 1.5675	 2.9980	 0.8505	 3.8485	 2.1475	 2.1791	 0.7465	 2.9257	 1.4326	63.2617	99.9924	
   757	 2.6729	 1.0387	 3.7117	 1.6342	 3.1930	 1.0064	 4.1994	 2.1865	 2.3929	 0.8198	 3.2128	 1.5731	63.5108	99.9898	
   758	 2.9054	 1.0154	 3.9209	 1.8900	 3.3751	 0.9392	 4.3143	 2.4358	 2.5700	 0.7474	 3.3175	 1.8226	63.7112	99.9911	
   759	 3.2187	 0.7746	 3.9934	 2.4442	 3.4225	 0.8412	 4.2638	 2.5813	 2.6543	 0.6862	 3.3406	 1.9681	62.9280	99.9913	
   760	 2.9781	 1.0589	 4.0372	 1.9192	 3.4905	 0.9837	 4.4743	 2.5068	 2.6446	 0.8374	 3.4822	 1.8072	63.5540	99.9916	
   761	 2.8974	 1.1435	 4.0410	 1.7539	 3.2993	 1.0074	 4.3067	 2.2919	 2.3580	 0.8211	 3.1791	 1.5369	63.3200	99.9915	
   762	 2.7959	 1.0089	 3.8049	 1.7870	 3.2565	 0.9562	 4.2127	 2.3003	 2.4393	 0.8142	 3.2535	 1.6251	63.3442	99.9920	
   763	 2.9036	 1.1177	 4.0215	 1.7859	 3.3980	 0.9911	 4.3891	 2.4069	 2.5182	 0.7609	 3.2792	 1.7573	63.8252	99.9898	
   764	 2.6926	 0.8437	 3.5364	 1.8489	 3.1510	 0.7404	 3.8914	 2.4107	 2.2978	 0.5602	 2.8582	 1.7376	63.6557	99.9915	
   765	 2.5373	 0.8541	 3.3915	 1.6832	 3.0470	 0.7788	 3.8258	 2.2682	 2.2033	 0.6489	 2.8522	 1.5544	63.4177	99.9920	
   766	 2.6783	 0.9976	 3.6760	 1.6807	 3.2045	 0.9754	 4.1799	 2.2291	 2.4790	 0.7933	 3.2725	 1.6857	63.6818	99.9906	
   767	 2.9081	 1.0613	 3.9695	 1.8468	 3.3445	 0.8701	 4.2146	 2.4744	 2.5327	 0.7024	 3.2351	 1.8303	63.9071	99.9941	
   768	 2.7959	 0.8760	 3.6719	 1.9199	 3.1992	 0.7695	 3.9687	 2.4297	 2.3406	 0.5973	 2.9380	 1.7433	63.5300	99.9922	
   769	 2.6244	 0.8767	 3.5012	 1.7477	 3.1479	 0.8019	 3.9498	 2.3461	 2.2876	 0.6999	 2.9876	 1.5877	63.3405	99.9925	
   770	 2.7887	 1.0194	 3.8082	 1.7693	 3.3689	 0.9482	 4.3171	 2.4208	 2.5019	 0.8969	 3.3989	 1.6049	63.2352	99.9933	
   771	 3.1083	 1.1516	 4.2601	 1.9567	 3.5494	 1.0827	 4.6321	 2.4667	 2.7235	 0.8964	 3.6200	 1.8271	63.5515	99.9911	
   772	 3.1146	 1.1259	 4.2406	 1.9888	 3.5532	 1.0343	 4.5876	 2.5189	 2.6819	 0.8825	 3.5645	 1.7995	63.4248	99.9921	
   773	 3.1146	 1.1259	 4.2406	 1.9888	 3.5525	 1.0212	 4.5737	 2.5313	 2.7036	 0.8507	 3.5544	 1.8529	63.5880	99.9921	
   774	 3.0733	 1.0864	 4.1598	 1.9870	 3.5188	 1.0135	 4.5323	 2.5053	 2.6922	 0.8550	 3.5473	 1.8372	63.5108	99.9920	
   775	 3.1532	 1.1194	 4.2728	 2.0338	 3.5938	 1.0462	 4.6399	 2.5476	 2.7223	 0.8732	 3.5956	 1.8491	63.4665	99.9911	
   776	 2.8040	 1.2797	 4.0838	 1.5244	 3.2986	 0.9943	 4.2928	 2.3043	 2.4628	 0.8172	 3.2800	 1.6456	64.1097	99.9949	
   777	 2.8722	 1.1137	 3.9860	 1.7585	 3.2588	 0.9956	 4.2543	 2.2632	 2.3580	 0.8211	 3.1791	 1.5369	63.2827	99.9920	
   778	 2.8821	 1.1491	 4.0313	 1.7330	 3.2825	 1.0606	 4.3430	 2.2219	 2.4266	 0.9075	 3.3342	 1.5191	63.2122	99.9924	
   779	 2.9665	 1.2588	 4.2254	 1.7078	 3.3421	 1.1726	 4.5147	 2.1695	 2.4717	 0.9909	 3.4627	 1.4808	63.1694	99.9916	
   780	 3.1443	 1.2322	 4.3766	 1.9121	 3.5578	 1.1131	 4.6709	 2.4447	 2.6964	 0.9361	 3.6326	 1.7603	63.5038	99.9922	
   781	 3.1389	 1.1404	 4.2793	 1.9985	 3.5548	 1.0606	 4.6153	 2.4942	 2.6133	 0.9083	 3.5216	 1.7050	63.1713	99.9911	
   782	 3.0599	 1.1226	 4.1826	 1.9373	 3.5999	 0.9232	 4.5232	 2.6767	 2.6187	 0.7881	 3.4070	 1.8306	63.7024	99.9925	
   783	 3.1047	 1.0904	 4.1952	 2.0144	 3.5510	 0.9949	 4.5459	 2.5560	 2.7259	 0.8305	 3.5566	 1.8954	63.6321	99.9923	
   784	 3.2403	 1.1420	 4.3824	 2.0983	 3.6940	 1.0561	 4.7501	 2.6379	 2.8692	 0.8948	 3.7642	 1.9744	63.6379	99.9921	
   785	 3.3202	 1.1751	 4.4954	 2.1452	 3.7552	 1.0804	 4.8356	 2.6747	 2.9457	 0.9074	 3.8533	 2.0383	63.7200	99.9923	
   786	 3.3059	 1.1960	 4.5020	 2.1099	 3.7498	 1.1025	 4.8523	 2.6473	 2.9186	 0.9471	 3.8658	 1.9714	63.5981	99.9924	
   787	 3.3059	 1.1960	 4.5020	 2.1099	 3.7490	 1.0894	 4.8384	 2.6596	 2.9060	 0.9283	 3.8343	 1.9777	63.6363	99.9924	
   788	 3.2583	 1.1823	 4.4407	 2.0760	 3.7085	 1.0775	 4.7860	 2.6309	 2.8879	 0.9173	 3.8053	 1.9705	63.6786	99.9926	
   789	 3.2197	 1.1887	 4.4085	 2.0310	 3.6695	 1.0920	 4.7614	 2.5775	 2.8650	 0.9259	 3.7910	 1.9391	63.6794	99.9924	
   790	 3.1802	 1.1799	 4.3601	 2.0003	 3.6228	 1.0891	 4.7119	 2.5338	 2.8235	 0.9120	 3.7356	 1.9114	63.6777	99.9921	
   791	 3.1497	 1.1911	 4.3409	 1.9585	 3.6037	 1.1028	 4.7065	 2.5009	 2.8247	 0.9352	 3.7599	 1.8895	63.6810	99.9924	
   792	 3.1568	 1.1807	 4.3376	 1.9762	 3.6420	 1.0753	 4.7173	 2.5666	 2.8752	 0.8985	 3.7738	 1.9768	63.8863	99.9924	
   793	 3.1227	 1.1307	 4.2535	 1.9920	 3.5930	 1.0330	 4.6261	 2.5600	 2.8156	 0.8736	 3.6894	 1.9420	63.7622	99.9927	
   794	 3.0841	 1.1371	 4.2213	 1.9470	 3.5739	 1.0468	 4.6207	 2.5271	 2.7933	 0.8938	 3.6872	 1.8996	63.7232	99.9926	
   795	 3.0455	 1.1436	 4.1892	 1.9020	 3.5540	 1.0474	 4.6014	 2.5066	 2.8000	 0.9090	 3.7091	 1.8910	63.7677	99.9932	
   796	 3.0653	 1.2145	 4.2798	 1.8508	 3.5853	 1.1297	 4.7151	 2.4556	 2.8499	 0.9729	 3.8230	 1.8770	63.8120	99.9926	
   797	 3.0895	 1.2290	 4.3186	 1.8605	 3.5784	 1.1256	 4.7040	 2.4529	 2.8162	 0.9974	 3.8137	 1.8188	63.6461	99.9936	
   798	 3.0105	 1.2112	 4.2218	 1.7993	 3.5173	 1.1012	 4.6185	 2.4160	 2.7494	 0.9457	 3.6952	 1.8036	63.7646	99.9929	
   799	 2.9153	 1.1838	 4.0992	 1.7315	 3.4362	 1.0775	 4.5137	 2.3587	 2.6789	 0.9367	 3.6158	 1.7422	63.7248	99.9932	
   800	 2.9135	 1.1532	 4.0668	 1.7604	 3.4194	 1.0167	 4.4361	 2.4027	 2.5988	 0.9668	 3.5657	 1.6320	63.3552	99.9954	
   801	 2.9809	 1.2378	 4.2188	 1.7431	 3.4790	 1.1288	 4.6078	 2.3502	 2.7132	 0.9239	 3.6372	 1.7894	63.8826	99.9916	
   802	 2.9162	 1.1991	 4.1154	 1.7171	 3.3926	 1.1272	 4.5197	 2.2654	 2.6307	 1.0198	 3.6506	 1.6109	63.3597	99.9936	
   803	 2.9351	 1.1218	 4.0569	 1.8133	 3.3674	 0.9219	 4.2893	 2.4455	 2.3514	 0.8058	 3.1573	 1.5455	63.2339	99.9936	
   804	 2.9064	 1.2966	 4.2031	 1.6098	 3.3367	 1.1947	 4.5314	 2.1420	 2.4603	 0.9952	 3.4556	 1.4651	63.3349	99.9909	
   805	 2.8911	 1.3022	 4.1935	 1.5889	 3.2495	 1.1800	 4.4295	 2.0695	 2.3477	 0.9607	 3.3085	 1.3870	63.2387	99.9910	
   806	 2.8318	 1.2225	 4.0544	 1.6094	 3.2174	 1.0846	 4.3020	 2.1329	 2.3212	 0.8998	 3.2211	 1.4214	63.2817	99.9922	
   807	 2.8157	 1.2128	 4.0286	 1.6029	 3.2320	 1.1060	 4.3380	 2.1259	 2.3573	 0.9217	 3.2791	 1.4357	63.2893	99.9916	
   808	 2.8157	 1.2128	 4.0286	 1.6029	 3.2572	 1.0833	 4.3405	 2.1739	 2.4037	 0.9161	 3.3199	 1.4876	63.4168	99.9926	
   809	 2.8866	 1.2257	 4.1124	 1.6609	 3.3536	 1.1416	 4.4951	 2.2120	 2.5819	 0.9791	 3.5611	 1.6029	63.5151	99.9924	
   810	 3.0751	 1.2499	 4.3252	 1.8252	 3.5471	 1.1573	 4.7043	 2.3898	 2.7457	 0.9884	 3.7343	 1.7573	63.5981	99.9921	
   811	 3.0482	 1.1895	 4.2378	 1.8587	 3.5096	 1.0839	 4.5936	 2.4257	 2.7066	 0.9086	 3.6154	 1.7980	63.6753	99.9923	
   812	 2.8552	 1.0887	 3.9440	 1.7665	 3.3246	 0.9847	 4.3092	 2.3399	 2.4622	 0.8056	 3.2678	 1.6566	63.5412	99.9914	
   813	 2.6495	 1.0395	 3.6891	 1.6101	 3.1150	 0.9213	 4.0363	 2.1937	 2.2249	 0.7293	 2.9543	 1.4956	63.4889	99.9909	
   814	 2.0857	 0.5985	 2.6843	 1.4871	 2.4039	 0.4531	 2.8570	 1.9507	 1.3374	 0.2595	 1.5970	 1.0779	62.8840	99.9904	
   815	 0.9266	 0.3774	 1.3040	 0.5492	 1.6031	 0.2729	 1.8759	 1.3302	 0.8587	 0.1381	 0.9969	 0.7206	63.6390	99.9921	
   816	 1.7059	 0.7700	 2.4761	 0.9359	 2.5491	 0.6677	 3.2168	 1.8814	 1.8866	 0.3899	 2.2766	 1.4967	64.8179	99.9867	
   817	 2.6100	 0.8977	 3.5078	 1.7124	 2.9514	 0.6197	 3.5711	 2.3318	 2.1017	 0.1497	 2.2515	 1.9519	64.9896	99.9872	
   818	 2.2590	 0.8943	 3.1534	 1.3647	 2.6884	 0.5492	 3.2376	 2.1391	 1.7735	 0.1194	 1.8930	 1.6540	64.9436	99.9884	
   819	 2.1261	 0.8886	 3.0148	 1.2375	 2.5078	 0.5287	 3.0366	 1.9791	 1.5452	 0.1047	 1.6501	 1.4405	64.6841	99.9887	
   820	 1.9008	 0.9015	 2.8023	 0.9993	 2.2700	 0.5495	 2.8195	 1.7204	 1.2947	 0.1102	 1.4050	 1.1845	64.5099	99.9878	
   821	 1.7374	 0.9070	 2.6445	 0.8303	 2.0718	 0.5690	 2.6409	 1.5028	 1.0978	 0.1369	 1.2348	 0.9608	64.2517	99.9881	
   822	 1.6700	 0.9554	 2.6255	 0.7147	 2.0137	 0.5972	 2.6109	 1.4165	 1.0062	 0.1713	 1.1776	 0.8349	64.1636	99.9882	
   823	 1.6234	 0.9570	 2.5804	 0.6664	 1.9219	 0.6177	 2.5396	 1.3042	 0.8900	 0.1795	 1.0696	 0.7105	63.9446	99.9873	
   824	 1.5524	 0.9440	 2.4966	 0.6084	 1.8676	 0.5975	 2.4651	 1.2701	 0.8653	 0.1533	 1.0188	 0.7120	64.0737	99.9876	
   825	 1.4968	 0.9255	 2.4224	 0.5713	 1.7659	 0.5613	 2.3272	 1.2046	 0.7352	 0.1195	 0.8549	 0.6157	63.9369	99.9882	
   826	 1.3729	 0.9400	 2.3129	 0.4329	 1.6603	 0.5735	 2.2338	 1.0868	 0.6660	 0.1337	 0.7998	 0.5323	63.9818	99.9887	
   827	 1.4357	 0.9480	 2.3838	 0.4877	 1.7735	 0.5786	 2.3522	 1.1949	 0.7960	 0.1675	 0.9637	 0.6285	64.0758	99.9895	
   828	 1.4986	 0.9561	 2.4548	 0.5425	 1.7743	 0.5918	 2.3661	 1.1825	 0.7954	 0.1560	 0.9515	 0.6395	64.0282	99.9892	
   829	 1.3881	 0.9343	 2.3225	 0.4538	 1.6863	 0.5639	 2.2502	 1.1224	 0.6901	 0.1483	 0.8384	 0.5418	63.9415	99.9895	
   830	 1.3558	 0.9150	 2.2709	 0.4408	 1.6588	 0.5472	 2.2061	 1.1116	 0.6774	 0.1294	 0.8069	 0.5480	63.9849	99.9895	
   831	 1.3082	 0.9013	 2.2096	 0.4070	 1.5915	 0.5319	 2.1234	 1.0596	 0.6064	 0.1089	 0.7153	 0.4975	63.9384	99.9895	
   832	 1.2202	 0.8634	 2.0837	 0.3569	 1.4959	 0.4867	 1.9826	 1.0092	 0.5064	 0.0932	 0.5997	 0.4132	63.8080	99.9907	
   833	 1.1583	 0.8706	 2.0290	 0.2877	 1.4898	 0.4957	 1.9855	 0.9941	 0.5184	 0.1005	 0.6191	 0.4179	63.9415	99.9903	
   834	 1.1287	 0.8972	 2.0259	 0.2315	 1.4385	 0.5280	 1.9666	 0.9105	 0.4727	 0.1177	 0.5905	 0.3550	63.8965	99.9900	
   835	 1.1682	 0.9060	 2.0743	 0.2621	 1.5387	 0.5380	 2.0767	 1.0008	 0.6437	 0.1539	 0.7977	 0.4898	64.1233	99.9911	
   836	 1.3720	 0.9246	 2.2967	 0.4473	 1.7284	 0.6020	 2.3304	 1.1264	 0.8394	 0.2162	 1.0557	 0.6232	64.0451	99.9903	
   837	 1.3818	 0.9601	 2.3421	 0.4218	 1.7085	 0.6026	 2.3112	 1.1059	 0.7984	 0.2139	 1.0124	 0.5846	64.0392	99.9910	
   838	 1.3513	 0.9714	 2.3228	 0.3800	 1.7093	 0.6158	 2.3250	 1.0935	 0.7942	 0.2450	 1.0393	 0.5492	63.9999	99.9912	
   839	 1.3747	 0.9706	 2.3453	 0.4041	 1.7628	 0.6228	 2.3856	 1.1400	 0.8653	 0.2655	 1.1309	 0.5997	64.0480	99.9914	
   840	 1.3998	 1.0004	 2.4003	 0.3994	 1.8194	 0.6824	 2.5018	 1.1370	 0.9628	 0.3470	 1.3099	 0.6158	64.0161	99.9916	
   841	 1.5920	 1.0859	 2.6779	 0.5061	 2.0167	 0.7637	 2.7804	 1.2530	 1.1332	 0.3716	 1.5049	 0.7616	64.2261	99.9895	
   842	 1.5426	 1.0415	 2.5842	 0.5010	 1.9112	 0.6619	 2.5731	 1.2493	 0.9996	 0.2683	 1.2679	 0.7313	64.2570	99.9910	
   843	 1.4779	 1.0028	 2.4809	 0.4751	 1.8959	 0.6273	 2.5232	 1.2686	 1.0676	 0.2309	 1.2986	 0.8367	64.5599	99.9914	
   844	 1.6404	 0.9819	 2.6225	 0.6585	 2.0412	 0.6139	 2.6551	 1.4274	 1.2122	 0.2062	 1.4184	 1.0060	64.6451	99.9910	
   845	 1.6629	 0.9658	 2.6288	 0.6970	 2.0986	 0.5726	 2.6712	 1.5261	 1.2453	 0.1701	 1.4155	 1.0752	64.7712	99.9912	
   846	 1.6763	 0.9296	 2.6060	 0.7468	 2.0902	 0.5421	 2.6324	 1.5481	 1.2321	 0.1397	 1.3718	 1.0924	64.7277	99.9912	
   847	 1.6620	 0.9505	 2.6126	 0.7114	 2.0917	 0.5684	 2.6601	 1.5233	 1.2224	 0.1787	 1.4012	 1.0437	64.6446	99.9912	
   848	 1.6548	 0.9610	 2.6159	 0.6938	 2.1055	 0.5767	 2.6822	 1.5288	 1.2296	 0.2055	 1.4352	 1.0241	64.6041	99.9915	
   849	 1.6449	 0.9255	 2.5705	 0.7194	 2.0772	 0.5469	 2.6242	 1.5303	 1.2164	 0.1751	 1.3915	 1.0413	64.6036	99.9917	
   850	 1.6386	 0.9513	 2.5900	 0.6873	 2.0994	 0.5857	 2.6851	 1.5137	 1.2405	 0.1896	 1.4302	 1.0508	64.6892	99.9904	
   851	 1.6602	 0.9199	 2.5802	 0.7403	 2.1223	 0.5236	 2.6459	 1.5988	 1.2712	 0.1072	 1.3786	 1.1640	64.9398	99.9906	
   852	 1.7185	 0.8514	 2.5700	 0.8671	 2.1667	 0.4871	 2.6538	 1.6796	 1.3001	 0.1023	 1.4025	 1.1978	64.7307	99.9908	
   853	 1.7580	 0.8603	 2.6184	 0.8977	 2.1606	 0.4960	 2.6566	 1.6646	 1.2766	 0.0993	 1.3760	 1.1773	64.6430	99.9906	
   854	 1.6736	 0.8837	 2.5574	 0.7900	 2.1017	 0.5111	 2.6128	 1.5906	 1.2128	 0.1056	 1.3185	 1.1072	64.6846	99.9902	
   855	 1.6188	 0.8804	 2.4994	 0.7385	 2.0489	 0.5172	 2.5661	 1.5318	 1.1779	 0.1069	 1.2848	 1.0710	64.6851	99.9900	
   856	 1.6521	 0.9151	 2.5672	 0.7370	 2.1040	 0.5505	 2.6544	 1.5535	 1.2092	 0.1482	 1.3575	 1.0609	64.6440	99.9898	
   857	 1.7068	 0.9183	 2.6253	 0.7885	 2.1109	 0.5546	 2.6655	 1.5562	 1.2254	 0.1244	 1.3500	 1.1010	64.6835	99.9894	
   858	 1.5722	 0.8820	 2.4543	 0.6902	 1.9824	 0.5149	 2.4973	 1.4675	 1.0743	 0.1339	 1.2083	 0.9403	64.4289	99.9908	
   859	 1.6539	 0.9457	 2.5997	 0.7082	 2.0933	 0.5947	 2.6879	 1.4986	 1.2104	 0.1714	 1.3819	 1.0390	64.6440	99.9890	
   860	 1.8101	 0.9506	 2.7608	 0.8595	 2.2523	 0.5895	 2.8419	 1.6628	 1.3573	 0.1930	 1.5504	 1.1643	64.6467	99.9900	
   861	 1.8145	 0.7612	 2.5759	 1.0533	 2.1209	 0.3833	 2.5042	 1.7375	 1.0972	 0.0132	 1.1105	 1.0841	64.1615	99.9908	
   862	 0.9221	 0.3008	 1.2230	 0.6212	 1.2743	-0.0147	 1.2596	 1.2890	 0.2699	-0.3080	-0.0380	 0.5779	63.6799	99.9915	
   863	 0.0457	-0.0169	 0.0289	 0.0627	 0.4950	-0.2833	 0.2116	 0.7783	-0.4335	-0.4868	-0.9201	 0.0533	63.3375	99.9931	
   864	-0.2541	-0.0783	-0.3323	-0.1758	 0.3145	-0.3038	 0.0106	 0.6183	-0.4557	-0.4666	-0.9223	 0.0109	63.5769	99.9941	
   865	-0.2092	 0.0225	-0.1867	-0.2317	 0.3366	-0.1511	 0.1855	 0.4877	-0.5317	-0.2433	-0.7749	-0.2884	62.7726	99.9941	
   866	-0.4714	 0.0723	-0.3989	-0.5437	-0.0512	-0.1956	-0.2468	 0.1445	-1.0743	-0.3584	-1.4326	-0.7159	62.4951	99.9933	
   867	-0.7587	-0.1735	-0.9321	-0.5852	-0.2798	-0.4732	-0.7530	 0.1935	-1.1838	-0.6716	-1.8552	-0.5122	63.2288	99.9938	
   868	-0.6142	-0.2347	-0.8488	-0.3795	-0.1451	-0.5565	-0.7016	 0.4114	-1.0892	-0.7602	-1.8493	-0.3290	63.3529	99.9938	
   869	-0.6546	-0.2589	-0.9134	-0.3957	-0.1596	-0.5779	-0.7376	 0.4183	-1.0964	-0.7870	-1.8833	-0.3094	63.4410	99.9935	
   870	-0.6564	-0.2895	-0.9458	-0.3669	-0.1466	-0.5827	-0.7294	 0.4361	-1.0494	-0.7810	-1.8303	-0.2684	63.4486	99.9935	
   871	-0.6546	-0.2589	-0.9134	-0.3957	-0.1122	-0.5619	-0.6741	 0.4497	-0.9958	-0.7598	-1.7555	-0.2360	63.5829	99.9937	
   872	-0.6070	-0.2452	-0.8521	-0.3618	-0.0587	-0.5549	-0.6136	 0.4962	-0.9663	-0.7532	-1.7194	-0.2131	63.5820	99.9935	
   873	-0.5989	-0.2403	-0.8392	-0.3586	-0.0442	-0.5334	-0.5776	 0.4893	-0.9302	-0.7313	-1.6614	-0.1989	63.5865	99.9933	
   874	-0.5280	-0.2274	-0.7553	-0.3005	 0.0300	-0.5139	-0.4839	 0.5439	-0.8357	-0.7078	-1.5433	-0.1279	63.6346	99.9935	
   875	-0.4885	-0.2185	-0.7069	-0.2699	 0.0759	-0.5241	-0.4482	 0.6001	-0.8248	-0.7236	-1.5484	-0.1012	63.6739	99.9933	
   876	-0.4984	-0.2540	-0.7523	-0.2443	 0.0415	-0.5449	-0.5034	 0.5865	-0.8495	-0.7498	-1.5992	-0.0997	63.6293	99.9932	
   877	-0.5540	-0.2726	-0.8265	-0.2815	 0.0002	-0.5699	-0.5697	 0.5701	-0.8971	-0.7674	-1.6643	-0.1297	63.6284	99.9933	
   878	-0.5873	-0.3072	-0.8944	-0.2800	-0.0418	-0.6080	-0.6499	 0.5662	-0.9633	-0.8075	-1.7706	-0.1558	63.5802	99.9931	
   879	-0.7148	-0.3540	-1.0686	-0.3607	-0.1581	-0.6657	-0.8237	 0.5076	-1.0825	-0.8572	-1.9396	-0.2254	63.5766	99.9934	
   880	-0.8036	-0.4072	-1.2107	-0.3964	-0.2590	-0.6887	-0.9477	 0.4297	-1.1662	-0.8966	-2.0627	-0.2696	63.5318	99.9926	
   881	-0.8755	-0.4354	-1.3108	-0.4400	-0.2858	-0.6922	-0.9780	 0.4065	-1.2011	-0.8953	-2.0963	-0.3058	63.4925	99.9917	
   882	-0.8440	-0.4314	-1.2753	-0.4126	-0.1772	-0.6519	-0.8291	 0.4747	-1.0633	-0.8231	-1.8862	-0.2402	63.5101	99.9915	
   883	-0.6214	-0.3572	-0.9785	-0.2642	 0.1065	-0.5690	-0.4624	 0.6755	-0.8387	-0.7657	-1.6042	-0.0730	63.6442	99.9887	
   884	-1.0461	-0.4194	-1.4653	-0.6267	-0.5551	-0.6397	-1.1948	 0.0847	-1.4096	-0.7521	-2.1616	-0.6575	62.8068	99.9948	
   885	-0.8063	-0.1872	-0.9934	-0.6190	-0.0144	-0.3634	-0.3778	 0.3490	-0.6713	-0.4624	-1.1337	-0.2089	63.7288	99.9943	
   886	-0.4184	-0.0880	-0.5063	-0.3304	 0.1829	-0.2821	-0.0992	 0.4650	-0.5973	-0.3840	-0.9811	-0.2133	63.2015	99.9947	
   887	-0.6644	-0.0284	-0.6928	-0.6360	-0.0634	-0.1777	-0.2411	 0.1143	-0.7359	-0.2434	-0.9791	-0.4925	62.9624	99.9954	
   888	-0.4031	 0.0393	-0.3637	-0.4425	 0.2647	-0.1313	 0.1334	 0.3960	-0.5251	-0.2280	-0.7530	-0.2970	63.1295	99.9938	
   889	-0.4355	-0.1130	-0.5484	-0.3225	 0.0866	-0.3404	-0.2538	 0.4269	-0.8490	-0.5138	-1.3627	-0.3351	63.0354	99.9924	
   890	-0.8297	-0.3194	-1.1489	-0.5103	-0.1949	-0.4979	-0.6927	 0.3030	-0.9983	-0.5818	-1.5800	-0.4165	63.0611	99.9944	
   891	-0.4571	-0.2145	-0.6715	-0.2425	 0.1891	-0.4050	-0.2159	 0.5941	-0.6689	-0.5283	-1.1971	-0.1406	63.2770	99.9929	
   892	-0.2407	-0.1145	-0.3551	-0.1261	 0.4415	-0.2904	 0.1511	 0.7318	-0.4004	-0.4107	-0.8109	 0.0103	63.3770	99.9926	
   893	 0.0377	-0.0218	 0.0160	 0.0595	 0.6999	-0.1847	 0.5152	 0.8847	-0.1517	-0.3387	-0.4903	 0.1870	63.4658	99.9914	
   894	 0.1158	-0.0193	 0.0965	 0.1351	 0.7741	-0.1652	 0.6089	 0.9393	-0.0643	-0.3420	-0.4062	 0.2776	63.5525	99.9905	
   895	 0.1032	-0.1007	 0.0026	 0.2039	 0.8025	-0.2494	 0.5531	 1.0519	-0.0101	-0.4214	-0.4314	 0.4112	63.7674	99.9907	
   896	 0.1409	-0.1225	 0.0185	 0.2634	 0.9470	-0.2760	 0.6711	 1.2230	 0.1224	-0.4534	-0.3309	 0.5758	64.0688	99.9892	
   897	-0.0809	-0.1813	-0.2621	 0.1005	 0.3964	-0.3810	 0.0154	 0.7774	-0.4347	-0.5100	-0.9445	 0.0753	63.1863	99.9945	
   898	 0.1176	 0.0113	 0.1290	 0.1063	 1.0265	-0.1645	 0.8620	 1.1911	 0.4572	-0.2957	 0.1616	 0.7528	64.6773	99.9936	
   899	 0.9130	 0.1477	 1.0609	 0.7653	 1.4885	 0.0135	 1.5020	 1.4750	 0.7425	-0.0781	 0.6646	 0.8206	63.5425	99.9945	
   900	 1.3198	 0.4355	 1.7554	 0.8843	 1.9771	 0.3090	 2.2862	 1.6681	 1.3067	 0.1175	 1.4244	 1.1892	64.2257	99.9920	
   901	 1.1967	 0.0664	 1.2633	 1.1303	 1.9382	-0.0185	 1.9197	 1.9567	 1.2948	-0.2263	 1.0686	 1.5212	64.6391	99.9902	
   902	 1.1393	 0.0173	 1.1566	 1.1220	 1.8189	-0.1286	 1.6903	 1.9476	 1.0877	-0.2844	 0.8034	 1.3721	64.3388	99.9925	
   903	 1.0782	 0.0398	 1.1181	 1.0384	 1.7975	-0.1543	 1.6433	 1.9518	 1.0022	-0.3586	 0.6437	 1.3608	64.5806	99.9909	
   904	 0.9552	-0.0634	 0.8919	 1.0186	 1.6324	-0.2542	 1.3782	 1.8865	 0.8167	-0.4484	 0.3685	 1.2651	64.4073	99.9913	
   905	 0.9067	-0.0924	 0.8144	 0.9991	 1.5260	-0.2551	 1.2709	 1.7812	 0.6716	-0.4352	 0.2365	 1.1068	64.0249	99.9911	
   906	 0.6625	-0.1352	 0.5274	 0.7977	 1.1551	-0.3528	 0.8023	 1.5079	 0.2392	-0.5622	-0.3229	 0.8014	63.7859	99.9918	
   907	 0.1516	-0.2046	-0.0529	 0.3563	 0.6381	-0.4502	 0.1879	 1.0882	-0.2088	-0.6538	-0.8625	 0.4450	63.7769	99.9933	
   908	-0.1249	-0.2668	-0.3916	 0.1419	 0.4155	-0.5088	-0.0932	 0.9243	-0.4021	-0.6698	-1.0718	 0.2677	63.6953	99.9942	
   909	-0.3359	-0.2749	-0.6107	-0.0609	 0.2151	-0.5286	-0.3135	 0.7438	-0.6056	-0.6583	-1.2639	 0.0527	63.5220	99.9950	
   910	-0.4544	-0.3015	-0.7558	-0.1528	 0.1019	-0.5337	-0.4318	 0.6357	-0.6701	-0.6637	-1.3336	-0.0064	63.5256	99.9949	
   911	-0.4867	-0.3209	-0.8075	-0.1658	 0.1073	-0.5558	-0.4485	 0.6631	-0.6809	-0.6478	-1.3286	-0.0331	63.4445	99.9955	
   912	-0.5253	-0.3144	-0.8397	-0.2108	 0.0752	-0.5373	-0.4621	 0.6124	-0.6863	-0.6398	-1.3261	-0.0465	63.4896	99.9952	
   913	-0.5253	-0.3144	-0.8397	-0.2108	 0.0813	-0.5462	-0.4649	 0.6275	-0.6869	-0.6514	-1.3382	-0.0355	63.5310	99.9953	
   914	-0.5729	-0.3282	-0.9010	-0.2447	 0.0209	-0.5574	-0.5366	 0.5783	-0.7459	-0.6647	-1.4105	-0.0813	63.4860	99.9952	
   915	-0.5891	-0.3378	-0.9268	-0.2512	 0.0010	-0.5568	-0.5558	 0.5578	-0.7580	-0.6720	-1.4299	-0.0860	63.4860	99.9950	
   916	-0.6052	-0.3475	-0.9526	-0.2577	-0.0067	-0.5741	-0.5807	 0.5674	-0.7755	-0.6713	-1.4467	-0.1041	63.4436	99.9954	
   917	-0.6052	-0.3475	-0.9526	-0.2577	-0.0120	-0.5520	-0.5640	 0.5400	-0.7453	-0.6531	-1.3984	-0.0922	63.4482	99.9952	
   918	-0.5576	-0.3338	-0.8913	-0.2238	 0.0484	-0.5408	-0.4924	 0.5892	-0.6689	-0.6405	-1.3093	-0.0284	63.5373	99.9953	
   919	-0.5334	-0.3193	-0.8526	-0.2141	 0.1019	-0.5337	-0.4318	 0.6357	-0.6333	-0.6302	-1.2634	-0.0031	63.5814	99.9953	
   920	-0.5020	-0.3152	-0.8171	-0.1867	 0.1096	-0.5165	-0.4069	 0.6260	-0.6153	-0.6193	-1.2345	 0.0040	63.5391	99.9951	
   921	-0.5091	-0.3048	-0.8138	-0.2044	 0.1035	-0.5075	-0.4040	 0.6109	-0.6093	-0.6156	-1.2248	 0.0064	63.5822	99.9951	
   922	-0.4858	-0.3056	-0.7913	-0.1802	 0.1165	-0.5123	-0.3958	 0.6288	-0.6207	-0.6113	-1.2319	-0.0094	63.4951	99.9952	
   923	-0.4930	-0.2951	-0.7880	-0.1979	 0.1172	-0.4992	-0.3819	 0.6164	-0.6141	-0.5961	-1.2101	-0.0180	63.4969	99.9952	
   924	-0.4616	-0.2911	-0.7525	-0.1705	 0.1509	-0.4915	-0.3406	 0.6424	-0.5551	-0.5828	-1.1378	 0.0278	63.5436	99.9954	
   925	-0.3826	-0.2733	-0.6558	-0.1092	 0.2449	-0.4726	-0.2276	 0.7175	-0.4545	-0.5556	-1.0100	 0.1011	63.5910	99.9956	
   926	-0.3179	-0.2346	-0.5524	-0.0833	 0.3145	-0.4178	-0.1033	 0.7324	-0.3877	-0.5040	-0.8916	 0.1163	63.5525	99.9952	
   927	-0.1428	-0.1741	-0.3168	 0.0313	 0.5501	-0.3640	 0.1861	 0.9141	-0.0872	-0.4456	-0.5327	 0.3584	63.9047	99.9956	
   928	 0.2028	-0.1297	 0.0732	 0.3325	 0.8132	-0.2936	 0.5196	 1.1068	 0.0790	-0.3899	-0.3108	 0.4689	63.6049	99.9947	
   929	-0.0063	-0.1072	-0.1134	 0.1009	 0.6128	-0.3134	 0.2994	 0.9262	-0.0866	-0.4340	-0.5205	 0.3474	63.8094	99.9950	
   930	 0.1678	-0.1950	-0.0271	 0.3628	 0.7513	-0.4450	 0.3063	 1.1963	-0.0082	-0.6110	-0.6191	 0.6027	64.0923	99.9945	
   931	 0.1489	-0.2506	-0.1015	 0.3995	 0.7138	-0.5183	 0.1955	 1.2322	-0.0823	-0.6895	-0.7717	 0.6072	64.0852	99.9945	
   932	 0.1166	-0.2699	-0.1532	 0.3866	 0.6917	-0.5571	 0.1346	 1.2488	-0.1443	-0.7607	-0.9049	 0.6164	64.2060	99.9936	
   933	-0.0028	-0.3119	-0.3146	 0.3091	 0.5946	-0.6285	-0.0339	 1.2231	-0.2774	-0.8524	-1.1297	 0.5751	64.3269	99.9930	
   934	-0.1150	-0.3643	-0.4792	 0.2493	 0.4791	-0.6730	-0.1939	 1.1521	-0.3845	-0.8948	-1.2793	 0.5103	64.2823	99.9930	
   935	-0.1797	-0.4030	-0.5825	 0.2233	 0.4103	-0.7146	-0.3044	 1.1249	-0.4399	-0.9508	-1.3906	 0.5109	64.3656	99.9929	
   936	-0.2668	-0.4256	-0.6922	 0.1588	 0.3353	-0.7473	-0.4120	 1.0826	-0.5176	-0.9866	-1.5041	 0.4690	64.4065	99.9928	
   937	-0.3637	-0.4836	-0.8472	 0.1199	 0.2191	-0.8049	-0.5859	 1.0240	-0.6428	-1.0399	-1.6827	 0.3971	64.3165	99.9930	
   938	-0.4275	-0.5070	-0.9344	 0.0795	 0.1579	-0.8293	-0.6714	 0.9872	-0.6958	-1.0496	-1.7453	 0.3537	64.2737	99.9935	
   939	-0.4284	-0.5223	-0.9506	 0.0939	 0.1640	-0.8382	-0.6742	 1.0022	-0.6796	-1.0734	-1.7528	 0.3938	64.3600	99.9930	
   940	-0.4122	-0.5126	-0.9248	 0.1004	 0.1785	-0.8168	-0.6382	 0.9953	-0.6543	-1.0356	-1.6898	 0.3814	64.2770	99.9933	
   941	-0.3476	-0.4739	-0.8214	 0.1264	 0.2466	-0.7883	-0.5417	 1.0349	-0.5947	-1.0108	-1.6054	 0.4161	64.3204	99.9933	
   942	-0.2201	-0.4272	-0.6471	 0.2071	 0.4164	-0.7236	-0.3072	 1.1400	-0.3574	-0.9345	-1.2919	 0.5771	64.5029	99.9937	
   943	 0.0735	-0.3400	-0.2664	 0.4136	 0.7238	-0.5757	 0.1481	 1.2995	 0.0063	-0.7818	-0.7754	 0.7880	64.5167	99.9932	
   944	 0.3815	-0.2739	 0.1077	 0.6554	 1.0618	-0.4725	 0.5893	 1.5344	 0.3284	-0.6429	-0.3144	 0.9713	64.4013	99.9931	
   945	 0.5826	-0.3012	 0.2815	 0.8838	 1.2730	-0.4969	 0.7761	 1.7698	 0.6338	-0.7162	-0.0824	 1.3500	64.9512	99.9926	
   946	 0.6670	-0.3245	 0.3425	 0.9915	 1.3525	-0.4994	 0.8531	 1.8519	 0.6711	-0.6712	-0.0000	 1.3422	64.6606	99.9931	
   947	 0.6706	-0.2633	 0.4074	 0.9339	 1.3663	-0.4911	 0.8752	 1.8574	 0.6867	-0.7066	-0.0197	 1.3933	64.9916	99.9929	
   948	 0.6041	-0.1997	 0.4046	 0.8038	 1.3441	-0.4159	 0.9282	 1.7599	 0.6952	-0.6566	 0.0387	 1.3518	65.1193	99.9919	
   949	 0.5198	-0.1763	 0.3435	 0.6961	 1.2829	-0.4402	 0.8427	 1.7231	 0.6199	-0.6461	-0.0261	 1.2659	65.1186	99.9935	
   950	 0.4659	-0.1642	 0.3017	 0.6302	 1.2569	-0.4306	 0.8263	 1.6875	 0.5849	-0.6447	-0.0597	 1.2297	65.1602	99.9930	
   951	 0.4282	-0.1425	 0.2858	 0.5707	 1.2049	-0.4114	 0.7935	 1.6162	 0.5338	-0.6196	-0.0858	 1.1534	65.0762	99.9934	
   952	 0.4946	-0.0732	 0.4215	 0.5678	 1.2607	-0.3650	 0.8957	 1.6256	 0.6054	-0.5875	 0.0180	 1.1929	65.2015	99.9937	
   953	 0.5907	-0.0305	 0.5604	 0.6212	 1.2828	-0.3262	 0.9566	 1.6091	 0.6301	-0.5613	 0.0689	 1.1914	65.1160	99.9939	
   954	 0.6248	 0.0195	 0.6444	 0.6053	 1.2996	-0.2654	 1.0343	 1.5650	 0.6560	-0.5120	 0.1441	 1.1680	65.0747	99.9936	
   955	 0.6661	 0.0590	 0.7253	 0.6071	 1.3478	-0.2362	 1.1116	 1.5841	 0.6879	-0.4590	 0.2289	 1.1469	64.9921	99.9942	
   956	 0.6832	 0.0840	 0.7673	 0.5992	 1.3707	-0.1844	 1.1864	 1.5551	 0.7246	-0.4256	 0.2991	 1.1502	64.9937	99.9934	
   957	 0.7173	 0.1340	 0.8514	 0.5834	 1.3791	-0.1540	 1.2252	 1.5331	 0.7083	-0.4018	 0.3067	 1.1101	64.9495	99.9935	
   958	 0.7335	 0.1436	 0.8772	 0.5899	 1.3325	-0.1568	 1.1756	 1.4893	 0.6662	-0.4273	 0.2390	 1.0934	64.9458	99.9936	
   959	 0.7649	 0.1477	 0.9127	 0.6172	 1.3654	-0.1623	 1.2031	 1.5277	 0.6891	-0.4359	 0.2533	 1.1249	64.9872	99.9936	
   960	 0.7802	 0.1420	 0.9223	 0.6381	 1.3516	-0.1706	 1.1810	 1.5222	 0.6529	-0.4577	 0.1953	 1.1107	64.9424	99.9933	
   961	 0.7802	 0.1420	 0.9223	 0.6381	 1.3386	-0.1658	 1.1728	 1.5044	 0.6529	-0.4577	 0.1953	 1.1107	64.9424	99.9932	
   962	 0.7748	 0.1831	 0.9580	 0.5917	 1.3340	-0.1306	 1.2034	 1.4646	 0.6312	-0.4260	 0.2054	 1.0572	64.8995	99.9931	
   963	 0.7990	 0.1977	 0.9968	 0.6014	 1.3409	-0.1264	 1.2145	 1.4673	 0.6144	-0.4137	 0.2008	 1.0281	64.8137	99.9934	
   964	 0.8080	 0.2178	 1.0259	 0.5902	 1.3424	-0.1002	 1.2422	 1.4426	 0.6385	-0.3991	 0.2394	 1.0376	64.8567	99.9932	
   965	 0.8089	 0.2331	 1.0421	 0.5758	 1.3508	-0.0698	 1.2811	 1.4206	 0.6631	-0.3730	 0.2903	 1.0361	64.8585	99.9929	
   966	 0.9283	 0.2750	 1.2035	 0.6533	 1.4992	-0.0307	 1.4685	 1.5299	 0.7830	-0.3117	 0.4714	 1.0947	64.8193	99.9932	
   967	 1.0154	 0.2976	 1.3132	 0.7178	 1.5481	 0.0116	 1.5597	 1.5365	 0.8251	-0.2862	 0.5390	 1.1113	64.7346	99.9925	
   968	 1.0253	 0.3331	 1.3585	 0.6922	 1.5626	 0.0330	 1.5957	 1.5296	 0.8492	-0.2716	 0.5777	 1.1208	64.8188	99.9927	
   969	 1.0262	 0.3484	 1.3747	 0.6778	 1.5772	 0.0545	 1.6317	 1.5227	 0.8450	-0.2405	 0.6046	 1.0855	64.7356	99.9926	
   970	 1.0352	 0.3686	 1.4038	 0.6667	 1.5642	 0.0593	 1.6235	 1.5049	 0.8275	-0.2398	 0.5878	 1.0674	64.7336	99.9929	
   971	 0.9894	 0.3855	 1.3750	 0.6040	 1.5121	 0.0785	 1.5906	 1.4336	 0.7751	-0.2379	 0.5373	 1.0130	64.7321	99.9924	
   972	 0.9661	 0.3863	 1.3524	 0.5798	 1.4716	 0.0667	 1.5383	 1.4050	 0.7215	-0.2591	 0.4625	 0.9806	64.7292	99.9924	
   973	 0.9966	 0.3750	 1.3717	 0.6216	 1.5382	 0.0689	 1.6070	 1.4693	 0.7926	-0.2385	 0.5541	 1.0311	64.7331	99.9924	
   974	 1.0846	 0.4129	 1.4976	 0.6717	 1.6070	 0.1105	 1.7175	 1.4965	 0.8299	-0.1935	 0.6365	 1.0234	64.6063	99.9922	
   975	 1.0792	 0.4540	 1.5333	 0.6252	 1.6009	 0.1195	 1.7203	 1.4814	 0.7889	-0.1959	 0.5932	 0.9848	64.6446	99.9922	
   976	 1.0460	 0.4193	 1.4654	 0.6267	 1.5336	 0.1041	 1.6377	 1.4294	 0.7408	-0.2250	 0.5159	 0.9658	64.6009	99.9919	
   977	 0.9993	 0.4209	 1.4203	 0.5784	 1.4877	 0.1144	 1.6020	 1.3733	 0.7119	-0.2201	 0.4919	 0.9319	64.6014	99.9917	
   978	 1.0244	 0.4507	 1.4753	 0.5737	 1.5098	 0.1531	 1.6629	 1.3567	 0.7143	-0.1737	 0.5406	 0.8880	64.4752	99.9915	
   979	 1.0092	 0.4564	 1.4656	 0.5528	 1.4899	 0.1537	 1.6437	 1.3362	 0.6854	-0.1688	 0.5167	 0.8541	64.4319	99.9917	
