OxySoft export of:	C:\Users\TO3 TechSupport\Documents\Train2Adapt\Post_tests\T2A_64_POST_NIRS
Export date:	2022/12/16 06:11:08
Start of measurement:	2022-12-16 05:04:23.498

Datafile sample rate:	10.00	Hz
Datafile duration:	3967.900	s
Datafile total number of samples:	39679

Description:	

Optode-template:	PortaMon TSI Fit Factor
Optode distance (mm):	 35.00
Optode gradients (mm):	 5.00
DPF:	6.61

Device id:	334
# Receivers:	1
# Light sources:	6
# ADC:	2

Light source wavelengths:
device	index	wavelength
1	1	849	nm
1	2	759	nm
1	3	846	nm
1	4	757	nm
1	5	848	nm
1	6	757	nm

Export sample rate:	10.00	Hz
Selected time span:	0	3967.900
Selected time span (sample numbers):	0	39679


Legend:
Column	Trace (Measurement)
1	(Sample number)
2	Rx1-Tx1 O2Hb (T2A_64_POST_NIRS)
3	Rx1-Tx1 HHb (T2A_64_POST_NIRS)
4	Rx1-Tx1 tHb (T2A_64_POST_NIRS)
5	Rx1-Tx2 O2Hb (T2A_64_POST_NIRS)
6	Rx1-Tx2 HHb (T2A_64_POST_NIRS)
7	Rx1-Tx2 tHb (T2A_64_POST_NIRS)
8	Rx1-Tx3 O2Hb (T2A_64_POST_NIRS)
9	Rx1-Tx3 HHb (T2A_64_POST_NIRS)
10	Rx1-Tx3 tHb (T2A_64_POST_NIRS)
11	Rx1-Tx1,Tx2,Tx3 TSI% (T2A_64_POST_NIRS)
12	Rx1-Tx1,Tx2,Tx3 TSI Fit Factor (T2A_64_POST_NIRS)
13	(Event)


1	2	3	4	5	6	7	8	9	10	11	12	13
     0	110.6923	58.1831	168.8753	86.8846	46.5012	133.3858	69.2894	41.3162	110.6057	11.5652	98.7634	
     1	 0.0443	-0.0008	 0.0434	 0.0870	-0.0436	 0.0434	 0.0548	-0.0081	 0.0468	60.8545	99.9850	
     2	 0.0434	-0.0155	 0.0278	 0.0427	-0.0344	 0.0083	 0.0216	-0.0077	 0.0141	60.7378	99.9848	
     3	 0.0145	-0.0051	 0.0092	 0.0427	-0.0344	 0.0083	 0.0115	 0.0072	 0.0188	60.7408	99.9851	
     4	 0.0520	 0.0039	 0.0558	 0.1128	-0.0398	 0.0730	 0.0779	 0.0064	 0.0843	60.8590	99.9852	
     5	 0.0664	-0.0013	 0.0651	 0.0877	-0.0310	 0.0568	 0.0880	-0.0085	 0.0796	60.8948	99.9851	
     6	 0.0587	-0.0060	 0.0526	 0.0752	-0.0265	 0.0487	 0.0447	 0.0068	 0.0516	60.7408	99.9847	
     7	 0.0299	 0.0043	 0.0341	 0.0744	-0.0392	 0.0353	 0.0230	 0.0145	 0.0375	60.7408	99.9854	
     8	 0.0222	-0.0004	 0.0217	 0.0494	-0.0303	 0.0190	 0.0115	 0.0072	 0.0188	60.7393	99.9848	
     9	 0.0000	 0.0000	-0.0000	 0.0243	-0.0215	 0.0028	-0.0000	-0.0000	 0.0000	60.7767	99.9842	
    10	-0.0221	 0.0005	-0.0217	 0.0043	-0.0338	-0.0295	-0.0434	 0.0153	-0.0280	60.6614	99.9852	
    11	-0.0154	-0.0094	-0.0249	 0.0176	-0.0256	-0.0079	-0.0217	 0.0076	-0.0140	60.7019	99.9841	
    12	 0.0299	 0.0043	 0.0341	 0.0376	-0.0132	 0.0244	 0.0230	 0.0145	 0.0375	60.7408	99.9848	
    13	 0.0299	 0.0043	 0.0341	 0.0376	-0.0132	 0.0244	 0.0332	-0.0004	 0.0328	60.8156	99.9844	
    14	 0.0154	 0.0095	 0.0248	 0.0251	-0.0088	 0.0163	 0.0115	 0.0072	 0.0188	60.7767	99.9844	
    15	 0.0000	 0.0000	-0.0000	 0.0243	-0.0215	 0.0028	-0.0000	-0.0000	 0.0000	60.7767	99.9842	
    16	-0.0077	-0.0047	-0.0125	-0.0074	-0.0167	-0.0241	-0.0332	 0.0004	-0.0327	60.6973	99.9841	
    17	-0.0298	-0.0042	-0.0342	-0.0325	-0.0078	-0.0404	-0.0448	-0.0068	-0.0515	60.7347	99.9834	
    18	-0.0519	-0.0038	-0.0558	-0.0584	-0.0116	-0.0700	-0.0773	 0.0047	-0.0725	60.6583	99.9841	
    19	-0.0221	 0.0005	-0.0217	-0.0259	-0.0037	-0.0296	-0.0116	-0.0072	-0.0187	60.8141	99.9839	
    20	 0.0000	 0.0000	-0.0000	 0.0000	 0.0000	 0.0000	-0.0000	-0.0000	 0.0000	60.7767	99.9835	
    21	 0.0068	-0.0099	-0.0032	-0.0251	 0.0089	-0.0162	-0.0116	-0.0072	-0.0187	60.7362	99.9830	
    22	 0.0000	 0.0000	-0.0000	-0.0251	 0.0089	-0.0162	-0.0434	 0.0153	-0.0280	60.6209	99.9835	
    23	-0.0221	 0.0005	-0.0217	-0.0384	 0.0007	-0.0377	-0.0332	 0.0004	-0.0327	60.7362	99.9839	
    24	-0.0442	 0.0009	-0.0434	-0.0576	 0.0010	-0.0566	-0.0620	-0.0177	-0.0796	60.7691	99.9828	
    25	-0.0741	-0.0034	-0.0775	-0.0709	-0.0072	-0.0781	-0.0620	-0.0177	-0.0796	60.8111	99.9833	
    26	-0.0664	 0.0014	-0.0651	-0.0701	 0.0054	-0.0647	-0.0448	-0.0068	-0.0515	60.8141	99.9834	
    27	-0.0144	 0.0052	-0.0093	-0.0251	 0.0089	-0.0162	-0.0217	 0.0076	-0.0140	60.7378	99.9836	
    28	-0.0212	 0.0151	-0.0061	-0.0251	 0.0089	-0.0162	-0.0217	 0.0076	-0.0140	60.7752	99.9838	
    29	-0.0289	 0.0104	-0.0185	-0.0501	 0.0178	-0.0324	-0.0332	 0.0004	-0.0327	60.7737	99.9832	
    30	-0.0365	 0.0057	-0.0310	-0.0752	 0.0266	-0.0486	-0.0332	 0.0004	-0.0327	60.7752	99.9832	
    31	-0.0442	 0.0009	-0.0434	-0.0760	 0.0140	-0.0620	-0.0658	 0.0119	-0.0538	60.6599	99.9837	
    32	-0.0587	 0.0061	-0.0527	-0.1011	 0.0228	-0.0782	-0.0773	 0.0047	-0.0725	60.6957	99.9833	
    33	-0.0953	 0.0117	-0.0836	-0.1203	 0.0232	-0.0971	-0.0773	 0.0047	-0.0725	60.7752	99.9836	
    34	-0.0510	 0.0108	-0.0402	-0.0752	 0.0266	-0.0486	-0.0217	 0.0076	-0.0140	60.8171	99.9837	
    35	-0.0356	 0.0203	-0.0154	-0.0368	 0.0260	-0.0108	-0.0217	 0.0076	-0.0140	60.8141	99.9829	
    36	-0.0356	 0.0203	-0.0154	-0.0501	 0.0178	-0.0324	-0.0217	 0.0076	-0.0140	60.8141	99.9840	
    37	-0.0433	 0.0156	-0.0278	-0.0752	 0.0266	-0.0486	-0.0549	 0.0081	-0.0468	60.7347	99.9833	
    38	-0.0654	 0.0160	-0.0495	-0.1003	 0.0355	-0.0648	-0.0549	 0.0081	-0.0468	60.7752	99.9832	
    39	-0.0731	 0.0113	-0.0619	-0.1011	 0.0228	-0.0782	-0.0773	 0.0047	-0.0725	60.7347	99.9833	
    40	-0.0808	 0.0066	-0.0744	-0.1203	 0.0232	-0.0971	-0.0990	 0.0123	-0.0865	60.6583	99.9836	
    41	-0.0654	 0.0160	-0.0495	-0.0995	 0.0481	-0.0514	-0.0434	 0.0153	-0.0280	60.7782	99.9828	
    42	-0.0356	 0.0203	-0.0154	-0.0619	 0.0348	-0.0271	-0.0217	 0.0076	-0.0140	60.8141	99.9831	
    43	-0.0645	 0.0307	-0.0339	-0.0995	 0.0481	-0.0514	-0.0434	 0.0153	-0.0280	60.8141	99.9832	
    44	-0.0645	 0.0307	-0.0339	-0.0869	 0.0437	-0.0433	-0.0332	 0.0004	-0.0327	60.8889	99.9827	
    45	-0.0722	 0.0259	-0.0463	-0.0877	 0.0310	-0.0567	-0.0658	 0.0119	-0.0538	60.7737	99.9832	
    46	-0.0943	 0.0264	-0.0680	-0.1011	 0.0228	-0.0782	-0.0658	 0.0119	-0.0538	60.8141	99.9840	
    47	-0.1078	 0.0462	-0.0617	-0.1120	 0.0525	-0.0595	-0.0753	 0.0379	-0.0373	60.7782	99.9835	
    48	-0.0693	 0.0699	 0.0005	-0.0779	 0.0857	 0.0078	-0.0089	 0.0370	 0.0282	60.9322	99.9825	
    49	-0.1768	-0.2214	-0.3984	-0.2975	-0.3534	-0.6509	-0.3628	-0.5047	-0.8674	61.3748	99.9811	
    50	-0.9442	-0.8908	-1.8352	-1.1124	-0.9890	-2.1013	-1.1138	-1.0192	-2.1329	60.9614	99.9867	
    51	-1.3972	-1.2682	-2.6655	-1.5000	-1.3493	-2.8493	-1.4536	-1.3286	-2.7821	61.0351	99.9879	
    52	-1.4338	-1.2625	-2.6964	-1.4953	-1.2734	-2.7687	-1.4439	-1.2586	-2.7023	60.8970	99.9853	
    53	-1.4099	-1.1212	-2.5311	-1.4669	-1.0251	-2.4921	-1.3005	-0.9024	-2.2028	60.3467	99.9885	
    54	-1.0367	-0.8352	-1.8720	-1.3745	-1.1869	-2.5615	-1.8364	-1.4307	-3.2669	60.9372	99.9770	
    55	-2.7622	-2.0381	-4.8004	-3.4370	-2.3117	-5.7487	-3.8028	-2.3577	-6.1604	59.2100	99.9898	
    56	-3.5271	-2.3261	-5.8533	-4.1315	-2.7638	-6.8952	-4.5995	-2.8051	-7.4046	59.4387	99.9912	
    57	-4.0823	-2.4568	-6.5392	-4.6929	-2.8302	-7.5231	-5.0789	-2.7657	-7.8445	58.7440	99.9941	
    58	-4.3134	-2.3740	-6.6874	-4.9338	-2.6870	-7.6207	-5.2264	-2.5497	-7.7760	58.2474	99.9958	
    59	-4.3338	-2.1192	-6.4531	-4.7827	-2.2173	-6.9999	-4.8583	-1.9565	-6.8147	57.8446	99.9957	
    60	-3.9663	-1.9211	-5.8876	-4.4015	-2.1647	-6.5661	-4.6446	-2.2693	-6.9139	59.3497	99.9853	
    61	-5.0442	-3.0490	-8.0933	-5.6527	-3.5308	-9.1835	-6.1063	-3.7307	-9.8368	59.8231	99.9857	
    62	-6.0768	-4.1631	-10.2400	-6.4971	-4.5370	-11.0341	-6.6598	-4.6426	-11.3023	60.6695	99.9888	
    63	-5.5906	-4.3000	-9.8907	-5.9494	-4.5884	-10.5378	-6.0359	-4.5805	-10.6163	60.7484	99.9913	
    64	-4.8517	-3.9577	-8.8095	-5.1845	-4.2387	-9.4232	-5.2885	-4.2174	-9.5058	60.8854	99.9913	
    65	-4.2852	-3.6511	-7.9364	-4.6382	-3.9022	-8.5404	-4.7315	-3.8886	-8.6201	60.8840	99.9910	
    66	-3.8773	-3.4000	-7.2774	-4.1770	-3.5937	-7.7707	-4.2006	-3.5337	-7.7343	60.8699	99.9917	
    67	-3.4156	-3.1158	-6.5315	-3.5578	-3.3216	-6.8795	-3.6404	-3.4265	-7.0668	61.8197	99.9828	
    68	-4.2600	-3.8326	-8.0926	-4.7026	-4.1119	-8.8145	-5.0406	-4.1467	-9.1872	60.4680	99.9866	
    69	-5.4531	-4.1169	-9.5701	-6.0970	-4.3877	-10.4848	-6.6682	-4.2328	-10.9009	57.9363	99.9914	
    70	-6.2359	-3.8811	-10.1171	-6.7633	-4.0813	-10.8446	-7.0540	-3.8366	-10.8905	57.6751	99.9952	
    71	-5.9282	-3.5791	-9.5074	-6.4156	-3.7456	-10.1612	-6.6829	-3.5608	-10.2437	57.8997	99.9930	
    72	-5.5624	-3.6354	-9.1978	-5.9878	-3.8709	-9.8588	-6.2783	-3.8281	-10.1063	59.1009	99.9888	
    73	-5.5064	-3.7979	-9.3044	-5.9362	-4.0700	-10.0062	-6.1996	-3.9915	-10.1910	59.3535	99.9915	
    74	-5.2580	-3.8420	-9.1001	-5.7192	-4.0821	-9.8013	-5.9426	-3.8620	-9.8044	58.9462	99.9957	
    75	-4.8792	-3.4680	-8.3473	-5.1912	-3.5260	-8.7172	-5.1269	-3.2856	-8.4124	59.3075	99.9947	
    76	-4.3366	-3.1903	-7.5270	-4.5395	-3.2460	-7.7856	-4.4208	-3.0547	-7.4755	60.0230	99.9934	
    77	-4.0999	-3.1853	-7.2852	-4.3707	-3.3121	-7.6828	-4.3303	-3.1150	-7.4452	60.0328	99.9946	
    78	-4.0931	-3.1952	-7.2884	-4.2689	-3.3223	-7.5911	-4.2155	-3.1386	-7.3540	60.3736	99.9938	
    79	-3.9824	-3.1974	-7.1799	-4.1721	-3.3113	-7.4834	-4.1030	-3.1105	-7.2134	60.3444	99.9942	
    80	-3.8631	-3.1802	-7.0434	-4.0612	-3.2794	-7.3406	-4.0041	-3.1229	-7.1269	60.4618	99.9927	
    81	-3.8650	-3.2095	-7.0746	-4.0636	-3.3173	-7.3809	-4.0471	-3.1924	-7.2394	60.5259	99.9915	
    82	-3.9303	-3.3060	-7.2365	-4.1291	-3.4427	-7.5718	-4.1262	-3.4018	-7.5279	60.9406	99.9891	
    83	-3.9648	-3.4961	-7.4610	-4.2201	-3.6689	-7.8890	-4.2463	-3.6476	-7.8937	61.0699	99.9894	
    84	-4.0176	-3.6271	-7.6448	-4.3389	-3.8271	-8.1660	-4.4440	-3.8038	-8.2476	60.8696	99.9896	
    85	-4.0657	-3.6848	-7.7506	-4.4404	-3.9139	-8.3543	-4.6167	-3.9123	-8.5288	60.7513	99.9890	
    86	-4.2013	-3.7261	-7.9276	-4.6555	-3.9735	-8.6290	-4.9411	-3.9671	-8.9082	60.2471	99.9887	
    87	-4.4400	-3.7605	-8.2006	-4.9701	-3.9851	-8.9552	-5.2860	-3.9922	-9.2781	59.7934	99.9878	
    88	-4.5209	-3.7540	-8.2749	-4.9803	-3.9428	-8.9230	-5.2454	-3.8709	-9.1163	59.6317	99.9899	
    89	-4.3814	-3.6541	-8.0356	-4.7244	-3.8459	-8.5703	-4.9081	-3.7867	-8.6947	60.2230	99.9895	
    90	-4.3697	-3.8157	-8.1855	-4.9329	-4.1080	-9.0410	-5.2765	-4.0182	-9.2946	59.6186	99.9929	
    91	-5.1387	-3.8248	-8.9636	-5.7912	-4.0050	-9.7962	-6.1452	-3.7339	-9.8790	57.7167	99.9959	
    92	-5.4315	-3.5548	-8.9865	-5.9192	-3.6950	-9.6142	-6.1150	-3.4168	-9.5317	57.9902	99.9957	
    93	-5.2759	-3.3183	-8.5942	-5.6898	-3.4079	-9.0978	-5.8061	-3.2547	-9.0607	58.5790	99.9919	
    94	-4.8985	-3.4236	-8.3222	-5.1618	-3.5686	-8.7305	-5.2030	-3.5356	-8.7385	60.1751	99.9887	
    95	-4.1593	-3.4188	-7.5782	-4.3540	-3.5570	-7.9110	-4.3327	-3.5210	-7.8536	60.9696	99.9891	
    96	-3.6435	-3.3264	-6.9700	-3.9062	-3.4633	-7.3695	-3.9470	-3.4595	-7.4063	61.0082	99.9878	
    97	-3.5675	-3.2937	-6.8613	-3.9320	-3.4671	-7.3992	-4.1864	-3.4822	-7.6686	60.4154	99.9854	
    98	-3.6080	-3.2342	-6.8423	-3.9993	-3.3142	-7.3135	-4.1947	-3.2533	-7.4479	59.8006	99.9874	
    99	-3.3685	-3.0727	-6.4413	-3.7305	-3.1121	-6.8426	-3.8744	-3.0839	-6.9582	60.0025	99.9856	
   100	-3.2011	-2.9978	-6.1990	-3.5929	-3.0638	-6.6568	-3.8284	-3.0550	-6.8832	59.8990	99.9842	
   101	-3.1482	-2.9793	-6.1276	-3.5412	-3.0563	-6.5975	-3.7670	-3.0484	-6.8153	59.9834	99.9847	
   102	-3.0298	-2.9768	-6.0067	-3.4386	-3.0538	-6.4924	-3.6745	-3.0754	-6.7499	60.1005	99.9835	
   103	-3.0760	-3.0052	-6.0812	-3.4660	-3.0828	-6.5489	-3.6925	-3.0973	-6.7897	60.1446	99.9837	
   104	-3.1193	-2.9896	-6.1090	-3.4429	-3.0200	-6.4629	-3.6041	-3.0099	-6.6139	60.1834	99.9837	
   105	-2.9991	-2.8453	-5.8445	-3.2214	-2.8593	-6.0807	-3.3502	-2.8397	-6.1898	60.3876	99.9828	
   106	-2.7326	-2.7235	-5.4562	-3.0090	-2.7406	-5.7496	-3.1904	-2.7605	-5.9508	60.3373	99.9809	
   107	-2.6739	-2.7295	-5.4036	-3.0114	-2.7785	-5.7899	-3.2032	-2.7899	-5.9930	60.2814	99.9832	
   108	-2.5392	-2.7029	-5.2422	-2.8664	-2.7135	-5.5799	-2.9943	-2.7225	-5.7166	60.3912	99.9834	
   109	-2.3410	-2.6090	-4.9501	-2.6439	-2.6371	-5.2810	-2.7904	-2.6476	-5.4379	60.5221	99.9832	
   110	-2.2496	-2.5668	-4.8166	-2.5714	-2.6046	-5.1760	-2.7125	-2.6412	-5.3536	60.6392	99.9828	
   111	-2.2054	-2.5677	-4.7732	-2.5588	-2.6090	-5.1679	-2.6915	-2.6599	-5.3513	60.6738	99.9829	
   112	-2.1765	-2.5781	-4.7546	-2.5079	-2.6141	-5.1220	-2.6085	-2.6610	-5.2694	60.8057	99.9833	
   113	-2.1466	-2.5738	-4.7205	-2.4887	-2.6144	-5.1031	-2.5868	-2.6686	-5.2553	60.8436	99.9834	
   114	-2.1245	-2.5742	-4.6988	-2.4495	-2.6024	-5.0520	-2.5312	-2.6657	-5.1968	60.9306	99.9826	
   115	-2.0418	-2.5514	-4.5933	-2.3594	-2.5955	-4.9549	-2.4418	-2.6521	-5.0938	61.0142	99.9834	
   116	-2.0369	-2.5906	-4.6276	-2.3759	-2.6543	-5.0302	-2.4739	-2.7255	-5.1993	61.0810	99.9833	
   117	-2.0985	-2.6285	-4.7271	-2.4292	-2.6871	-5.1163	-2.4983	-2.7621	-5.2603	61.1631	99.9834	
   118	-2.0908	-2.6238	-4.7147	-2.4468	-2.6615	-5.1083	-2.5085	-2.7472	-5.2555	61.0825	99.9828	
   119	-2.1360	-2.6376	-4.7737	-2.5185	-2.6814	-5.1999	-2.6426	-2.7676	-5.4101	60.8641	99.9820	
   120	-2.2505	-2.6940	-4.9445	-2.6760	-2.7420	-5.4180	-2.8011	-2.8246	-5.6256	60.7285	99.9829	
   121	-2.3389	-2.8047	-5.1437	-2.8399	-2.9037	-5.7435	-3.0283	-3.0099	-6.0381	60.6819	99.9831	
   122	-2.5995	-3.0636	-5.6632	-3.1174	-3.2447	-6.3622	-3.2201	-3.3434	-6.5633	61.1879	99.9874	
   123	-3.0023	-3.5789	-6.5813	-3.5687	-3.8022	-7.3708	-3.6199	-3.6372	-7.2570	60.5757	99.9960	
   124	-3.0933	-3.0440	-6.1373	-3.2395	-2.9433	-6.1828	-2.8866	-2.5910	-5.4775	60.3231	99.9955	
   125	-2.5482	-2.3848	-4.9331	-2.9325	-2.4383	-5.3707	-2.7417	-2.1167	-4.8582	59.7588	99.9965	
   126	-2.1682	-2.2212	-4.3895	-2.7687	-2.4832	-5.2519	-2.8615	-2.2665	-5.1278	59.6973	99.9971	
   127	-2.1999	-2.2548	-4.4548	-2.6872	-2.4087	-5.0959	-2.6397	-2.1697	-4.8092	59.8932	99.9965	
   128	-1.9574	-2.1618	-4.1194	-2.4756	-2.3026	-4.7782	-2.4432	-2.2165	-4.6595	60.3506	99.9938	
   129	-2.2850	-2.7715	-5.0567	-3.1825	-3.2605	-6.4430	-3.6001	-3.4012	-7.0012	60.6165	99.9929	
   130	-4.0385	-3.9495	-7.9881	-4.9852	-4.4318	-9.4170	-5.3320	-4.4789	-9.8108	60.1556	99.9953	
   131	-5.2581	-4.7566	-10.0148	-6.2515	-5.3212	-11.5727	-6.5740	-5.2380	-11.8119	59.7905	99.9975	
   132	-5.9846	-4.9084	-10.8931	-6.3591	-5.0959	-11.4550	-6.1326	-4.7159	-10.8484	60.0575	99.9973	
   133	-4.6627	-4.3479	-9.0107	-4.7212	-4.5122	-9.2334	-4.5021	-4.4896	-8.9916	62.4595	99.9903	
   134	-4.2499	-4.2485	-8.4985	-4.4387	-4.3989	-8.8376	-4.3487	-4.4251	-8.7737	62.1140	99.9878	
   135	-4.0202	-3.8961	-7.9164	-4.2857	-4.0009	-8.2866	-4.2084	-4.0283	-8.2365	61.5582	99.9874	
   136	-3.7366	-3.6229	-7.3596	-3.9772	-3.6772	-7.6544	-3.8705	-3.7521	-7.6225	61.6274	99.9843	
   137	-3.5865	-3.5868	-7.1734	-3.8260	-3.7177	-7.5437	-3.7922	-3.8306	-7.6227	61.9312	99.9837	
   138	-3.6643	-3.7613	-7.4257	-3.9413	-3.9224	-7.8637	-3.8053	-3.9559	-7.7612	62.0191	99.9897	
   139	-3.7122	-3.9316	-7.6439	-3.8876	-3.9865	-7.8742	-3.5300	-3.8894	-7.4192	62.0848	99.9925	
   140	-3.0939	-3.3961	-6.4901	-3.3314	-3.3887	-6.7201	-3.1542	-3.0784	-6.2326	60.4296	99.9956	
   141	-3.3155	-3.1667	-6.4823	-3.8607	-3.3503	-7.2109	-3.8164	-3.1327	-6.9490	59.9700	99.9964	
   142	-3.3897	-3.0576	-6.4474	-4.0455	-3.2333	-7.2788	-3.9043	-3.0282	-6.9323	59.8057	99.9955	
   143	-3.2724	-2.9572	-6.2297	-3.8617	-3.0593	-6.9210	-3.6889	-2.9461	-6.6348	60.1164	99.9940	
   144	-3.2250	-3.1392	-6.3643	-4.0398	-3.4484	-7.4882	-4.1108	-3.6050	-7.7157	60.8342	99.9910	
   145	-4.4848	-4.2243	-8.7091	-5.5135	-4.6843	-10.1978	-5.7671	-4.8055	-10.5724	60.3265	99.9939	
   146	-5.7054	-5.0460	-10.7515	-6.7840	-5.5399	-12.3239	-6.9803	-5.5465	-12.5267	59.9305	99.9956	
   147	-6.4146	-5.1590	-11.5737	-6.9594	-5.2713	-12.2307	-6.6497	-4.9344	-11.5840	59.6359	99.9953	
   148	-4.8937	-4.3775	-9.2713	-4.9982	-4.5370	-9.5352	-4.7009	-4.5719	-9.2727	62.6118	99.9896	
   149	-4.6462	-4.5487	-9.1950	-4.9344	-4.6435	-9.5779	-4.8474	-4.7066	-9.5539	61.7927	99.9856	
   150	-4.9831	-4.5029	-9.4860	-5.2858	-4.6291	-9.9149	-5.2099	-4.6576	-9.8675	61.4489	99.9878	
   151	-4.9313	-4.2740	-9.2054	-5.1991	-4.3692	-9.5683	-5.0248	-4.4348	-9.4596	61.6434	99.9867	
   152	-4.6620	-4.1082	-8.7703	-4.9326	-4.2050	-9.1376	-4.7160	-4.2727	-8.9886	61.7868	99.9874	
   153	-4.5146	-4.2285	-8.7433	-4.8085	-4.3716	-9.1801	-4.4947	-4.3679	-8.8625	62.0859	99.9918	
   154	-4.1944	-3.9610	-8.1555	-4.3103	-3.8824	-8.1927	-3.9776	-3.6916	-7.6692	61.0719	99.9920	
   155	-3.7358	-3.3833	-7.1192	-4.1968	-3.3994	-7.5962	-3.9953	-3.1599	-7.1551	59.8243	99.9950	
   156	-3.7101	-3.1001	-6.8104	-4.3593	-3.2322	-7.5915	-4.2115	-3.0722	-7.2836	59.6673	99.9948	
   157	-3.7323	-3.0997	-6.8320	-4.4498	-3.1421	-7.5919	-4.1008	-2.9813	-7.0820	59.6734	99.9927	
   158	-3.4821	-3.0020	-6.4842	-4.1669	-3.1258	-7.2927	-3.9970	-3.0971	-7.0940	60.1446	99.9927	
   159	-3.9435	-3.6237	-7.5673	-4.9250	-3.9816	-8.9067	-5.0616	-4.1280	-9.1895	60.3044	99.9921	
   160	-5.3343	-4.5643	-9.8987	-6.3829	-4.9648	-11.3477	-6.5077	-5.0580	-11.5656	60.0013	99.9936	
   161	-6.4780	-5.2262	-11.7044	-7.4892	-5.5491	-13.0383	-7.4472	-5.3929	-12.8399	59.1056	99.9942	
   162	-6.0205	-4.6631	-10.6837	-6.2535	-4.7393	-10.9928	-5.8411	-4.5646	-10.4056	61.0154	99.9945	
   163	-4.7648	-4.3263	-9.0911	-4.9221	-4.3443	-9.2664	-4.6448	-4.3770	-9.0217	61.9375	99.9863	
   164	-5.0630	-4.4817	-9.5448	-5.3293	-4.6073	-9.9366	-5.2536	-4.7383	-9.9917	61.8505	99.9829	
   165	-5.4316	-4.4694	-9.9012	-5.7026	-4.5335	-10.2361	-5.5264	-4.5797	-10.1060	61.2957	99.9864	
   166	-5.4375	-4.3324	-9.7700	-5.6939	-4.3945	-10.0884	-5.5790	-4.4425	-10.0214	61.0459	99.9852	
   167	-5.4241	-4.2397	-9.6640	-5.6132	-4.3327	-9.9458	-5.4371	-4.3852	-9.8222	61.4358	99.9862	
   168	-5.3278	-4.3492	-9.6771	-5.5126	-4.4651	-9.9776	-5.2182	-4.4287	-9.6468	61.6682	99.9913	
   169	-4.7285	-3.9944	-8.7230	-4.9579	-3.8925	-8.8504	-4.5904	-3.6616	-8.2519	60.3278	99.9932	
   170	-3.9602	-3.3103	-7.2706	-4.4350	-3.3153	-7.7502	-4.2329	-2.9686	-7.2014	59.1557	99.9961	
   171	-3.9739	-3.0655	-7.0395	-4.6566	-3.1724	-7.8290	-4.4175	-2.9994	-7.4168	59.4724	99.9942	
   172	-3.8133	-2.8682	-6.6816	-4.4692	-2.8382	-7.3074	-4.0692	-2.6422	-6.7112	59.3269	99.9926	
   173	-3.6123	-2.7303	-6.3428	-4.2991	-2.7820	-7.0812	-4.0382	-2.7718	-6.8099	59.8556	99.9914	
   174	-4.1671	-3.3111	-7.4783	-5.1058	-3.5949	-8.7007	-5.1296	-3.7875	-8.9171	60.1767	99.9900	
   175	-5.5290	-4.2621	-9.7912	-6.5520	-4.5951	-11.1471	-6.5527	-4.7031	-11.2557	59.7916	99.9924	
   176	-6.5178	-4.9271	-11.4450	-7.6262	-5.2811	-12.9073	-7.6305	-5.2207	-12.8512	58.8773	99.9938	
   177	-6.6009	-4.6124	-11.2134	-7.0409	-4.6290	-11.6699	-6.5888	-4.3852	-10.9739	59.6691	99.9942	
   178	-5.2588	-4.0816	-9.3405	-5.4489	-4.0613	-9.5102	-5.1311	-4.0865	-9.2175	61.2478	99.9864	
   179	-5.3781	-4.0988	-9.4770	-5.7075	-4.0991	-9.8066	-5.5131	-4.1776	-9.6906	60.7766	99.9844	
   180	-5.6698	-4.0392	-9.7090	-5.9856	-4.0396	-10.0252	-5.7063	-4.0754	-9.7816	60.6275	99.9871	
   181	-5.5468	-3.8509	-9.3977	-5.7935	-3.8363	-9.6298	-5.5262	-3.8452	-9.3713	60.5371	99.9870	
   182	-5.3515	-3.6885	-9.0401	-5.5737	-3.7008	-9.2745	-5.2553	-3.7601	-9.0153	61.0003	99.9864	
   183	-5.3850	-3.8639	-9.2490	-5.6388	-3.9232	-9.5620	-5.3744	-3.8988	-9.2732	60.7794	99.9900	
   184	-5.3257	-3.5178	-8.8436	-5.3729	-3.3584	-8.7313	-5.0319	-3.0875	-8.1193	59.5752	99.9921	
   185	-4.5111	-2.9178	-7.4290	-5.0808	-2.8869	-7.9677	-4.8856	-2.5910	-7.4765	58.2297	99.9952	
   186	-4.6894	-2.7039	-7.3934	-5.3584	-2.7177	-8.0762	-5.0469	-2.5115	-7.5582	58.4452	99.9937	
   187	-4.4731	-2.4441	-6.9173	-5.1052	-2.3552	-7.4603	-4.6592	-2.2359	-6.8950	58.7637	99.9913	
   188	-4.3818	-2.2895	-6.6713	-5.0111	-2.2851	-7.2962	-4.7314	-2.2387	-6.9699	58.8216	99.9914	
   189	-4.9386	-2.7870	-7.7257	-5.8216	-2.9545	-8.7761	-5.7209	-3.1266	-8.8474	59.1374	99.9888	
   190	-6.2053	-3.6372	-9.8426	-7.1494	-3.9061	-11.0556	-7.1081	-3.9983	-11.1063	58.7575	99.9921	
   191	-7.0816	-4.1626	-11.2443	-8.1123	-4.4507	-12.5630	-8.0803	-4.4176	-12.4978	57.9252	99.9938	
   192	-7.4974	-4.0809	-11.5785	-7.9934	-4.0858	-12.0792	-7.6370	-3.8623	-11.4991	58.1960	99.9943	
   193	-6.1294	-3.4920	-9.6215	-6.3295	-3.2917	-9.6212	-5.8946	-3.1613	-9.0558	59.2180	99.9888	
   194	-5.7554	-3.0788	-8.8343	-6.0026	-2.9809	-8.9836	-5.8286	-3.0772	-8.9057	59.4836	99.9792	
   195	-5.9200	-3.1098	-9.0298	-6.2695	-3.0481	-9.3176	-6.0681	-3.1000	-9.1680	59.1705	99.9842	
   196	-5.9884	-3.0252	-9.0137	-6.3000	-2.9211	-9.2211	-6.0523	-2.9304	-8.9826	58.9657	99.9851	
   197	-5.8288	-2.8426	-8.6715	-6.1345	-2.7341	-8.8687	-5.8431	-2.7670	-8.6100	59.1153	99.9847	
   198	-5.8152	-2.9749	-8.7902	-6.1573	-2.8940	-9.0513	-5.8332	-2.8778	-8.7109	59.1532	99.9879	
   199	-5.8007	-2.9801	-8.7809	-6.0923	-2.8782	-8.9705	-5.8462	-2.7263	-8.5724	58.5348	99.9907	
   200	-5.5279	-2.4182	-7.9462	-6.0532	-2.3560	-8.4093	-5.8368	-2.1137	-7.9504	57.3534	99.9942	
   201	-5.6706	-2.2246	-7.8953	-6.5245	-2.2089	-8.7334	-6.2705	-1.9605	-8.2309	56.4332	99.9932	
   202	-5.7085	-1.7836	-7.4923	-6.4219	-1.6962	-8.1181	-6.0466	-1.5536	-7.6001	56.8671	99.9918	
   203	-5.7511	-1.5284	-7.2797	-6.4320	-1.4472	-7.8792	-6.0717	-1.4204	-7.4920	57.0961	99.9900	
   204	-6.2600	-1.8558	-8.1158	-7.1210	-2.0175	-9.1385	-7.0027	-2.1651	-9.1677	57.3587	99.9895	
   205	-7.4123	-2.5370	-9.9495	-8.3143	-2.7648	-11.0791	-8.2349	-2.8543	-11.0891	56.9309	99.9917	
   206	-8.2116	-3.1276	-11.3392	-9.3043	-3.4354	-12.7397	-9.3320	-3.4160	-12.7479	55.8838	99.9941	
   207	-8.3553	-2.8361	-11.1915	-8.8538	-2.6840	-11.5377	-8.4073	-2.4091	-10.8163	55.9857	99.9934	
   208	-7.1682	-2.1898	-9.3581	-7.3630	-1.7899	-9.1529	-7.0231	-1.6776	-8.7006	56.5176	99.9815	
   209	-7.0117	-1.8261	-8.8378	-7.2802	-1.5931	-8.8734	-7.1348	-1.6946	-8.8294	56.9233	99.9736	
   210	-7.1166	-1.8484	-8.9651	-7.4703	-1.6616	-9.1319	-7.3079	-1.7182	-9.0261	56.6855	99.9795	
   211	-7.1927	-1.7686	-8.9614	-7.5584	-1.5336	-9.0920	-7.3490	-1.5738	-8.9227	56.4299	99.9798	
   212	-7.1562	-1.6618	-8.8181	-7.5646	-1.4281	-8.9927	-7.3366	-1.4595	-8.7960	56.2716	99.9812	
   213	-7.1446	-1.7109	-8.8556	-7.6034	-1.5371	-9.1405	-7.4090	-1.5582	-8.9671	56.2648	99.9835	
   214	-7.4890	-1.8948	-9.3839	-7.9094	-1.6163	-9.5257	-7.6801	-1.4625	-9.1424	55.3947	99.9874	
   215	-7.1356	-1.1144	-8.2501	-7.6082	-0.8961	-8.5042	-7.3981	-0.6466	-8.0447	54.6667	99.9921	
   216	-7.1812	-0.6782	-7.8595	-7.8822	-0.5668	-8.4490	-7.5952	-0.3340	-7.9291	54.2680	99.9935	
   217	-7.2009	-0.2963	-7.4972	-7.9689	-0.1099	-8.0788	-7.5379	 0.0639	-7.4739	54.0961	99.9911	
   218	-7.3466	 0.0784	-7.2683	-7.9770	 0.2740	-7.7030	-7.5513	 0.3003	-7.2509	54.5253	99.9885	
   219	-7.6469	 0.1186	-7.5284	-8.4288	 0.1172	-8.3116	-8.2340	-0.0010	-8.2348	54.3754	99.9876	
   220	-8.7983	-0.5480	-9.3464	-9.7028	-0.6920	-10.3948	-9.5745	-0.8327	-10.4070	54.1244	99.9896	
   221	-9.6140	-1.0502	-10.6643	-10.6187	-1.3048	-11.9235	-10.5720	-1.3957	-11.9676	53.6104	99.9923	
   222	-10.4009	-1.4502	-11.8512	-11.2926	-1.4284	-12.7210	-11.1369	-1.1226	-12.2594	51.5861	99.9948	
   223	-9.5200	-0.7390	-10.2591	-9.9585	-0.3757	-10.3341	-9.6169	-0.2526	-9.8694	53.0146	99.9855	
   224	-8.9274	-0.3743	-9.3018	-9.2131	 0.0714	-9.1417	-9.1053	 0.0582	-9.0469	53.1012	99.9692	
   225	-8.9179	-0.3402	-9.2582	-9.3099	 0.0604	-9.2495	-9.0984	-0.0120	-9.1103	53.4312	99.9725	
   226	-8.9651	-0.2708	-9.2360	-9.3192	 0.1153	-9.2039	-9.2110	 0.1408	-9.0701	52.8615	99.9752	
   227	-8.8942	 0.0261	-8.8681	-9.1435	 0.4666	-8.6770	-9.0013	 0.4961	-8.5050	52.8686	99.9725	
   228	-8.9627	 0.2231	-8.7396	-9.2269	 0.6704	-8.5565	-9.0888	 0.6966	-8.3921	52.5887	99.9723	
   229	-9.0091	 0.4197	-8.5895	-9.2942	 0.8233	-8.4709	-9.1729	 0.7715	-8.4013	52.6972	99.9695	
   230	-9.1246	 0.4611	-8.6636	-9.4336	 0.8468	-8.5869	-9.3318	 0.7994	-8.5323	52.4973	99.9704	
   231	-9.2758	 0.5229	-8.7530	-9.5891	 0.9211	-8.6681	-9.5090	 0.8903	-8.6186	52.1574	99.9703	
   232	-9.3346	 0.6414	-8.6933	-9.6396	 1.0358	-8.6038	-9.5131	 1.0047	-8.5083	52.1889	99.9716	
   233	-9.3126	 0.7535	-8.5592	-9.6509	 1.1625	-8.4884	-9.5390	 1.1269	-8.4120	51.9386	99.9711	
   234	-9.3570	 0.8669	-8.4902	-9.7139	 1.2816	-8.4323	-9.6363	 1.2573	-8.3789	51.5984	99.9710	
   235	-9.4302	 0.9906	-8.4397	-9.8204	 1.4225	-8.3979	-9.7394	 1.3842	-8.3551	51.3428	99.9702	
   236	-9.5256	 1.1148	-8.4110	-9.9285	 1.5382	-8.3902	-9.8763	 1.5003	-8.3758	51.0721	99.9700	
   237	-9.5998	 1.2239	-8.3761	-10.0165	 1.6662	-8.3503	-9.9404	 1.6304	-8.3099	50.8853	99.9704	
   238	-9.5923	 1.3411	-8.2513	-9.9961	 1.7881	-8.2080	-9.9381	 1.7595	-8.1785	50.7392	99.9699	
   239	-9.6280	 1.4739	-8.1542	-10.0517	 1.9240	-8.1276	-9.9755	 1.8744	-8.1009	50.6587	99.9696	
   240	-9.6868	 1.5924	-8.0945	-10.1331	 2.0561	-8.0770	-10.0881	 2.0272	-8.0607	50.2413	99.9698	
   241	-9.7678	 1.7114	-8.0565	-10.2212	 2.1841	-8.0371	-10.1745	 2.1538	-8.0206	50.0402	99.9696	
   242	-9.8488	 1.8304	-8.0184	-10.3276	 2.3251	-8.0026	-10.2871	 2.3066	-7.9804	49.6730	99.9698	
   243	-9.8845	 1.9632	-7.9214	-10.3381	 2.4644	-7.8738	-10.2689	 2.4245	-7.8443	49.7503	99.9686	
   244	-9.8548	 2.0800	-7.7749	-10.3487	 2.6037	-7.7449	-10.2775	 2.5575	-7.7199	49.5097	99.9682	
   245	-9.9136	 2.1986	-7.7151	-10.4125	 2.7102	-7.7022	-10.3487	 2.6618	-7.6868	49.3786	99.9686	
   246	-10.0032	 2.2982	-7.7051	-10.5021	 2.8129	-7.6892	-10.4799	 2.7816	-7.6982	49.0356	99.9683	
   247	-10.1140	 2.4129	-7.7012	-10.6352	 2.9375	-7.6978	-10.5843	 2.8863	-7.6979	48.9096	99.9679	
   248	-10.1959	 2.5172	-7.6788	-10.7182	 3.0443	-7.6740	-10.6707	 3.0129	-7.6578	48.6744	99.9690	
   249	-10.1825	 2.6099	-7.5727	-10.6986	 3.1536	-7.5450	-10.6532	 3.1197	-7.5334	48.5767	99.9680	
   250	-10.2202	 2.7134	-7.5069	-10.7741	 3.2771	-7.4970	-10.7136	 3.2202	-7.4933	48.4050	99.9670	
   251	-10.3098	 2.8130	-7.4969	-10.8638	 3.3799	-7.4839	-10.8288	 3.3287	-7.5001	48.1471	99.9665	
   252	-10.4071	 2.9078	-7.4993	-10.9601	 3.4785	-7.4817	-10.9282	 3.4259	-7.5021	47.9809	99.9662	
   253	-10.4967	 3.0074	-7.4893	-11.0690	 3.5815	-7.4875	-11.0326	 3.5306	-7.5018	47.7685	99.9667	
   254	-10.5488	 3.1161	-7.4328	-11.1120	 3.7130	-7.3991	-11.0411	 3.6636	-7.3774	47.6959	99.9667	
   255	-10.5277	 3.2135	-7.3143	-11.1123	 3.8099	-7.3024	-11.0575	 3.7598	-7.2976	47.5239	99.9667	
   256	-10.5961	 3.2980	-7.2982	-11.2028	 3.9000	-7.3028	-11.1568	 3.8571	-7.2996	47.2655	99.9671	
   257	-10.6867	 3.3830	-7.3038	-11.2940	 3.9775	-7.3166	-11.2842	 3.9473	-7.3368	46.9944	99.9672	
   258	-10.7926	 3.4584	-7.3343	-11.4170	 4.0597	-7.3573	-11.3951	 4.0373	-7.3577	46.7877	99.9681	
   259	-10.9053	 3.5438	-7.3616	-11.5208	 4.1415	-7.3792	-11.4906	 4.1050	-7.3856	46.7413	99.9674	
   260	-10.9227	 3.6176	-7.3052	-11.5646	 4.2603	-7.3043	-11.5127	 4.1975	-7.3151	46.5936	99.9651	
   261	-10.9622	 3.6917	-7.2706	-11.6057	 4.3201	-7.2856	-11.5795	 4.2833	-7.2961	46.3806	99.9666	
   262	-11.0316	 3.7616	-7.2701	-11.7020	 4.4187	-7.2833	-11.6687	 4.3657	-7.3029	46.1673	99.9651	
   263	-11.1154	 3.8366	-7.2789	-11.8058	 4.5005	-7.3052	-11.7693	 4.4408	-7.3285	45.9874	99.9649	
   264	-11.1925	 3.9017	-7.2908	-11.8845	 4.5736	-7.3109	-11.8687	 4.5380	-7.3305	45.7001	99.9655	
   265	-11.2821	 4.0013	-7.2808	-11.9491	 4.6674	-7.2817	-11.9023	 4.6234	-7.2788	45.7732	99.9657	
   266	-11.2619	 4.0841	-7.1779	-11.9126	 4.7385	-7.1741	-11.8918	 4.7044	-7.1873	45.6998	99.9658	
   267	-11.3024	 4.1436	-7.1589	-11.9964	 4.8327	-7.1637	-11.9701	 4.7830	-7.1871	45.4396	99.9643	
   268	-11.3862	 4.2186	-7.1677	-12.0759	 4.8930	-7.1829	-12.0599	 4.8542	-7.2056	45.3059	99.9653	
   269	-11.4719	 4.2644	-7.2077	-12.1754	 4.9411	-7.2343	-12.1728	 4.9111	-7.2616	45.0784	99.9656	
   270	-11.5788	 4.3252	-7.2537	-12.2991	 5.0107	-7.2885	-12.3016	 4.9792	-7.3223	44.8502	99.9653	
   271	-11.6193	 4.3847	-7.2347	-12.3203	 5.0827	-7.2375	-12.2931	 5.0270	-7.2660	44.9650	99.9637	
   272	-11.6097	 4.4187	-7.1911	-12.3379	 5.1083	-7.2296	-12.3294	 5.0681	-7.2612	44.7769	99.9651	
   273	-11.6742	 4.4494	-7.2250	-12.4240	 5.1646	-7.2595	-12.4155	 5.1098	-7.3056	44.5955	99.9635	
   274	-11.7744	 4.5003	-7.2742	-12.5110	 5.2082	-7.3028	-12.5277	 5.1777	-7.3498	44.3807	99.9643	
   275	-11.8601	 4.5460	-7.3142	-12.5979	 5.2519	-7.3461	-12.6029	 5.2156	-7.3872	44.3334	99.9644	
   276	-11.9304	 4.6012	-7.3293	-12.6708	 5.3163	-7.3544	-12.6602	 5.2754	-7.3847	44.2602	99.9642	
   277	-11.9122	 4.6547	-7.2576	-12.6241	 5.3451	-7.2791	-12.6301	 5.3156	-7.3144	44.3146	99.9650	
   278	-11.9247	 4.6892	-7.2357	-12.6594	 5.3963	-7.2631	-12.6663	 5.3567	-7.3096	44.1800	99.9641	
   279	-11.9738	 4.7293	-7.2447	-12.7322	 5.4607	-7.2715	-12.7345	 5.4203	-7.3141	43.9721	99.9636	
   280	-12.0364	 4.7892	-7.2473	-12.7800	 5.5164	-7.2636	-12.7918	 5.4801	-7.3116	43.8919	99.9634	
   281	-12.0923	 4.8392	-7.2532	-12.8536	 5.5682	-7.2854	-12.8707	 5.5476	-7.3231	43.6767	99.9646	
   282	-12.1184	 4.8936	-7.2249	-12.8504	 5.6188	-7.2317	-12.8515	 5.5916	-7.2598	43.7934	99.9642	
   283	-12.0799	 4.9172	-7.1627	-12.8230	 5.6478	-7.1752	-12.8444	 5.6174	-7.2269	43.6986	99.9634	
   284	-12.1232	 4.9328	-7.1905	-12.8857	 5.6700	-7.2157	-12.9094	 5.6403	-7.2690	43.5563	99.9635	
   285	-12.2031	 4.9539	-7.2493	-12.9742	 5.6883	-7.2859	-12.9924	 5.6414	-7.3509	43.5268	99.9628	
   286	-12.2618	 4.9600	-7.3019	-13.0376	 5.6978	-7.3398	-13.0581	 5.6533	-7.4047	43.4316	99.9628	
   287	-12.3129	 4.9708	-7.3421	-13.1003	 5.7200	-7.3804	-13.1117	 5.6835	-7.4280	43.3111	99.9634	
   288	-12.2811	 5.0044	-7.2768	-13.0286	 5.7398	-7.2888	-13.0433	 5.7159	-7.3273	43.4359	99.9639	
   289	-12.2359	 5.0182	-7.2178	-13.0145	 5.7607	-7.2538	-13.0318	 5.7231	-7.3086	43.3735	99.9633	
   290	-12.2860	 5.0436	-7.2424	-13.0638	 5.7910	-7.2728	-13.0751	 5.7384	-7.3366	43.3661	99.9622	
   291	-12.3072	 5.0587	-7.2485	-13.0764	 5.7955	-7.2809	-13.1229	 5.7723	-7.3505	43.1905	99.9633	
   292	-12.3351	 5.0837	-7.2515	-13.1132	 5.8214	-7.2918	-13.1433	 5.8021	-7.3411	43.1578	99.9643	
   293	-12.3101	 5.1273	-7.1830	-13.0583	 5.8795	-7.1788	-13.0895	 5.8678	-7.2215	43.1702	99.9635	
   294	-12.1840	 5.1345	-7.0496	-12.9416	 5.9028	-7.0387	-12.9987	 5.9036	-7.0950	43.0650	99.9631	
   295	-12.1321	 5.1384	-6.9938	-12.9274	 5.9237	-7.0038	-12.9770	 5.8959	-7.0810	43.0425	99.9615	
   296	-12.1465	 5.1436	-7.0031	-12.9408	 5.9155	-7.0253	-13.0096	 5.9074	-7.1021	42.9472	99.9628	
   297	-12.1677	 5.1587	-7.0091	-12.9768	 5.9540	-7.0228	-13.0357	 5.9336	-7.1020	42.8671	99.9616	
   298	-12.1889	 5.1738	-7.0152	-12.9768	 5.9540	-7.0228	-13.0452	 5.9595	-7.0855	42.8422	99.9632	
   299	-12.0917	 5.1914	-6.9004	-12.8475	 5.9729	-6.8746	-12.9053	 5.9836	-6.9216	43.0301	99.9632	
   300	-11.9887	 5.1844	-6.8044	-12.7766	 5.9801	-6.7964	-12.8395	 5.9716	-6.8678	43.0151	99.9619	
   301	-11.9743	 5.1792	-6.7951	-12.7398	 5.9542	-6.7855	-12.8395	 5.9716	-6.8678	42.9676	99.9628	
   302	-11.9829	 5.1599	-6.8232	-12.7598	 5.9419	-6.8178	-12.8619	 5.9682	-6.8936	42.8800	99.9633	
   303	-12.0041	 5.1750	-6.8292	-12.7731	 5.9337	-6.8394	-12.8683	 5.9536	-6.9147	42.9925	99.9639	
   304	-11.9964	 5.1797	-6.8168	-12.7523	 5.9587	-6.7937	-12.8331	 5.9863	-6.8467	42.9977	99.9637	
   305	-11.8424	 5.1619	-6.6806	-12.5995	 5.9434	-6.6561	-12.6952	 5.9772	-6.7180	43.0601	99.9636	
   306	-11.7991	 5.1464	-6.6528	-12.5627	 5.9175	-6.6452	-12.6851	 5.9623	-6.7227	42.9977	99.9641	
   307	-11.8000	 5.1317	-6.6684	-12.5752	 5.9219	-6.6533	-12.6705	 5.9289	-6.7415	43.1175	99.9619	
   308	-11.7933	 5.1218	-6.6715	-12.5768	 5.8967	-6.6802	-12.6922	 5.9365	-6.7555	42.9826	99.9643	
   309	-11.8019	 5.1024	-6.6996	-12.6019	 5.9055	-6.6964	-12.6986	 5.9218	-6.7766	42.9826	99.9624	
   310	-11.7422	 5.1110	-6.6313	-12.4992	 5.9080	-6.5913	-12.5760	 5.9350	-6.6408	43.2169	99.9632	
   311	-11.6036	 5.0838	-6.5199	-12.3857	 5.8808	-6.5049	-12.4784	 5.9006	-6.5777	43.2420	99.9628	
   312	-11.5969	 5.0739	-6.5231	-12.3739	 5.8637	-6.5102	-12.4682	 5.8857	-6.5825	43.2818	99.9631	
   313	-11.5834	 5.0541	-6.5294	-12.3622	 5.8466	-6.5155	-12.4746	 5.8710	-6.6036	43.2271	99.9626	
   314	-11.5843	 5.0394	-6.5450	-12.3504	 5.8296	-6.5208	-12.4862	 5.8637	-6.6223	43.1798	99.9623	
   315	-11.5776	 5.0295	-6.5482	-12.3504	 5.8296	-6.5208	-12.4530	 5.8633	-6.5895	43.2494	99.9630	
   316	-11.4313	 5.0070	-6.4244	-12.1984	 5.8017	-6.3967	-12.2985	 5.8539	-6.4444	43.3734	99.9645	
   317	-11.3533	 4.9565	-6.3968	-12.1499	 5.7587	-6.3912	-12.2622	 5.8129	-6.4492	43.3114	99.9646	
   318	-11.3629	 4.9225	-6.4405	-12.1338	 5.7078	-6.4260	-12.2656	 5.7575	-6.5079	43.4162	99.9638	
   319	-11.3724	 4.8884	-6.4841	-12.1487	 5.6744	-6.4744	-12.2581	 5.6984	-6.5596	43.5683	99.9629	
   320	-11.3888	 4.8643	-6.5246	-12.1511	 5.6365	-6.5147	-12.2977	 5.6841	-6.6134	43.4665	99.9635	
   321	-11.3310	 4.8436	-6.4875	-12.0751	 5.6225	-6.4526	-12.1561	 5.6454	-6.5106	43.8582	99.9634	
   322	-11.1577	 4.7814	-6.3764	-11.9122	 5.5650	-6.3472	-12.0151	 5.5956	-6.4194	43.9052	99.9633	
   323	-11.1384	 4.7370	-6.4015	-11.9028	 5.5100	-6.3928	-12.0083	 5.5254	-6.4828	43.9960	99.9628	
   324	-11.1336	 4.6978	-6.4359	-11.8934	 5.4550	-6.4384	-12.0160	 5.4886	-6.5274	43.9817	99.9641	
   325	-11.1287	 4.6586	-6.4702	-11.8950	 5.4297	-6.4653	-12.0231	 5.4628	-6.5602	43.9346	99.9633	
   326	-11.1374	 4.6392	-6.4983	-11.8715	 5.3956	-6.4759	-11.9906	 5.4513	-6.5392	44.0502	99.9650	
   327	-10.9910	 4.6167	-6.3744	-11.7062	 5.3759	-6.3303	-11.7992	 5.4119	-6.3871	44.3854	99.9641	
   328	-10.8697	 4.5507	-6.3191	-11.5832	 5.2937	-6.2895	-11.7094	 5.3407	-6.3686	44.4510	99.9645	
   329	-10.8514	 4.4916	-6.3598	-11.5856	 5.2558	-6.3298	-11.7236	 5.2892	-6.4343	44.3831	99.9627	
   330	-10.8542	 4.4477	-6.4066	-11.5821	 5.2094	-6.3727	-11.7096	 5.2447	-6.4648	44.4698	99.9631	
   331	-10.8494	 4.4084	-6.4410	-11.5727	 5.1544	-6.4183	-11.7174	 5.2079	-6.5094	44.4558	99.9643	
   332	-10.8205	 4.3981	-6.4225	-11.4842	 5.1361	-6.3482	-11.5910	 5.1915	-6.3994	44.8176	99.9647	
   333	-10.6106	 4.3303	-6.2804	-11.2954	 5.0823	-6.2131	-11.4284	 5.1340	-6.2943	44.8573	99.9635	
   334	-10.5769	 4.2807	-6.2962	-11.2618	 5.0058	-6.2560	-11.3890	 5.0523	-6.3366	45.0424	99.9645	
   335	-10.5653	 4.2316	-6.3338	-11.2524	 4.9508	-6.3016	-11.3707	 4.9893	-6.3813	45.1550	99.9646	
   336	-10.5614	 4.1777	-6.3838	-11.2305	 4.8914	-6.3391	-11.3893	 4.9563	-6.4329	45.0618	99.9648	
   337	-10.5777	 4.1536	-6.4242	-11.2446	 4.8706	-6.3740	-11.3747	 4.9229	-6.4517	45.1948	99.9647	
   338	-10.4246	 4.1212	-6.3036	-11.0550	 4.8294	-6.2256	-11.1399	 4.8682	-6.2716	45.6721	99.9649	
   339	-10.2888	 4.0500	-6.2390	-10.9312	 4.7599	-6.1714	-11.0609	 4.8008	-6.2601	45.6458	99.9638	
   340	-10.2705	 3.9909	-6.2797	-10.9168	 4.6837	-6.2331	-11.0585	 4.7491	-6.3094	45.6326	99.9658	
   341	-10.2666	 3.9370	-6.3297	-10.9074	 4.6287	-6.2787	-11.0670	 4.7012	-6.3657	45.6194	99.9656	
   342	-10.2829	 3.9129	-6.3701	-10.9098	 4.5908	-6.3190	-11.0856	 4.6682	-6.4173	45.6459	99.9656	
   343	-10.2473	 3.8926	-6.3548	-10.8346	 4.5643	-6.2703	-10.9548	 4.6333	-6.3214	46.0357	99.9663	
   344	-10.0586	 3.8400	-6.2188	-10.6458	 4.5105	-6.1353	-10.7705	 4.5682	-6.2022	46.2534	99.9656	
   345	-9.9960	 3.7800	-6.2161	-10.6047	 4.4507	-6.1539	-10.7464	 4.5088	-6.2375	46.2278	99.9655	
   346	-9.9853	 3.7162	-6.2692	-10.5961	 4.3831	-6.2130	-10.7548	 4.4609	-6.2938	46.1753	99.9664	
   347	-10.0017	 3.6921	-6.3097	-10.6227	 4.3667	-6.2560	-10.7734	 4.4279	-6.3454	46.2022	99.9655	
   348	-10.0113	 3.6580	-6.3533	-10.6310	 4.3373	-6.2936	-10.7805	 4.4022	-6.3782	46.2022	99.9655	
   349	-9.9015	 3.6412	-6.2605	-10.4790	 4.3095	-6.1695	-10.5993	 4.3777	-6.2214	46.5499	99.9662	
   350	-9.7648	 3.5846	-6.1803	-10.3670	 4.2570	-6.1100	-10.5094	 4.3064	-6.2029	46.6042	99.9647	
   351	-9.7754	 3.5359	-6.2395	-10.3592	 4.1767	-6.1825	-10.5192	 4.2364	-6.2827	46.7046	99.9657	
   352	-9.7926	 3.4972	-6.2956	-10.3933	 4.1436	-6.2497	-10.5487	 4.2073	-6.3413	46.6523	99.9662	
   353	-9.8176	 3.4536	-6.3641	-10.4274	 4.1104	-6.3170	-10.5679	 4.1632	-6.4046	46.6858	99.9657	
   354	-9.8398	 3.4541	-6.3858	-10.4031	 4.0889	-6.3142	-10.5354	 4.1517	-6.3836	46.8760	99.9665	
   355	-9.6578	 3.4113	-6.2466	-10.2068	 4.0519	-6.1550	-10.3650	 4.1311	-6.2338	46.9465	99.9662	
   356	-9.6019	 3.3613	-6.2407	-10.1791	 3.9839	-6.1951	-10.3416	 4.0606	-6.2808	46.9952	99.9674	
   357	-9.6269	 3.3178	-6.3092	-10.2257	 3.9552	-6.2705	-10.3832	 4.0132	-6.3699	46.9706	99.9661	
   358	-9.6577	 3.2988	-6.3590	-10.2531	 3.9261	-6.3270	-10.4127	 3.9840	-6.4285	46.9981	99.9664	
   359	-9.6875	 3.2945	-6.3931	-10.2790	 3.9224	-6.3566	-10.4452	 3.9955	-6.4495	46.9184	99.9670	
   360	-9.6356	 3.2984	-6.3373	-10.1881	 3.9419	-6.2462	-10.3060	 4.0085	-6.2974	47.1968	99.9666	
   361	-9.4883	 3.2905	-6.1979	-10.0302	 3.9055	-6.1247	-10.1860	 3.9774	-6.2085	47.3098	99.9669	
   362	-9.4690	 3.2461	-6.2230	-10.0385	 3.8761	-6.1623	-10.1836	 3.9257	-6.2578	47.3314	99.9657	
   363	-9.4998	 3.2272	-6.2727	-10.0851	 3.8474	-6.2377	-10.2290	 3.9079	-6.3210	47.2735	99.9672	
   364	-9.5315	 3.1936	-6.3380	-10.1251	 3.8228	-6.3023	-10.2808	 3.8753	-6.4054	47.2094	99.9661	
   365	-9.5767	 3.1798	-6.3970	-10.1709	 3.8067	-6.3642	-10.3465	 3.8872	-6.4592	47.0379	99.9673	
   366	-9.5248	 3.1837	-6.3412	-10.0624	 3.8006	-6.2618	-10.1826	 3.8519	-6.3306	47.5479	99.9664	
   367	-9.4237	 3.1474	-6.2764	-9.9880	 3.7614	-6.2266	-10.1405	 3.8144	-6.3260	47.4783	99.9663	
   368	-9.4477	 3.1185	-6.3293	-10.0338	 3.7453	-6.2885	-10.1917	 3.7929	-6.3986	47.3747	99.9656	
   369	-9.4852	 3.1095	-6.3758	-10.0613	 3.7163	-6.3450	-10.2249	 3.7934	-6.4314	47.3349	99.9679	
   370	-9.5363	 3.1203	-6.4160	-10.1056	 3.7255	-6.3801	-10.2587	 3.7827	-6.4759	47.4085	99.9669	
   371	-9.5719	 3.1406	-6.4314	-10.1114	 3.7340	-6.3774	-10.2676	 3.8198	-6.4477	47.3928	99.9684	
   372	-9.4603	 3.1530	-6.3073	-9.9880	 3.7614	-6.2266	-10.1392	 3.8366	-6.3025	47.5082	99.9671	
   373	-9.4218	 3.1767	-6.2452	-9.9731	 3.7949	-6.1782	-10.1104	 3.8547	-6.2557	47.5082	99.9667	
   374	-9.4488	 3.2164	-6.2325	-10.0158	 3.8294	-6.1864	-10.1524	 3.8921	-6.2602	47.4168	99.9675	
   375	-9.5065	 3.2371	-6.2695	-10.0859	 3.8348	-6.2511	-10.2405	 3.9006	-6.3398	47.3012	99.9680	
   376	-9.6538	 3.2449	-6.4090	-10.2387	 3.8500	-6.3887	-10.3886	 3.9247	-6.4638	47.1237	99.9684	
   377	-9.8213	 3.2825	-6.5389	-10.3758	 3.9113	-6.4644	-10.4669	 4.0032	-6.4636	47.1053	99.9696	
   378	-9.8589	 3.3860	-6.4731	-10.3428	 4.0289	-6.3139	-10.3860	 4.1498	-6.2361	47.2205	99.9707	
   379	-9.9361	 3.5636	-6.3726	-10.4085	 4.2071	-6.2015	-10.4499	 4.3758	-6.0740	46.9085	99.9733	
   380	-10.1740	 3.7689	-6.4052	-10.5686	 4.4122	-6.1565	-10.4832	 4.5571	-5.9260	47.2646	99.9739	
   381	-10.2367	 3.8288	-6.4079	-10.5287	 4.4368	-6.0919	-10.3677	 4.5445	-5.8230	47.9376	99.9734	
   382	-10.0748	 3.7033	-6.3716	-10.3846	 4.2826	-6.1020	-10.2863	 4.4254	-5.8608	47.8974	99.9750	
   383	-9.7208	 3.8087	-5.9121	-10.0864	 4.4420	-5.6444	-9.9425	 4.5243	-5.4181	48.0772	99.9722	
   384	-9.3425	 3.8305	-5.5121	-9.7459	 4.4573	-5.2886	-9.6675	 4.4949	-5.1724	48.2047	99.9690	
   385	-9.0105	 3.8239	-5.1867	-9.4537	 4.4186	-5.0350	-9.4940	 4.4336	-5.0603	48.1646	99.9664	
   386	-8.8458	 3.7424	-5.1036	-9.3299	 4.3491	-4.9808	-9.4035	 4.3734	-5.0300	48.0634	99.9664	
   387	-8.8072	 3.6535	-5.1538	-9.3221	 4.2688	-5.0533	-9.4407	 4.3074	-5.1332	47.8604	99.9661	
   388	-8.8448	 3.6445	-5.2003	-9.3229	 4.2562	-5.0667	-9.4407	 4.3074	-5.1332	47.9228	99.9662	
   389	-8.7851	 3.6531	-5.1321	-9.2587	 4.2593	-4.9993	-9.3692	 4.2991	-5.0700	48.0520	99.9659	
   390	-8.7523	 3.5889	-5.1635	-9.2634	 4.1835	-5.0799	-9.4166	 4.2481	-5.1684	47.8430	99.9674	
   391	-8.7311	 3.5738	-5.1574	-9.2007	 4.1614	-5.0394	-9.3299	 4.2174	-5.1123	48.1190	99.9670	
   392	-8.7734	 3.4915	-5.2820	-9.2513	 4.0694	-5.1819	-9.4067	 4.1372	-5.2694	48.0396	99.9674	
   393	-8.9369	 3.3627	-5.5743	-9.4770	 3.9425	-5.5345	-9.6319	 3.9851	-5.6467	47.9019	99.9670	
   394	-9.2053	 3.2115	-5.9938	-9.7635	 3.7661	-5.9975	-9.9254	 3.8006	-6.1247	47.8422	99.9674	
   395	-9.3004	 3.1107	-6.1898	-9.8600	 3.6581	-6.2019	-10.0304	 3.7134	-6.3169	47.7730	99.9686	
   396	-9.3100	 3.0767	-6.2335	-9.8898	 3.5911	-6.2987	-10.1065	 3.6442	-6.4622	47.7018	99.9688	
   397	-9.4140	 3.0690	-6.3451	-10.0132	 3.5637	-6.4495	-10.2349	 3.6274	-6.6074	47.5799	99.9705	
   398	-9.5458	 3.0863	-6.4597	-10.1518	 3.5997	-6.5521	-10.3548	 3.6585	-6.6963	47.4537	99.9701	
   399	-9.6460	 3.1372	-6.5089	-10.2396	 3.6307	-6.6088	-10.4402	 3.7113	-6.7289	47.3735	99.9719	
   400	-9.7038	 3.1579	-6.5460	-10.2940	 3.6823	-6.6117	-10.4599	 3.7521	-6.7077	47.3638	99.9710	
   401	-9.5844	 3.1751	-6.4095	-10.1439	 3.7261	-6.4178	-10.2581	 3.7938	-6.4641	47.6196	99.9708	
   402	-9.5479	 3.1695	-6.3785	-10.0864	 3.7251	-6.3612	-10.2465	 3.8010	-6.4454	47.5340	99.9693	
   403	-9.5171	 3.1884	-6.3288	-10.0765	 3.7798	-6.2967	-10.2273	 3.8451	-6.3821	47.4266	99.9679	
   404	-9.4921	 3.2319	-6.2603	-10.0475	 3.8341	-6.2134	-10.1971	 3.8853	-6.3117	47.4386	99.9666	
   405	-9.4690	 3.2461	-6.2230	-10.0408	 3.8382	-6.2026	-10.2182	 3.9040	-6.3140	47.2951	99.9674	
   406	-9.4373	 3.2797	-6.1576	-9.9876	 3.8711	-6.1165	-10.1006	 3.9247	-6.1759	47.5995	99.9683	
   407	-9.2814	 3.2913	-5.9902	-9.8399	 3.8770	-5.9629	-9.9902	 3.9195	-6.0705	47.6273	99.9670	
   408	-9.2313	 3.2658	-5.9655	-9.8281	 3.8599	-5.9682	-9.9915	 3.8974	-6.0940	47.5181	99.9668	
   409	-9.2688	 3.2568	-6.0121	-9.8673	 3.8479	-6.0194	-10.0362	 3.8906	-6.1455	47.4663	99.9670	
   410	-9.2833	 3.2620	-6.0214	-9.8865	 3.8483	-6.0382	-10.0579	 3.8983	-6.1596	47.4205	99.9677	
   411	-9.3112	 3.2870	-6.0243	-9.9033	 3.8865	-6.0168	-10.0559	 3.9315	-6.1244	47.4446	99.9672	
   412	-9.2140	 3.3046	-5.9095	-9.7564	 3.8798	-5.8766	-9.8842	 3.9329	-5.9511	47.7877	99.9685	
   413	-9.1187	 3.2929	-5.8259	-9.6929	 3.8703	-5.8227	-9.8408	 3.9176	-5.9231	47.7245	99.9682	
   414	-9.1225	 3.2343	-5.8883	-9.7270	 3.8371	-5.8899	-9.8601	 3.8736	-5.9864	47.6730	99.9675	
   415	-9.1533	 3.2154	-5.9380	-9.7537	 3.8207	-5.9330	-9.9048	 3.8668	-6.0379	47.5817	99.9673	
   416	-9.1822	 3.2257	-5.9565	-9.7662	 3.8251	-5.9411	-9.9163	 3.8595	-6.0567	47.6611	99.9665	
   417	-9.1523	 3.2300	-5.9224	-9.7270	 3.8371	-5.8899	-9.8384	 3.8659	-5.9724	47.8214	99.9669	
   418	-8.9829	 3.2218	-5.7613	-9.5425	 3.8172	-5.7254	-9.6934	 3.8825	-5.8108	47.8052	99.9682	
   419	-8.9203	 3.1618	-5.7586	-9.5014	 3.7574	-5.7440	-9.6541	 3.8008	-5.8532	47.9007	99.9672	
   420	-8.9443	 3.1329	-5.8115	-9.5289	 3.7284	-5.8005	-9.6567	 3.7565	-5.9001	48.0197	99.9671	
   421	-8.9549	 3.0842	-5.8707	-9.5262	 3.6693	-5.8569	-9.6970	 3.7312	-5.9657	47.8832	99.9679	
   422	-8.9722	 3.0455	-5.9268	-9.5595	 3.6488	-5.9107	-9.7265	 3.7021	-6.0243	47.8318	99.9670	
   423	-8.9000	 3.0196	-5.8805	-9.4459	 3.6215	-5.8243	-9.5784	 3.6780	-5.9003	48.1336	99.9675	
   424	-8.7777	 2.9682	-5.8096	-9.3472	 3.5608	-5.7863	-9.4784	 3.5918	-5.8865	48.3145	99.9669	
   425	-8.7757	 2.8850	-5.8908	-9.3586	 3.4809	-5.8777	-9.4991	 3.5256	-5.9733	48.2577	99.9676	
   426	-8.7930	 2.8462	-5.9468	-9.3426	 3.4301	-5.9125	-9.4851	 3.4812	-6.0039	48.3881	99.9677	
   427	-8.7583	 2.8113	-5.9471	-9.3183	 3.4086	-5.9097	-9.4533	 3.4586	-5.9946	48.3937	99.9675	
   428	-8.6996	 2.8052	-5.8944	-9.2415	 3.4073	-5.8342	-9.3588	 3.4648	-5.8939	48.5124	99.9680	
   429	-8.5167	 2.7771	-5.7396	-9.0452	 3.3702	-5.6750	-9.1521	 3.4031	-5.7489	48.8566	99.9669	
   430	-8.4329	 2.7021	-5.7309	-8.9748	 3.2678	-5.7069	-9.1185	 3.3177	-5.8007	48.8631	99.9683	
   431	-8.4597	 2.6293	-5.8306	-8.9870	 3.1753	-5.8117	-9.1608	 3.2592	-5.9015	48.8069	99.9699	
   432	-8.4847	 2.5857	-5.8991	-9.0219	 3.1295	-5.8924	-9.1706	 3.1892	-5.9813	48.9545	99.9695	
   433	-8.4866	 2.5564	-5.9303	-9.0168	 3.1083	-5.9085	-9.1706	 3.1892	-5.9813	48.8862	99.9701	
   434	-8.3759	 2.5542	-5.8218	-8.8624	 3.1183	-5.7441	-8.9656	 3.1903	-5.7753	49.2446	99.9697	
   435	-8.1853	 2.5309	-5.6546	-8.6971	 3.0987	-5.5984	-8.8023	 3.1439	-5.6584	49.4025	99.9685	
   436	-8.1227	 2.4709	-5.6519	-8.6435	 3.0345	-5.6089	-8.7826	 3.1030	-5.6795	49.3075	99.9693	
   437	-8.1102	 2.4364	-5.6738	-8.6149	 2.9792	-5.6357	-8.7579	 3.0547	-5.7031	49.4260	99.9701	
   438	-8.0918	 2.3774	-5.7146	-8.6173	 2.9413	-5.6760	-8.7612	 2.9994	-5.7618	49.4101	99.9685	
   439	-8.1072	 2.3679	-5.7394	-8.5996	 2.9157	-5.6839	-8.7070	 2.9802	-5.7267	49.6446	99.9700	
   440	-7.9320	 2.3350	-5.5971	-8.3909	 2.8742	-5.5166	-8.4881	 2.9368	-5.5513	49.9672	99.9699	
   441	-7.8251	 2.2742	-5.5510	-8.3239	 2.8183	-5.5056	-8.4475	 2.8772	-5.5701	49.8970	99.9696	
   442	-7.8145	 2.2104	-5.6042	-8.3212	 2.7592	-5.5620	-8.4355	 2.7995	-5.6359	50.0051	99.9687	
   443	-7.8250	 2.1617	-5.6634	-8.2942	 2.6786	-5.6156	-8.4389	 2.7442	-5.6946	50.0790	99.9697	
   444	-7.8279	 2.1178	-5.7102	-8.3275	 2.6581	-5.6694	-8.4575	 2.7112	-5.7462	50.0293	99.9691	
   445	-7.7624	 2.1018	-5.6607	-8.2131	 2.6435	-5.5696	-8.2871	 2.6906	-5.5964	50.4155	99.9694	
   446	-7.5958	 2.0495	-5.5464	-8.0510	 2.5733	-5.4776	-8.1583	 2.6225	-5.5357	50.5238	99.9694	
   447	-7.5707	 1.9806	-5.5903	-8.0306	 2.4886	-5.5420	-8.1477	 2.5227	-5.6250	50.6569	99.9689	
   448	-7.5755	 1.9073	-5.6683	-8.0604	 2.4217	-5.6388	-8.1626	 2.4601	-5.7024	50.6471	99.9698	
   449	-7.5937	 1.8539	-5.7400	-8.0703	 2.3670	-5.7032	-8.1985	 2.4163	-5.7821	50.5928	99.9695	
   450	-7.6110	 1.8151	-5.7960	-8.0785	 2.3377	-5.7409	-8.1730	 2.3791	-5.7939	50.7310	99.9695	
   451	-7.4724	 1.7878	-5.6846	-7.8956	 2.2924	-5.6032	-7.9918	 2.3546	-5.6371	50.9717	99.9705	
   452	-7.3790	 1.7468	-5.6322	-7.8278	 2.2491	-5.5787	-7.9237	 2.2909	-5.6326	51.0757	99.9700	
   453	-7.3385	 1.6873	-5.6513	-7.7985	 2.2064	-5.5921	-7.9040	 2.2501	-5.6538	51.0314	99.9693	
   454	-7.3250	 1.6675	-5.6576	-7.7816	 2.1682	-5.6135	-7.8951	 2.2131	-5.6820	51.1008	99.9699	
   455	-7.3134	 1.6184	-5.6951	-7.7789	 2.1091	-5.6698	-7.9195	 2.1765	-5.7429	51.0027	99.9710	
   456	-7.3144	 1.6037	-5.7107	-7.7656	 2.1173	-5.6483	-7.8321	 2.1569	-5.6751	51.2870	99.9703	
   457	-7.1459	 1.5808	-5.5652	-7.5819	 2.0847	-5.4972	-7.6681	 2.1215	-5.5465	51.4585	99.9697	
   458	-7.0679	 1.5303	-5.5377	-7.5275	 2.0332	-5.4943	-7.6478	 2.0918	-5.5559	51.3217	99.9705	
   459	-7.0630	 1.4911	-5.5721	-7.5365	 1.9912	-5.5453	-7.6511	 2.0364	-5.6146	51.3866	99.9703	
   460	-7.0957	 1.4428	-5.6530	-7.5655	 1.9368	-5.6287	-7.6755	 1.9998	-5.6756	51.3866	99.9716	
   461	-7.1121	 1.4187	-5.6935	-7.5847	 1.9372	-5.6476	-7.6768	 1.9777	-5.6990	51.4307	99.9698	
   462	-6.9792	 1.4161	-5.5633	-7.4069	 1.9131	-5.4938	-7.4898	 1.9568	-5.5329	51.7479	99.9703	
   463	-6.8647	 1.3600	-5.5048	-7.3148	 1.8483	-5.4666	-7.4051	 1.8930	-5.5120	51.8176	99.9710	
   464	-6.8463	 1.3009	-5.5455	-7.3172	 1.8104	-5.5069	-7.4288	 1.8675	-5.5612	51.6464	99.9707	
   465	-6.8405	 1.2763	-5.5643	-7.3063	 1.7807	-5.5256	-7.4257	 1.8268	-5.5988	51.7161	99.9699	
   466	-6.8501	 1.2423	-5.6079	-7.3212	 1.7472	-5.5740	-7.4494	 1.8013	-5.6480	51.6675	99.9701	
   467	-6.8587	 1.2229	-5.6359	-7.3212	 1.7472	-5.5740	-7.4054	 1.7970	-5.6082	51.7782	99.9702	
   468	-6.7115	 1.2151	-5.4965	-7.1433	 1.7231	-5.4202	-7.2394	 1.7949	-5.4444	51.9278	99.9713	
   469	-6.6402	 1.1745	-5.4658	-7.1006	 1.6886	-5.4120	-7.1885	 1.7204	-5.4680	52.0673	99.9695	
   470	-6.6575	 1.1357	-5.5219	-7.1038	 1.6381	-5.4657	-7.2020	 1.6800	-5.5219	52.1023	99.9699	
   471	-6.6671	 1.1017	-5.5655	-7.1246	 1.6131	-5.5114	-7.2257	 1.6544	-5.5712	52.0540	99.9696	
   472	-6.6834	 1.0776	-5.6060	-7.1461	 1.5755	-5.5706	-7.2711	 1.6366	-5.6344	51.9573	99.9707	
   473	-6.6545	 1.0672	-5.5875	-7.0885	 1.5746	-5.5140	-7.1505	 1.6166	-5.5338	52.2816	99.9705	
   474	-6.5381	 1.0404	-5.4978	-6.9632	 1.5303	-5.4329	-7.0427	 1.5672	-5.4754	52.4390	99.9703	
   475	-6.5207	 0.9667	-5.5541	-6.9738	 1.4630	-5.5108	-7.0742	 1.5048	-5.5692	52.3343	99.9702	
   476	-6.5533	 0.9184	-5.6350	-7.0154	 1.4131	-5.6023	-7.1216	 1.4538	-5.6677	52.3169	99.9702	
   477	-6.5725	 0.8503	-5.7223	-7.0628	 1.3717	-5.6911	-7.1740	 1.4102	-5.7638	52.1809	99.9693	
   478	-6.6476	 0.8323	-5.8154	-7.0926	 1.3048	-5.7878	-7.2099	 1.3663	-5.8435	52.3389	99.9715	
   479	-6.5898	 0.8116	-5.7783	-7.0158	 1.3035	-5.7123	-7.1103	 1.3650	-5.7452	52.4525	99.9710	
   480	-6.4897	 0.7607	-5.7291	-6.9297	 1.2472	-5.6825	-7.0588	 1.3016	-5.7571	52.4704	99.9701	
   481	-6.5079	 0.7072	-5.8008	-6.9645	 1.2014	-5.7631	-7.0679	 1.2427	-5.8251	52.5451	99.9701	
   482	-6.5242	 0.6831	-5.8413	-6.9736	 1.1594	-5.8142	-7.1024	 1.2210	-5.8813	52.4927	99.9711	
   483	-6.5329	 0.6637	-5.8693	-6.9810	 1.1427	-5.8384	-7.1089	 1.2063	-5.9024	52.4927	99.9711	
   484	-6.5483	 0.6542	-5.8942	-7.0061	 1.1515	-5.8546	-7.1133	 1.2248	-5.8884	52.4266	99.9717	
   485	-6.4434	 0.6766	-5.7669	-6.8701	 1.1745	-5.6956	-6.9473	 1.2227	-5.7245	52.7411	99.9705	
   486	-6.3712	 0.6507	-5.7206	-6.8325	 1.1612	-5.6713	-6.9263	 1.2040	-5.7222	52.6454	99.9699	
   487	-6.3866	 0.6412	-5.7455	-6.8400	 1.1445	-5.6955	-6.9595	 1.2044	-5.7550	52.5579	99.9703	
   488	-6.4010	 0.6464	-5.7547	-6.8467	 1.1404	-5.7063	-6.9601	 1.1933	-5.7667	52.6369	99.9703	
   489	-6.4010	 0.6464	-5.7547	-6.8651	 1.1533	-5.7117	-6.9710	 1.1972	-5.7737	52.5931	99.9698	
   490	-6.4001	 0.6610	-5.7391	-6.8560	 1.1954	-5.6607	-6.9293	 1.2446	-5.6846	52.5878	99.9698	
   491	-6.2807	 0.6782	-5.6026	-6.7150	 1.1972	-5.5178	-6.8074	 1.2467	-5.5606	52.7186	99.9696	
   492	-6.2239	 0.6429	-5.5812	-6.7033	 1.1801	-5.5231	-6.7877	 1.2059	-5.5818	52.7017	99.9685	
   493	-6.2316	 0.6381	-5.5936	-6.6915	 1.1631	-5.5284	-6.7769	 1.2020	-5.5747	52.7496	99.9694	
   494	-6.2316	 0.6381	-5.5936	-6.7040	 1.1675	-5.5366	-6.7979	 1.2208	-5.5770	52.6272	99.9701	
   495	-6.2528	 0.6532	-5.5997	-6.7166	 1.1719	-5.5447	-6.8094	 1.2135	-5.5958	52.7017	99.9697	
   496	-6.2288	 0.6821	-5.5468	-6.6625	 1.2174	-5.4451	-6.7071	 1.2565	-5.4505	52.8700	99.9697	
   497	-6.1036	 0.6747	-5.4290	-6.5548	 1.1987	-5.3561	-6.6312	 1.2297	-5.4015	52.8926	99.9692	
   498	-6.1209	 0.6359	-5.4851	-6.5830	 1.1570	-5.4260	-6.6773	 1.2007	-5.4764	52.7973	99.9697	
   499	-6.1363	 0.6264	-5.5100	-6.6022	 1.1573	-5.4449	-6.6888	 1.1935	-5.4952	52.7973	99.9691	
   500	-6.1373	 0.6118	-5.5256	-6.6147	 1.1618	-5.4530	-6.7105	 1.2012	-5.5092	52.6751	99.9685	
   501	-6.1508	 0.6316	-5.5192	-6.6206	 1.1703	-5.4503	-6.7091	 1.2233	-5.4857	52.6835	99.9699	
   502	-6.0603	 0.6591	-5.4013	-6.4964	 1.2104	-5.2860	-6.5469	 1.2507	-5.2961	52.9299	99.9691	
   503	-5.9727	 0.6427	-5.3301	-6.4220	 1.1712	-5.2508	-6.5055	 1.2022	-5.3032	52.9836	99.9688	
   504	-5.9977	 0.5992	-5.3986	-6.4627	 1.1339	-5.3288	-6.5573	 1.1697	-5.3876	52.8885	99.9688	
   505	-6.0217	 0.5703	-5.4515	-6.4902	 1.1048	-5.3853	-6.5817	 1.1331	-5.4485	52.9195	99.9685	
   506	-6.0602	 0.5466	-5.5136	-6.5301	 1.0802	-5.4499	-6.6213	 1.1188	-5.5024	52.8760	99.9691	
   507	-6.0833	 0.5324	-5.5509	-6.5443	 1.0594	-5.4849	-6.6430	 1.1265	-5.5164	52.8015	99.9707	
   508	-6.0015	 0.5406	-5.4610	-6.4475	 1.0704	-5.3771	-6.5065	 1.0952	-5.4112	53.1407	99.9689	
   509	-5.9668	 0.5057	-5.4612	-6.4424	 1.0492	-5.3932	-6.5346	 1.0882	-5.4463	52.9237	99.9688	
   510	-5.9822	 0.4962	-5.4861	-6.4440	 1.0239	-5.4200	-6.5353	 1.0771	-5.4581	52.9671	99.9701	
   511	-5.9831	 0.4815	-5.5017	-6.4506	 1.0198	-5.4308	-6.5366	 1.0550	-5.4815	53.0023	99.9688	
   512	-6.0130	 0.4772	-5.5358	-6.4714	 0.9949	-5.4765	-6.5820	 1.0371	-5.5448	52.9858	99.9692	
   513	-6.0274	 0.4824	-5.5451	-6.4706	 1.0075	-5.4631	-6.5264	 1.0401	-5.4862	53.1759	99.9696	
   514	-5.9244	 0.4755	-5.4491	-6.3805	 1.0144	-5.3661	-6.4383	 1.0316	-5.4067	53.2193	99.9683	
   515	-5.9186	 0.4509	-5.4678	-6.3888	 0.9851	-5.4037	-6.4614	 1.0171	-5.4442	53.1285	99.9693	
   516	-5.9119	 0.4410	-5.4710	-6.3829	 0.9765	-5.4064	-6.4620	 1.0060	-5.4559	53.1244	99.9689	
   517	-5.9273	 0.4315	-5.4959	-6.3970	 0.9557	-5.4413	-6.4952	 1.0065	-5.4887	53.0375	99.9700	
   518	-5.9561	 0.4419	-5.5144	-6.4088	 0.9727	-5.4360	-6.4946	 1.0175	-5.4769	53.0892	99.9694	
   519	-5.8946	 0.4798	-5.4149	-6.3355	 1.0179	-5.3176	-6.3757	 1.0603	-5.3153	53.2475	99.9701	
   520	-5.7916	 0.4728	-5.3189	-6.2219	 0.9907	-5.2312	-6.3113	 1.0262	-5.2850	53.3099	99.9689	
   521	-5.8079	 0.4487	-5.3594	-6.2552	 0.9702	-5.2850	-6.3299	 0.9933	-5.3366	53.3411	99.9688	
   522	-5.8166	 0.4293	-5.3874	-6.2760	 0.9452	-5.3308	-6.3529	 0.9788	-5.3741	53.2938	99.9698	
   523	-5.8252	 0.4099	-5.4154	-6.2717	 0.9114	-5.3603	-6.3658	 0.9494	-5.4163	53.3251	99.9699	
   524	-5.8551	 0.4056	-5.4496	-6.3093	 0.9247	-5.3846	-6.3760	 0.9643	-5.4115	53.2978	99.9702	
   525	-5.7579	 0.4232	-5.3347	-6.1808	 0.9309	-5.2498	-6.2432	 0.9626	-5.2805	53.5180	99.9698	
   526	-5.7010	 0.3879	-5.3133	-6.1573	 0.8968	-5.2605	-6.2343	 0.9256	-5.3087	53.4590	99.9698	
   527	-5.7174	 0.3637	-5.3538	-6.1589	 0.8715	-5.2873	-6.2306	 0.8960	-5.3345	53.5415	99.9694	
   528	-5.7183	 0.3491	-5.3694	-6.1730	 0.8507	-5.3223	-6.2536	 0.8815	-5.3720	53.4903	99.9701	
   529	-5.7337	 0.3396	-5.3942	-6.1863	 0.8425	-5.3438	-6.2766	 0.8671	-5.4095	53.4824	99.9693	
   530	-5.7270	 0.3297	-5.3974	-6.1495	 0.8166	-5.3329	-6.2326	 0.8628	-5.3697	53.5807	99.9708	
   531	-5.6317	 0.3180	-5.3138	-6.0610	 0.7982	-5.2628	-6.1357	 0.8173	-5.3183	53.7771	99.9699	
   532	-5.6278	 0.2641	-5.3638	-6.0892	 0.7565	-5.3327	-6.1767	 0.7809	-5.3957	53.6398	99.9700	
   533	-5.6509	 0.2499	-5.4011	-6.0841	 0.7353	-5.3488	-6.1773	 0.7698	-5.4074	53.6869	99.9701	
   534	-5.6432	 0.2546	-5.3886	-6.0892	 0.7565	-5.3327	-6.1658	 0.7771	-5.3887	53.6908	99.9694	
   535	-5.6499	 0.2646	-5.3855	-6.0892	 0.7565	-5.3327	-6.1543	 0.7843	-5.3699	53.7379	99.9704	
   536	-5.5720	 0.3266	-5.2455	-5.9928	 0.8645	-5.1282	-6.0033	 0.9005	-5.1027	53.7643	99.9703	
   537	-5.3498	 0.4493	-4.9006	-5.7694	 0.9535	-4.8159	-5.8231	 0.9498	-4.8732	53.9521	99.9683	
   538	-5.3699	 0.3666	-5.0035	-5.8259	 0.8701	-4.9557	-5.8878	 0.8879	-4.9998	53.8118	99.9700	
   539	-5.4392	 0.3239	-5.1154	-5.8541	 0.8284	-5.0257	-5.8962	 0.8400	-5.0561	53.9837	99.9693	
   540	-5.4642	 0.2804	-5.1839	-5.8898	 0.7700	-5.1198	-5.9602	 0.7892	-5.1709	53.9179	99.9697	
   541	-5.5122	 0.2227	-5.2897	-5.9380	 0.7160	-5.2220	-6.0018	 0.7417	-5.2600	53.9141	99.9701	
   542	-5.4391	 0.2114	-5.2277	-5.8311	 0.6847	-5.1464	-5.8660	 0.6994	-5.1665	54.2540	99.9704	
   543	-5.3995	 0.1373	-5.2624	-5.8358	 0.6089	-5.2269	-5.8930	 0.6185	-5.2744	54.1813	99.9704	
   544	-5.4399	 0.0843	-5.3557	-5.8774	 0.5590	-5.3184	-5.9346	 0.5711	-5.3635	54.1738	99.9704	
   545	-5.4563	 0.0602	-5.3962	-5.8923	 0.5255	-5.3668	-5.9475	 0.5417	-5.4057	54.2094	99.9710	
   546	-5.4735	 0.0214	-5.4523	-5.9197	 0.4964	-5.4233	-5.9993	 0.5091	-5.4900	54.1120	99.9699	
   547	-5.4803	 0.0313	-5.4491	-5.8754	 0.4872	-5.3882	-5.9214	 0.5155	-5.4058	54.3458	99.9715	
   548	-5.3705	 0.0144	-5.3562	-5.7693	 0.4433	-5.3260	-5.8468	 0.4666	-5.3801	54.4489	99.9716	
   549	-5.3888	-0.0390	-5.4279	-5.8100	 0.4060	-5.4040	-5.8834	 0.4117	-5.4716	54.4343	99.9704	
   550	-5.4128	-0.0679	-5.4808	-5.8316	 0.3684	-5.4632	-5.9026	 0.3676	-5.5349	54.5058	99.9703	
   551	-5.4445	-0.1015	-5.5461	-5.8657	 0.3353	-5.5304	-5.9219	 0.3236	-5.5982	54.5809	99.9701	
   552	-5.4686	-0.1304	-5.5990	-5.8806	 0.3018	-5.5788	-5.9449	 0.3091	-5.6357	54.5415	99.9710	
   553	-5.4012	-0.1170	-5.5183	-5.7897	 0.3213	-5.4684	-5.8287	 0.3076	-5.5210	54.7635	99.9698	
   554	-5.3367	-0.1477	-5.4845	-5.7353	 0.2698	-5.4655	-5.8250	 0.2780	-5.5469	54.6633	99.9707	
   555	-5.3684	-0.1813	-5.5498	-5.7819	 0.2411	-5.5408	-5.8545	 0.2489	-5.6055	54.6598	99.9712	
   556	-5.3925	-0.2101	-5.6027	-5.8094	 0.2120	-5.5973	-5.8852	 0.1976	-5.6875	54.7243	99.9698	
   557	-5.4396	-0.2532	-5.6929	-5.8501	 0.1748	-5.6753	-5.9147	 0.1685	-5.7461	54.7279	99.9702	
   558	-5.4781	-0.2769	-5.7551	-5.8776	 0.1457	-5.7318	-5.9211	 0.1538	-5.7672	54.7780	99.9716	
   559	-5.4193	-0.2830	-5.7024	-5.7890	 0.1274	-5.6617	-5.8395	 0.1306	-5.7088	54.9462	99.9711	
   560	-5.4222	-0.3269	-5.7492	-5.8114	 0.0771	-5.7343	-5.8652	 0.0719	-5.7932	54.9681	99.9711	
   561	-5.4395	-0.3657	-5.8053	-5.8447	 0.0566	-5.7881	-5.8831	 0.0499	-5.8331	54.9287	99.9710	
   562	-5.4626	-0.3799	-5.8426	-5.8471	 0.0187	-5.8284	-5.9119	 0.0319	-5.8799	54.9216	99.9719	
   563	-5.5001	-0.3889	-5.8891	-5.8913	 0.0279	-5.8634	-5.9227	 0.0357	-5.8869	54.9322	99.9719	
   564	-5.4549	-0.3752	-5.8301	-5.8314	 0.0648	-5.7666	-5.8313	 0.0825	-5.7487	54.9671	99.9722	
   565	-5.3586	-0.3722	-5.7309	-5.7045	 0.0458	-5.6586	-5.7337	 0.0480	-5.6856	55.1637	99.9708	
   566	-5.3384	-0.4020	-5.7404	-5.7311	 0.0294	-5.7017	-5.7682	 0.0263	-5.7418	55.0249	99.9707	
   567	-5.3682	-0.4063	-5.7746	-5.7335	-0.0085	-5.7420	-5.7926	-0.0103	-5.8028	55.1328	99.9709	
   568	-5.3922	-0.4351	-5.8275	-5.7793	-0.0246	-5.8039	-5.8265	-0.0209	-5.8473	55.0505	99.9715	
   569	-5.4144	-0.4347	-5.8492	-5.7985	-0.0243	-5.8228	-5.8648	-0.0130	-5.8777	54.9646	99.9713	
   570	-5.4048	-0.4006	-5.8055	-5.7394	 0.0000	-5.7393	-5.7632	 0.0189	-5.7442	55.2030	99.9724	
   571	-5.2797	-0.4080	-5.6878	-5.6308	-0.0060	-5.6369	-5.6707	-0.0082	-5.6787	55.2749	99.9710	
   572	-5.2960	-0.4322	-5.7283	-5.6583	-0.0351	-5.6934	-5.7001	-0.0373	-5.7373	55.2647	99.9714	
   573	-5.3046	-0.4515	-5.7563	-5.6783	-0.0474	-5.7257	-5.6957	-0.0558	-5.7514	55.3075	99.9716	
   574	-5.3114	-0.4416	-5.7531	-5.6959	-0.0218	-5.7177	-5.7326	-0.0258	-5.7584	55.1431	99.9709	
   575	-5.3172	-0.4171	-5.7344	-5.6884	-0.0050	-5.6935	-5.7530	 0.0040	-5.7489	55.0609	99.9710	
   576	-5.2402	-0.3697	-5.6100	-5.5893	 0.0439	-5.5454	-5.6067	 0.0427	-5.5639	55.2951	99.9713	
   577	-5.1151	-0.3771	-5.4923	-5.5058	 0.0467	-5.4592	-5.5467	 0.0271	-5.5195	55.2389	99.9700	
   578	-5.1382	-0.3913	-5.5296	-5.5207	 0.0132	-5.5075	-5.5755	 0.0091	-5.5663	55.2321	99.9711	
   579	-5.1613	-0.4055	-5.5669	-5.5458	 0.0221	-5.5238	-5.5965	 0.0278	-5.5686	55.1209	99.9709	
   580	-5.1507	-0.3568	-5.5076	-5.5368	 0.0641	-5.4727	-5.5779	 0.0608	-5.5170	55.1637	99.9710	
   581	-5.1412	-0.3228	-5.4640	-5.5411	 0.0979	-5.4432	-5.5823	 0.0793	-5.5029	55.1568	99.9704	
   582	-5.0652	-0.2900	-5.3553	-5.4235	 0.1338	-5.2897	-5.4360	 0.1180	-5.3179	55.3545	99.9705	
   583	-4.9833	-0.2819	-5.2653	-5.3659	 0.1329	-5.2331	-5.3926	 0.1027	-5.2899	55.3804	99.9702	
   584	-4.9910	-0.2866	-5.2778	-5.3793	 0.1247	-5.2546	-5.4252	 0.1142	-5.3109	55.2559	99.9710	
   585	-4.9987	-0.2914	-5.2902	-5.3992	 0.1123	-5.2869	-5.4641	 0.1110	-5.3530	55.1637	99.9716	
   586	-5.0363	-0.3004	-5.3368	-5.4443	 0.1089	-5.3354	-5.4936	 0.0818	-5.4116	55.2355	99.9704	
   587	-5.1355	-0.2348	-5.3704	-5.4960	 0.1013	-5.3947	-5.5484	 0.0899	-5.4584	55.4289	99.9732	
   588	-5.0488	-0.2659	-5.3148	-5.4169	 0.1379	-5.2789	-5.4252	 0.1142	-5.3109	55.4263	99.9712	
   589	-4.9843	-0.2965	-5.2809	-5.3867	 0.1079	-5.2788	-5.4214	 0.0846	-5.3367	55.3277	99.9711	
   590	-5.0218	-0.3056	-5.3275	-5.4192	 0.1000	-5.3192	-5.4661	 0.0778	-5.3882	55.2816	99.9707	
   591	-5.0526	-0.3245	-5.3772	-5.4717	 0.0798	-5.3919	-5.5230	 0.0527	-5.4702	55.2253	99.9707	
   592	-5.0920	-0.3629	-5.4550	-5.5184	 0.0511	-5.4673	-5.5748	 0.0201	-5.5546	55.1757	99.9700	
   593	-5.1440	-0.3667	-5.5108	-5.5634	 0.0477	-5.5158	-5.6073	 0.0316	-5.5756	55.1431	99.9711	
   594	-5.0978	-0.3383	-5.4362	-5.4733	 0.0546	-5.4188	-5.5237	 0.0416	-5.4820	55.3176	99.9711	
   595	-5.0631	-0.3732	-5.4365	-5.4690	 0.0208	-5.4483	-5.5314	 0.0048	-5.5265	55.2613	99.9712	
   596	-5.1074	-0.3723	-5.4799	-5.5141	 0.0173	-5.4968	-5.5653	-0.0058	-5.5710	55.2973	99.9712	
   597	-5.1151	-0.3771	-5.4923	-5.5458	 0.0221	-5.5238	-5.6036	 0.0020	-5.6015	55.1688	99.9713	
   598	-5.1594	-0.3762	-5.5357	-5.5842	 0.0227	-5.5615	-5.6476	 0.0063	-5.6412	55.1259	99.9712	
   599	-5.1806	-0.3611	-5.5418	-5.5959	 0.0398	-5.5562	-5.6521	 0.0248	-5.6271	55.1328	99.9713	
   600	-5.1190	-0.3232	-5.4423	-5.5109	 0.0679	-5.4431	-5.5569	 0.0420	-5.5147	55.3075	99.9709	
   601	-5.0911	-0.3482	-5.4394	-5.5184	 0.0511	-5.4673	-5.5850	 0.0350	-5.5499	55.1328	99.9713	
   602	-5.1277	-0.3426	-5.4703	-5.5568	 0.0518	-5.5050	-5.6073	 0.0316	-5.5756	55.1722	99.9717	
   603	-5.1498	-0.3421	-5.4920	-5.5760	 0.0521	-5.5239	-5.6297	 0.0282	-5.6014	55.1688	99.9713	
   604	-5.1719	-0.3417	-5.5137	-5.6010	 0.0609	-5.5401	-5.6731	 0.0435	-5.6294	55.0435	99.9709	
   605	-5.1845	-0.3072	-5.4918	-5.5987	 0.0989	-5.4998	-5.6430	 0.0838	-5.5591	55.1037	99.9714	
   606	-5.0642	-0.2754	-5.3397	-5.4811	 0.1348	-5.3463	-5.5088	 0.1042	-5.4045	55.2389	99.9709	
   607	-5.0488	-0.2659	-5.3148	-5.4568	 0.1133	-5.3435	-5.5203	 0.0969	-5.4233	55.2253	99.9718	
   608	-5.0575	-0.2853	-5.3429	-5.4944	 0.1266	-5.3678	-5.5586	 0.1048	-5.4537	55.0609	99.9707	
   609	-5.0796	-0.2849	-5.3645	-5.5144	 0.1143	-5.4001	-5.5708	 0.0865	-5.4842	55.1362	99.9711	
   610	-5.1239	-0.2840	-5.4079	-5.5344	 0.1020	-5.4324	-5.6257	 0.0946	-5.5310	55.0505	99.9713	
   611	-5.1306	-0.2741	-5.4048	-5.5395	 0.1232	-5.4163	-5.5803	 0.1125	-5.4677	55.1534	99.9721	
   612	-5.0344	-0.2711	-5.3056	-5.4368	 0.1256	-5.3112	-5.4865	 0.1076	-5.3788	55.2389	99.9713	
   613	-5.0209	-0.2909	-5.3119	-5.4384	 0.1004	-5.3381	-5.5152	 0.0895	-5.4257	55.1431	99.9715	
   614	-5.0430	-0.2905	-5.3336	-5.4760	 0.1136	-5.3624	-5.5369	 0.0972	-5.4397	55.1037	99.9714	
   615	-5.0652	-0.2900	-5.3553	-5.4886	 0.1181	-5.3705	-5.5383	 0.0750	-5.4631	55.2219	99.9697	
   616	-5.0796	-0.2849	-5.3645	-5.5144	 0.1143	-5.4001	-5.5810	 0.1014	-5.4795	55.0574	99.9717	
   617	-5.0642	-0.2754	-5.3397	-5.4936	 0.1392	-5.3544	-5.5305	 0.1118	-5.4186	55.1534	99.9709	
   618	-4.9824	-0.2672	-5.2497	-5.4043	 0.1335	-5.2708	-5.4431	 0.0923	-5.3507	55.3142	99.9705	
   619	-4.9843	-0.2965	-5.2809	-5.4310	 0.1171	-5.3139	-5.4827	 0.0780	-5.4046	55.1825	99.9702	
   620	-5.0141	-0.3008	-5.3151	-5.4392	 0.0877	-5.3515	-5.5057	 0.0635	-5.4421	55.2185	99.9713	
   621	-5.0295	-0.3103	-5.3399	-5.4717	 0.0798	-5.3919	-5.5447	 0.0603	-5.4843	55.1294	99.9716	
   622	-5.0594	-0.3146	-5.3741	-5.4909	 0.0802	-5.4108	-5.5671	 0.0569	-5.5100	55.1294	99.9709	
   623	-5.0286	-0.2957	-5.3243	-5.4435	 0.1215	-5.3220	-5.4770	 0.0816	-5.3952	55.2782	99.9699	
   624	-4.9391	-0.2828	-5.2219	-5.3793	 0.1247	-5.2546	-5.4316	 0.0995	-5.3320	55.1927	99.9712	
   625	-4.9468	-0.2875	-5.2344	-5.3985	 0.1250	-5.2735	-5.4431	 0.0923	-5.3507	55.1893	99.9710	
   626	-4.9612	-0.2823	-5.2436	-5.3985	 0.1250	-5.2735	-5.4431	 0.0923	-5.3507	55.2321	99.9709	
   627	-4.9824	-0.2672	-5.2497	-5.4169	 0.1379	-5.2789	-5.4539	 0.0961	-5.3578	55.2715	99.9706	
   628	-5.0036	-0.2521	-5.2558	-5.4235	 0.1338	-5.2897	-5.4966	 0.1225	-5.3741	55.1465	99.9719	
   629	-4.9651	-0.2285	-5.1937	-5.3644	 0.1581	-5.2062	-5.4015	 0.1397	-5.2617	55.3310	99.9721	
   630	-4.8843	-0.2350	-5.1193	-5.2942	 0.1527	-5.1415	-5.3479	 0.1095	-5.2383	55.3996	99.9704	
   631	-4.9073	-0.2492	-5.1566	-5.3267	 0.1449	-5.1819	-5.3811	 0.1099	-5.2711	55.3176	99.9707	
   632	-4.9295	-0.2487	-5.1783	-5.3459	 0.1452	-5.2008	-5.3926	 0.1027	-5.2899	55.3569	99.9704	
   633	-4.9372	-0.2535	-5.1907	-5.3718	 0.1414	-5.2304	-5.4309	 0.1106	-5.3203	55.2287	99.9711	
   634	-4.9738	-0.2478	-5.2217	-5.4035	 0.1462	-5.2574	-5.4533	 0.1072	-5.3460	55.2681	99.9708	
   635	-4.9497	-0.2190	-5.1688	-5.3385	 0.1619	-5.1766	-5.3689	 0.1282	-5.2406	55.4522	99.9714	
   636	-4.8910	-0.2250	-5.1161	-5.2891	 0.1316	-5.1576	-5.3588	 0.1133	-5.2453	55.3963	99.9724	
   637	-4.8929	-0.2543	-5.1474	-5.3209	 0.1363	-5.1846	-5.3818	 0.0988	-5.2828	55.3108	99.9707	
   638	-4.9218	-0.2440	-5.1659	-5.3467	 0.1325	-5.2142	-5.4092	 0.1029	-5.3062	55.3075	99.9716	
   639	-4.9372	-0.2535	-5.1907	-5.3785	 0.1373	-5.2412	-5.4207	 0.0957	-5.3250	55.3075	99.9712	
   640	-4.9738	-0.2478	-5.2217	-5.4169	 0.1379	-5.2789	-5.4648	 0.0999	-5.3648	55.2613	99.9715	
   641	-4.9507	-0.2336	-5.1844	-5.3585	 0.1496	-5.2089	-5.3920	 0.1137	-5.2781	55.4029	99.9715	
   642	-4.8920	-0.2397	-5.1318	-5.3209	 0.1363	-5.1846	-5.3709	 0.0950	-5.2758	55.3896	99.9714	
   643	-4.9362	-0.2388	-5.1751	-5.3593	 0.1370	-5.2223	-5.4092	 0.1029	-5.3062	55.3502	99.9717	
   644	-4.9507	-0.2336	-5.1844	-5.3659	 0.1329	-5.2331	-5.4099	 0.0918	-5.3180	55.4289	99.9717	
   645	-4.9661	-0.2431	-5.2093	-5.3918	 0.1291	-5.2627	-5.4539	 0.0961	-5.3578	55.3007	99.9716	
   646	-4.9949	-0.2327	-5.2278	-5.4169	 0.1379	-5.2789	-5.4865	 0.1076	-5.3788	55.2579	99.9715	
   647	-4.9632	-0.1991	-5.1625	-5.3569	 0.1749	-5.1820	-5.4066	 0.1472	-5.2593	55.3636	99.9716	
   648	-4.9036	-0.1906	-5.0942	-5.3060	 0.1698	-5.1362	-5.3632	 0.1318	-5.2313	55.4356	99.9716	
   649	-4.9334	-0.1948	-5.1283	-5.3444	 0.1705	-5.1739	-5.4123	 0.1435	-5.2687	55.3108	99.9718	
   650	-4.9411	-0.1996	-5.1408	-5.3694	 0.1793	-5.1901	-5.4245	 0.1252	-5.2992	55.3435	99.9704	
   651	-4.9632	-0.1991	-5.1625	-5.3894	 0.1670	-5.2224	-5.4468	 0.1218	-5.3249	55.3401	99.9713	
   652	-4.9777	-0.1940	-5.1717	-5.4270	 0.1803	-5.2467	-5.4685	 0.1295	-5.3389	55.2973	99.9716	
   653	-4.9613	-0.1698	-5.1313	-5.3737	 0.2131	-5.1606	-5.4045	 0.1803	-5.2241	55.3277	99.9719	
   654	-4.8863	-0.1518	-5.0381	-5.3153	 0.2248	-5.0906	-5.3605	 0.1761	-5.1843	55.3569	99.9712	
   655	-4.9084	-0.1513	-5.0598	-5.3353	 0.2125	-5.1229	-5.3937	 0.1765	-5.2171	55.3108	99.9720	
   656	-4.9084	-0.1513	-5.0598	-5.3479	 0.2169	-5.1310	-5.4154	 0.1842	-5.2311	55.2253	99.9720	
   657	-4.9373	-0.1410	-5.0784	-5.3604	 0.2213	-5.1391	-5.4377	 0.1808	-5.2569	55.2613	99.9712	
   658	-4.9662	-0.1306	-5.0969	-5.3980	 0.2346	-5.1634	-5.4811	 0.1961	-5.2849	55.1757	99.9712	
   659	-4.9498	-0.1065	-5.0564	-5.3706	 0.2637	-5.1069	-5.3968	 0.2172	-5.1795	55.3636	99.9719	
   660	-4.8690	-0.1130	-4.9821	-5.3012	 0.2456	-5.0556	-5.3534	 0.2018	-5.1515	55.3536	99.9721	
   661	-4.9056	-0.1074	-5.0130	-5.3330	 0.2504	-5.0826	-5.3866	 0.2023	-5.1842	55.3502	99.9717	
   662	-4.9133	-0.1121	-5.0255	-5.3463	 0.2422	-5.1041	-5.4147	 0.1952	-5.2194	55.3007	99.9716	
   663	-4.9354	-0.1117	-5.0472	-5.3655	 0.2425	-5.1230	-5.4371	 0.1918	-5.2451	55.2973	99.9712	
   664	-4.9575	-0.1112	-5.0688	-5.3913	 0.2387	-5.1526	-5.4804	 0.2072	-5.2732	55.1722	99.9721	
   665	-4.9633	-0.0866	-5.0501	-5.3764	 0.2722	-5.1042	-5.4503	 0.2474	-5.2028	55.1927	99.9722	
   666	-4.8960	-0.0733	-4.9694	-5.3130	 0.2627	-5.0503	-5.3961	 0.2282	-5.1678	55.3041	99.9724	
   667	-4.9114	-0.0828	-4.9943	-5.3455	 0.2548	-5.0907	-5.4300	 0.2176	-5.2123	55.2545	99.9724	
   668	-4.9267	-0.0923	-5.0191	-5.3588	 0.2466	-5.1122	-5.4689	 0.2144	-5.2544	55.1654	99.9719	
   669	-4.9566	-0.0966	-5.0532	-5.3913	 0.2387	-5.1526	-5.4920	 0.1999	-5.2919	55.2014	99.9720	
   670	-5.0076	-0.0858	-5.0935	-5.4489	 0.2397	-5.2092	-5.5258	 0.1893	-5.3364	55.2770	99.9725	
   671	-5.0220	-0.0806	-5.1027	-5.4607	 0.2568	-5.2039	-5.5353	 0.2153	-5.3200	55.2048	99.9725	
   672	-4.9547	-0.0673	-5.0220	-5.3839	 0.2555	-5.1284	-5.4689	 0.2144	-5.2544	55.2872	99.9727	
   673	-4.9845	-0.0716	-5.0562	-5.4231	 0.2435	-5.1796	-5.5143	 0.1965	-5.3177	55.2736	99.9726	
   674	-5.0153	-0.0905	-5.1059	-5.4564	 0.2229	-5.2334	-5.5424	 0.1895	-5.3528	55.2341	99.9736	
   675	-5.0904	-0.1086	-5.1990	-5.5289	 0.1904	-5.3384	-5.6057	 0.1497	-5.4559	55.3029	99.9739	
   676	-5.1635	-0.0973	-5.2609	-5.5915	 0.2126	-5.3790	-5.6413	 0.2019	-5.4394	55.2048	99.9757	
   677	-5.1597	-0.0387	-5.1985	-5.5183	 0.2577	-5.2605	-5.5462	 0.2191	-5.3270	55.5503	99.9740	
   678	-5.2827	-0.2270	-5.5098	-5.7362	 0.0506	-5.6856	-5.8411	 0.0125	-5.8285	55.2120	99.9743	
   679	-5.5886	-0.3872	-5.9759	-5.9952	-0.0968	-6.0921	-6.0801	-0.0952	-6.1752	55.1326	99.9753	
   680	-5.6502	-0.4251	-6.0754	-5.9725	-0.1436	-6.1161	-6.0215	-0.1328	-6.1542	55.4511	99.9755	
   681	-5.6309	-0.4695	-6.1005	-5.9107	-0.1784	-6.0890	-5.9067	-0.1565	-6.0630	55.6916	99.9763	
   682	-5.5972	-0.5191	-6.1163	-5.8397	-0.1712	-6.0109	-5.7898	-0.1469	-5.9366	55.7794	99.9748	
   683	-5.5972	-0.5191	-6.1163	-5.7539	-0.1304	-5.8844	-5.7207	-0.1035	-5.8241	55.8178	99.9712	
   684	-5.6693	-0.6057	-6.2750	-5.9221	-0.2583	-6.1804	-5.9198	-0.2818	-6.2015	55.8099	99.9708	
   685	-5.9395	-0.7861	-6.7258	-6.2266	-0.5188	-6.7454	-6.2787	-0.5392	-6.8178	55.7952	99.9731	
   686	-6.2128	-0.8981	-7.1109	-6.4574	-0.6246	-7.0820	-6.3765	-0.6007	-6.9772	56.0023	99.9778	
   687	-6.2234	-0.8343	-7.0578	-6.4268	-0.5450	-6.9718	-6.1961	-0.4554	-6.6514	56.1782	99.9831	
   688	-6.1080	-0.7632	-6.8713	-6.3226	-0.5172	-6.8398	-6.1669	-0.5222	-6.6890	56.4411	99.9787	
   689	-6.1484	-0.8162	-6.9647	-6.4287	-0.4732	-6.9020	-6.3116	-0.4429	-6.7543	55.7180	99.9772	
   690	-6.2503	-0.9071	-7.1575	-6.5945	-0.5632	-7.1577	-6.4765	-0.5146	-6.9910	55.4840	99.9791	
   691	-6.1620	-0.6839	-6.8459	-6.3526	-0.2806	-6.6332	-6.1224	-0.1537	-6.2760	55.6126	99.9811	
   692	-5.7454	-0.5259	-6.2714	-6.0477	-0.1170	-6.1648	-5.9230	-0.0603	-5.9832	55.4037	99.9771	
   693	-5.4626	-0.3799	-5.8426	-5.6841	-0.0389	-5.7230	-5.5828	-0.1127	-5.6954	56.3111	99.9707	
   694	-5.5058	-0.4769	-5.9828	-5.7907	-0.1045	-5.8953	-5.6594	-0.0969	-5.7562	55.8865	99.9759	
   695	-5.5270	-0.4618	-5.9888	-5.7915	-0.1172	-5.9087	-5.6696	-0.0820	-5.7515	55.8897	99.9778	
   696	-5.3808	-0.3718	-5.7526	-5.6058	-0.0149	-5.6206	-5.4447	-0.0258	-5.4704	56.2425	99.9753	
   697	-5.2402	-0.3697	-5.6100	-5.4632	 0.0122	-5.4509	-5.3438	-0.0050	-5.3487	56.1676	99.9730	
   698	-5.1584	-0.3615	-5.5201	-5.3613	 0.0021	-5.3592	-5.2851	-0.0427	-5.3277	56.3114	99.9706	
   699	-5.1382	-0.3913	-5.5296	-5.3354	 0.0059	-5.3296	-5.2550	-0.0024	-5.2574	56.1379	99.9714	
   700	-4.9997	-0.3060	-5.3058	-5.1881	 0.1088	-5.0793	-5.1047	 0.1027	-5.0019	56.1266	99.9708	
   701	-4.8429	-0.1673	-5.0103	-4.9917	 0.2783	-4.7134	-4.8955	 0.2661	-4.6293	56.1754	99.9689	
   702	-4.5361	 0.0075	-4.5287	-4.6676	 0.4415	-4.2261	-4.5528	 0.4388	-4.1139	56.3420	99.9705	
   703	-4.4052	-0.0244	-4.4297	-4.6172	 0.3268	-4.2903	-4.5635	 0.2618	-4.3016	56.5741	99.9701	
   704	-4.4966	-0.0666	-4.5633	-4.7171	 0.2653	-4.4518	-4.6492	 0.2186	-4.4305	56.5654	99.9725	
   705	-4.5707	-0.0700	-4.6408	-4.8029	 0.2246	-4.5784	-4.6996	 0.2082	-4.4914	56.6042	99.9767	
   706	-4.6870	-0.1558	-4.8429	-4.9076	 0.0872	-4.8204	-4.7889	 0.0137	-4.7751	57.0392	99.9756	
   707	-5.0910	-0.4607	-5.5518	-5.3246	-0.2305	-5.5551	-5.2613	-0.1980	-5.4592	56.5160	99.9800	
   708	-5.3383	-0.5145	-5.8528	-5.5024	-0.2064	-5.7088	-5.3728	-0.1190	-5.4918	56.2996	99.9803	
   709	-5.3508	-0.4800	-5.8309	-5.4734	-0.1520	-5.6255	-5.3248	-0.0569	-5.3816	56.3297	99.9797	
   710	-5.3354	-0.4705	-5.8060	-5.4652	-0.1227	-5.5879	-5.3329	-0.0088	-5.3417	56.1389	99.9797	
   711	-5.3345	-0.4558	-5.7904	-5.4636	-0.0974	-5.5610	-5.3201	 0.0205	-5.2994	56.1093	99.9798	
   712	-5.3489	-0.4507	-5.7997	-5.4761	-0.0930	-5.5691	-5.3207	 0.0095	-5.3112	56.1868	99.9793	
   713	-5.3711	-0.4502	-5.8214	-5.5028	-0.1094	-5.6122	-5.3726	-0.0231	-5.3955	56.2042	99.9786	
   714	-5.3412	-0.4459	-5.7873	-5.4585	-0.1186	-5.5771	-5.3062	-0.0239	-5.3300	56.3357	99.9798	
   715	-5.2065	-0.4193	-5.6259	-5.3234	-0.1082	-5.4316	-5.1798	-0.0403	-5.2200	56.5295	99.9789	
   716	-5.1410	-0.4353	-5.5764	-5.2732	-0.1259	-5.3991	-5.1588	-0.0591	-5.2177	56.4790	99.9785	
   717	-5.1343	-0.4452	-5.5796	-5.2732	-0.1259	-5.3991	-5.1594	-0.0701	-5.2295	56.4760	99.9776	
   718	-5.1266	-0.4404	-5.5671	-5.2548	-0.1389	-5.3937	-5.1594	-0.0701	-5.2295	56.4730	99.9783	
   719	-5.1266	-0.4404	-5.5671	-5.2607	-0.1303	-5.3910	-5.1594	-0.0701	-5.2295	56.4730	99.9778	
   720	-5.1257	-0.4258	-5.5515	-5.2407	-0.1180	-5.3587	-5.1358	-0.0446	-5.1802	56.4849	99.9783	
   721	-4.9842	-0.4090	-5.3933	-5.0981	-0.0909	-5.1890	-4.9576	-0.0284	-4.9859	56.6661	99.9783	
   722	-4.8956	-0.4108	-5.3065	-5.0146	-0.0881	-5.1028	-4.8861	-0.0367	-4.9227	56.7048	99.9775	
   723	-4.8658	-0.4065	-5.2724	-4.9954	-0.0884	-5.0839	-4.8529	-0.0372	-4.8900	56.7463	99.9782	
   724	-4.8649	-0.3919	-5.2568	-4.9755	-0.0761	-5.0516	-4.8733	-0.0074	-4.8805	56.6274	99.9778	
   725	-4.8504	-0.3970	-5.2476	-4.9872	-0.0591	-5.0463	-4.8733	-0.0074	-4.8805	56.5858	99.9769	
   726	-4.8716	-0.3819	-5.2536	-4.9931	-0.0505	-5.0436	-4.8662	 0.0184	-4.8477	56.5974	99.9781	
   727	-4.8177	-0.3488	-5.1666	-4.8955	-0.0269	-4.9224	-4.7696	 0.0577	-4.7118	56.6977	99.9785	
   728	-4.7215	-0.3458	-5.0674	-4.7929	-0.0244	-4.8173	-4.6751	 0.0639	-4.6111	56.7448	99.9784	
   729	-4.6917	-0.3415	-5.0333	-4.7670	-0.0206	-4.7876	-4.6521	 0.0784	-4.5736	56.7091	99.9790	
   730	-4.6609	-0.3226	-4.9836	-4.7513	 0.0255	-4.7258	-4.6213	 0.1297	-4.4916	56.6052	99.9790	
   731	-4.6455	-0.3131	-4.9587	-4.6937	 0.0245	-4.6692	-4.5607	 0.1252	-4.4354	56.7732	99.9785	
   732	-4.5877	-0.3338	-4.9216	-4.6287	 0.0403	-4.5884	-4.4750	 0.1684	-4.3065	56.6865	99.9790	
   733	-4.4847	-0.3408	-4.8256	-4.4834	 0.0083	-4.4750	-4.3137	 0.0888	-4.2248	57.1568	99.9772	
   734	-4.9774	-0.4190	-5.3965	-5.1224	-0.0694	-5.1918	-4.9949	 0.0865	-4.9083	56.1399	99.9820	
   735	-5.3358	-0.1330	-5.4689	-5.3059	 0.3764	-4.9294	-4.9625	 0.7136	-4.2489	55.5587	99.9865	
   736	-4.5186	 0.8484	-3.6703	-4.2467	 1.5392	-2.7075	-3.7111	 1.9045	-1.8065	55.7632	99.9836	
   737	-3.7185	 1.5661	-2.1525	-3.5389	 1.9995	-1.5394	-3.1795	 2.2704	-0.9090	56.1710	99.9857	
   738	-3.5723	 1.6561	-1.9163	-3.4386	 1.9641	-1.4746	-3.2424	 2.1457	-1.0966	56.3601	99.9832	
   739	-3.5964	 1.6273	-1.9692	-3.4599	 1.8295	-1.6304	-3.3673	 2.0034	-1.3638	56.4809	99.9838	
   740	-3.6733	 1.5799	-2.0935	-3.5006	 1.7923	-1.7084	-3.4120	 1.9966	-1.4153	56.4175	99.9841	
   741	-3.7358	 1.5273	-2.2086	-3.5731	 1.7597	-1.8134	-3.4455	 1.9010	-1.5443	56.6333	99.9817	
   742	-3.9974	 1.2538	-2.7437	-3.9733	 1.4039	-2.5694	-3.9242	 1.4938	-2.4303	56.5644	99.9822	
   743	-4.6370	 0.8459	-3.7912	-4.5058	 1.1852	-3.3207	-4.2604	 1.3357	-2.9246	56.4237	99.9811	
   744	-4.5746	 1.0110	-3.5637	-4.3314	 1.4141	-2.9172	-3.9686	 1.5830	-2.3856	56.6489	99.9809	
   745	-4.1774	 1.3258	-2.8517	-3.8603	 1.7772	-2.0830	-3.4384	 1.9268	-1.5115	56.8974	99.9789	
   746	-3.7974	 1.4894	-2.3081	-3.4461	 1.9473	-1.4988	-3.0154	 2.0542	-0.9611	57.2351	99.9764	
   747	-3.6915	 1.4139	-2.2776	-3.3615	 1.8658	-1.4957	-2.9608	 1.9502	-1.0105	57.3273	99.9751	
   748	-3.7904	 1.2545	-2.5360	-3.4267	 1.6434	-1.7833	-3.0636	 1.7153	-1.3482	57.6256	99.9750	
   749	-4.1547	 0.7629	-3.3919	-3.9147	 1.1119	-2.8028	-3.6979	 1.1144	-2.5835	57.4682	99.9704	
   750	-4.8518	 0.0383	-4.8136	-4.7379	 0.2403	-4.4975	-4.7556	 0.2901	-4.4654	57.0062	99.9736	
   751	-5.4260	-0.3855	-5.8116	-5.3034	-0.0959	-5.3993	-5.1921	 0.1222	-5.0698	56.4631	99.9819	
   752	-5.5635	-0.4562	-6.0198	-5.4503	-0.0892	-5.5395	-5.2660	 0.1823	-5.0836	56.1569	99.9836	
   753	-5.3629	 0.0192	-5.3438	-5.1785	 0.4670	-4.7115	-4.9101	 0.7572	-4.1528	55.9828	99.9829	
   754	-4.7871	 0.8098	-3.9774	-4.4724	 1.4123	-3.0601	-4.0053	 1.7089	-2.2963	56.0551	99.9813	
   755	-3.7495	 1.7722	-1.9775	-3.3123	 2.3457	-0.9666	-2.8142	 2.5426	-0.2715	56.7656	99.9773	
   756	-2.9588	 2.2308	-0.7282	-2.5227	 2.7835	 0.2609	-2.0472	 2.8649	 0.8178	57.2826	99.9721	
   757	-2.8193	 2.2182	-0.6012	-2.4874	 2.7323	 0.2449	-2.1616	 2.8036	 0.6421	56.9148	99.9710	
   758	-3.2128	 2.0745	-1.1384	-3.0227	 2.5727	-0.4500	-2.7245	 2.6521	-0.0723	56.3799	99.9737	
   759	-3.7276	 1.9967	-1.7310	-3.5606	 2.4722	-1.0885	-3.2617	 2.5594	-0.7022	56.0995	99.9751	
   760	-4.0327	 1.9637	-2.0691	-3.8493	 2.4644	-1.3850	-3.4897	 2.5439	-0.9457	56.0656	99.9748	
   761	-4.1665	 1.9517	-2.2149	-3.9778	 2.4581	-1.5197	-3.6353	 2.5162	-1.1190	56.0082	99.9728	
   762	-4.3031	 1.8957	-2.4075	-4.1127	 2.3508	-1.7619	-3.8124	 2.4262	-1.3861	55.9697	99.9744	
   763	-4.3868	 1.8583	-2.5286	-4.2329	 2.3739	-1.8591	-3.8845	 2.4235	-1.4610	55.8616	99.9726	
   764	-4.4609	 1.8548	-2.6061	-4.2870	 2.3284	-1.9586	-3.9868	 2.3805	-1.6062	55.8716	99.9726	
   765	-4.5802	 1.8377	-2.7427	-4.4238	 2.2928	-2.1310	-4.1287	 2.3233	-1.8053	55.8787	99.9722	
   766	-4.6341	 1.8045	-2.8297	-4.4629	 2.2808	-2.1822	-4.1440	 2.3456	-1.7983	55.7883	99.9736	
   767	-4.5389	 1.9053	-2.6337	-4.3097	 2.3752	-1.9345	-3.9790	 2.4173	-1.5616	56.0438	99.9719	
   768	-4.3591	 2.0582	-2.3009	-4.0867	 2.5612	-1.5255	-3.6523	 2.6013	-1.0508	56.3122	99.9728	
   769	-3.9367	 2.1916	-1.7451	-3.6130	 2.6586	-0.9544	-3.2516	 2.7254	-0.5262	56.4559	99.9730	
   770	-3.6624	 2.2057	-1.4568	-3.3728	 2.7093	-0.6635	-2.9885	 2.7737	-0.2147	56.4837	99.9729	
   771	-3.5903	 2.2923	-1.2981	-3.1495	 2.7983	-0.3511	-2.7054	 2.8771	 0.1718	56.9305	99.9725	
   772	-3.2016	 2.4753	-0.7264	-2.7353	 2.9684	 0.2331	-2.2658	 3.0043	 0.7386	57.3347	99.9711	
   773	-2.9774	 2.5148	-0.4627	-2.6225	 2.9286	 0.3061	-2.2532	 2.9377	 0.6846	57.2672	99.9723	
   774	-3.2199	 2.4219	-0.7981	-2.9010	 2.8785	-0.0226	-2.5329	 2.8896	 0.3568	56.9507	99.9712	
   775	-3.3709	 2.3711	-0.9999	-3.0637	 2.8390	-0.2246	-2.7233	 2.8551	 0.1319	56.7446	99.9703	
   776	-3.5066	 2.3298	-1.1769	-3.2137	 2.7952	-0.4185	-2.8530	 2.8162	-0.0367	56.6973	99.9715	
   777	-3.5191	 2.3643	-1.1550	-3.1773	 2.8663	-0.3110	-2.7742	 2.9296	 0.1556	56.6368	99.9726	
   778	-3.3123	 2.4775	-0.8349	-2.9480	 2.9467	-0.0013	-2.5347	 2.9524	 0.4178	57.0494	99.9707	
   779	-3.4296	 2.3771	-1.0526	-3.0871	 2.8732	-0.2140	-2.7091	 2.9066	 0.1976	56.7377	99.9705	
   780	-3.3835	 2.4056	-0.9780	-3.0088	 2.8971	-0.1116	-2.5916	 2.9273	 0.3358	56.9458	99.9711	
   781	-3.2238	 2.4757	-0.7481	-2.8203	 2.9403	 0.1200	-2.4056	 2.9802	 0.5747	57.1114	99.9722	
   782	-3.1170	 2.5274	-0.5897	-2.6561	 3.0050	 0.3489	-2.2126	 3.0590	 0.8464	57.2626	99.9722	
   783	-2.9314	 2.6558	-0.2757	-2.4237	 3.1360	 0.7123	-1.9468	 3.1515	 1.2048	57.5868	99.9702	
   784	-2.7842	 2.7604	-0.0239	-2.1921	 3.2544	 1.0623	-1.6572	 3.2696	 1.6125	57.8954	99.9698	
   785	-2.4196	 2.9145	 0.4949	-1.9104	 3.3551	 1.4447	-1.4788	 3.3817	 1.9030	57.6892	99.9715	
   786	-2.2455	 3.0920	 0.8464	-1.7823	 3.4583	 1.6761	-1.4633	 3.4553	 1.9922	57.6083	99.9706	
   787	-2.3552	 2.9964	 0.6411	-1.9821	 3.3352	 1.3531	-1.7659	 3.2119	 1.4461	57.6181	99.9630	
   788	-3.1929	 2.3822	-0.8108	-3.2491	 2.6398	-0.6093	-3.1462	 2.5468	-0.5992	56.3716	99.9730	
   789	-3.6018	 2.2290	-1.3729	-3.5387	 2.4127	-1.1260	-3.3523	 2.3428	-1.0094	56.9107	99.9766	
   790	-3.8968	 1.7800	-2.1169	-4.0036	 1.9441	-2.0595	-3.8273	 1.9060	-1.9212	56.5758	99.9810	
   791	-4.4632	 1.2484	-3.2149	-4.5535	 1.4474	-3.1061	-4.3703	 1.5328	-2.8375	56.1608	99.9848	
   792	-4.6470	 1.2619	-3.3853	-4.3711	 1.8027	-2.5684	-3.8184	 1.8689	-1.9494	56.8499	99.9750	
   793	-3.8795	 1.8188	-2.0609	-3.6081	 2.2242	-1.3840	-3.2118	 2.3779	-0.8338	56.6592	99.9811	
   794	-3.4265	 2.0836	-1.3429	-2.9600	 2.5506	-0.4094	-2.5245	 2.4798	-0.0446	57.8410	99.9644	
   795	-3.1696	 2.1714	-0.9983	-2.7617	 2.6484	-0.1133	-2.2814	 2.6538	 0.3725	57.6229	99.9713	
   796	-2.9319	 2.1911	-0.7408	-2.6654	 2.5498	-0.1156	-2.4067	 2.5964	 0.1898	57.1150	99.9749	
   797	-2.9444	 2.2256	-0.7189	-2.5870	 2.5738	-0.0132	-2.3427	 2.6472	 0.3046	57.2164	99.9745	
   798	-2.9243	 2.3084	-0.6160	-2.5360	 2.7753	 0.2393	-2.1399	 2.7960	 0.6561	57.4009	99.9708	
   799	-2.7164	 2.3238	-0.3927	-2.4839	 2.6859	 0.2020	-2.1774	 2.6340	 0.4567	57.4888	99.9715	
   800	-2.9387	 2.3135	-0.6253	-2.7734	 2.6655	-0.1080	-2.5135	 2.7528	 0.2393	56.6565	99.9791	
   801	-3.3082	 2.1986	-1.1097	-3.1595	 2.3304	-0.8291	-2.9596	 2.1532	-0.8063	57.9030	99.9716	
   802	-4.1859	 1.1939	-2.9921	-4.2108	 1.2940	-2.9168	-4.0774	 1.2485	-2.8289	57.2004	99.9801	
   803	-5.1216	 0.3225	-4.7992	-5.1166	 0.4323	-4.6844	-4.9945	 0.4593	-4.5351	57.0613	99.9816	
   804	-5.6735	-0.2143	-5.8879	-5.6591	-0.0477	-5.7068	-5.5447	 0.0603	-5.4843	56.6673	99.9827	
   805	-5.8321	-0.3823	-6.2146	-5.8147	-0.1800	-5.9947	-5.6919	-0.0854	-5.7773	56.6528	99.9809	
   806	-6.0245	-0.5007	-6.5254	-6.0004	-0.2823	-6.2827	-5.8152	-0.1097	-5.9248	56.4819	99.9850	
   807	-5.5909	-0.0790	-5.6700	-5.2354	 0.2740	-4.9614	-4.6304	 0.5284	-4.1019	57.6358	99.9879	
   808	-4.4220	 0.5139	-3.9082	-4.1006	 0.8030	-3.2975	-3.5159	 0.9201	-2.5957	58.4356	99.9851	
   809	-3.9988	 0.7745	-3.2244	-3.6475	 1.0821	-2.5654	-3.0459	 1.1835	-1.8623	58.5988	99.9842	
   810	-3.7237	 0.9157	-2.8081	-3.3709	 1.2039	-2.1669	-2.8150	 1.3392	-1.4757	58.5037	99.9854	
   811	-3.4379	 0.9931	-2.4449	-3.1166	 1.2755	-1.8410	-2.5890	 1.3216	-1.2674	58.7870	99.9819	
   812	-3.4436	 0.9052	-2.5385	-3.0853	 1.1612	-1.9241	-2.5439	 1.2435	-1.3004	58.9444	99.9840	
   813	-3.3598	 0.8302	-2.5297	-2.9839	 1.0414	-1.9425	-2.4856	 1.1098	-1.3756	59.1877	99.9837	
   814	-3.3136	 0.8586	-2.4551	-2.9137	 1.2426	-1.6711	-2.2148	 1.3758	-0.8389	58.9565	99.9846	
   815	-3.1674	 0.9486	-2.2189	-2.7926	 1.2321	-1.5605	-2.2208	 1.2762	-0.9445	59.2289	99.9820	
   816	-3.2376	 0.8913	-2.3464	-2.8902	 1.2085	-1.6817	-2.2889	 1.3398	-0.9490	58.8410	99.9854	
   817	-3.0742	 1.1326	-1.9417	-2.5982	 1.4734	-1.1248	-1.9608	 1.5460	-0.4147	59.2583	99.9815	
   818	-2.9136	 1.2174	-1.6962	-2.4223	 1.5210	-0.9012	-1.8555	 1.5484	-0.3070	59.4262	99.9790	
   819	-3.1414	 0.8943	-2.2472	-2.7190	 1.1803	-1.5387	-2.1872	 1.1909	-0.9962	59.4080	99.9788	
   820	-3.4614	 0.4018	-3.0597	-3.0511	 0.6841	-2.3670	-2.5473	 0.7304	-1.8167	59.4029	99.9798	
   821	-3.4795	 0.2359	-3.2438	-3.1695	 0.4289	-2.7407	-2.8431	 0.4168	-2.4262	59.3431	99.9774	
   822	-3.7074	 0.0252	-3.6823	-3.5833	 0.3684	-3.2149	-3.0580	 0.5266	-2.5312	58.3345	99.9865	
   823	-3.7304	-0.1015	-3.8320	-3.7566	 0.0551	-3.7015	-3.5891	 0.0758	-3.5133	58.2354	99.9818	
   824	-4.5548	-0.5105	-5.0655	-4.1727	-0.0433	-4.2160	-3.4877	 0.2885	-3.1990	58.2745	99.9887	
   825	-3.1944	 0.9883	-2.2062	-2.3490	 1.5662	-0.7828	-1.3977	 1.7935	 0.3959	59.6360	99.9819	
   826	-1.7925	 1.4151	-0.3775	-1.3065	 1.5401	 0.2336	-0.8189	 1.4759	 0.6572	60.6323	99.9796	
   827	-2.3877	 0.7814	-1.6063	-1.8780	 1.0058	-0.8721	-1.2945	 1.0281	-0.2663	60.4493	99.9815	
   828	-2.8386	 0.3209	-2.5178	-2.4530	 0.5180	-1.9350	-1.9624	 0.5125	-1.4498	60.2157	99.9805	
   829	-3.3251	-0.2319	-3.5570	-3.0498	 0.0895	-2.9603	-2.5482	 0.1657	-2.3824	59.4385	99.9816	
   830	-3.4540	-0.2831	-3.7372	-3.0279	 0.0301	-2.9978	-2.4506	 0.1312	-2.3193	59.8891	99.9823	
   831	-3.2492	-0.0867	-3.3359	-2.7191	 0.2568	-2.4623	-2.0521	 0.4029	-1.6491	60.0680	99.9838	
   832	-2.7491	 0.3338	-2.4154	-2.1731	 0.6903	-1.4828	-1.4481	 0.8676	-0.5804	60.1346	99.9855	
   833	-2.0327	 1.0140	-1.0189	-1.2627	 1.4213	 0.1586	-0.4541	 1.5561	 1.1021	60.6351	99.9819	
   834	-1.3210	 1.5084	 0.1873	-0.4699	 1.9097	 1.4398	 0.2878	 2.0117	 2.2995	60.8561	99.9789	
   835	-0.9275	 1.6522	 0.7246	-0.1545	 1.9339	 1.7794	 0.4911	 1.8946	 2.3858	61.3781	99.9749	
   836	-0.9976	 1.4824	 0.4847	-0.2925	 1.7760	 1.4835	 0.3485	 1.8263	 2.1750	60.9822	99.9798	
   837	-1.1063	 1.4014	 0.2951	-0.3716	 1.7394	 1.3677	 0.2405	 1.7797	 2.0203	60.8735	99.9765	
   838	-1.2870	 1.2338	-0.0533	-0.5946	 1.5534	 0.9587	 0.0018	 1.5872	 1.5891	60.8482	99.9770	
   839	-1.4543	 1.0464	-0.4080	-0.7659	 1.3750	 0.6090	-0.2663	 1.3655	 1.0993	60.7783	99.9716	
   840	-2.7154	 0.2842	-2.4313	-2.1990	 0.6866	-1.5124	-1.5657	 0.8470	-0.7186	59.7469	99.9826	
   841	-2.5521	 0.6380	-1.9142	-1.8109	 1.1565	-0.6544	-0.9181	 1.3923	 0.4744	60.0728	99.9843	
   842	-1.5390	 0.9943	-0.5447	-0.8055	 1.4600	 0.6545	 0.0083	 1.6019	 1.6102	60.6584	99.9812	
   843	-1.1503	 1.1773	 0.0269	-0.6524	 2.0646	 1.4122	 0.2755	 2.6320	 2.9075	57.8406	99.9896	
   844	-0.8441	 2.0271	 1.1829	 0.3839	 2.1441	 2.5280	 0.6738	 1.7114	 2.3853	63.1599	99.9283	
   845	-0.6664	 1.3486	 0.6822	-0.0364	 1.5693	 1.5329	 0.4551	 1.5740	 2.0291	61.1546	99.9779	
   846	 0.3409	 1.8421	 2.1828	 1.0095	 2.0070	 3.0165	 1.2862	 1.7663	 3.0526	61.9319	99.9592	
   847	-0.5592	 1.0628	 0.5035	-0.3746	 1.3852	 1.0107	-0.1281	 1.4523	 1.3242	59.3097	99.9790	
   848	-0.6943	 1.3736	 0.6792	-0.1609	 1.6262	 1.4653	 0.1536	 1.5335	 1.6873	60.7058	99.9682	
   849	-1.0702	 0.9312	-0.1391	-0.9169	 1.1119	 0.1950	-0.7170	 1.1461	 0.4292	59.4860	99.9813	
   850	-1.8111	 0.7846	-1.0267	-1.2966	 1.0846	-0.2120	-0.7883	 0.9735	 0.1853	60.8181	99.9703	
   851	-1.6868	 0.6500	-1.0369	-1.2365	 0.6113	-0.6252	-1.0264	 0.7921	-0.2342	60.3074	99.9891	
   852	-2.2092	 0.3425	-1.8667	-2.1281	 0.6938	-1.4343	-1.2421	 0.7948	-0.4472	59.9380	99.9882	
   853	-2.8602	-0.2412	-3.1014	-2.3279	-0.1462	-2.4741	-2.2049	-0.1082	-2.3130	60.3281	99.9735	
   854	-3.7855	-0.8389	-4.6245	-3.4912	-0.4132	-3.9045	-2.9491	-0.0543	-3.0033	58.5034	99.9897	
   855	-2.8945	 0.3709	-2.5237	-2.4526	 1.8547	-0.5980	-0.6953	 1.1385	 0.4432	61.3043	99.9031	
   856	-0.5777	 1.2344	 0.6566	 0.0490	 1.5004	 1.5493	 0.3665	 1.3905	 1.7571	61.1184	99.9645	
   857	-1.1558	 0.8644	-0.2915	-0.7535	 1.1639	 0.4104	-0.3326	 1.1855	 0.8530	60.2511	99.9777	
   858	-1.2924	 0.8084	-0.4841	-0.8817	 1.0607	 0.1790	-0.4296	 0.9542	 0.5247	60.8805	99.9732	
   859	-1.4185	 0.8012	-0.6174	-0.9142	 1.0528	 0.1386	-0.4806	 1.2095	 0.7290	60.1264	99.9839	
   860	-1.4491	 0.6697	-0.7795	-1.0436	 0.8273	-0.2163	-0.7167	 0.7844	 0.0677	60.6963	99.9767	
   861	-2.1764	 0.2783	-1.8982	-1.6306	 0.6601	-0.9705	-0.9691	 0.7323	-0.2367	60.5633	99.9797	
   862	-1.8445	 0.4967	-1.3480	-1.2563	 0.8056	-0.4508	-0.6968	 0.8395	 0.1428	60.8124	99.9776	
   863	-1.5759	 0.4228	-1.1532	-1.0754	 0.6254	-0.4500	-0.6657	 0.5290	-0.1366	61.2617	99.9724	
   864	-2.6946	-0.3081	-3.0027	-2.3906	-0.1240	-2.5146	-2.1168	-0.1167	-2.2334	60.1022	99.9776	
   865	-3.5797	-0.6279	-4.2077	-3.0077	-0.2612	-3.2689	-2.3275	-0.1214	-2.4488	60.3748	99.9822	
   866	-2.7523	-0.2873	-3.0398	-2.1539	-0.0268	-2.1808	-1.5048	 0.0231	-1.4816	61.2359	99.9810	
   867	-2.3453	-0.1634	-2.5089	-1.8522	 0.0862	-1.7661	-1.3060	 0.1054	-1.2005	61.0343	99.9795	
   868	-2.6214	-0.3193	-2.9408	-2.2088	-0.0849	-2.2937	-1.6870	-0.0595	-1.7463	60.7779	99.9808	
   869	-3.0139	-0.5609	-3.5749	-2.6528	-0.3220	-2.9748	-2.1401	-0.2271	-2.3671	60.3436	99.9840	
   870	-2.9823	-0.4148	-3.3972	-2.4458	-0.0851	-2.5310	-1.7352	 0.0593	-1.6758	60.6595	99.9848	
   871	-2.3819	-0.1578	-2.5398	-1.9114	 0.0619	-1.8495	-1.3432	 0.0394	-1.3037	61.2442	99.9794	
   872	-2.5916	-0.3150	-2.9067	-2.1006	 0.0060	-2.0946	-1.4239	 0.1697	-1.2542	60.5945	99.9859	
   873	-2.1308	-0.0454	-2.1763	-1.5979	 0.1578	-1.4402	-1.0652	 0.1503	-0.9148	61.3712	99.9790	
   874	-2.4443	-0.3228	-2.7673	-1.9651	-0.0806	-2.0457	-1.3747	-0.0229	-1.3975	61.0708	99.9825	
   875	-2.4992	-0.2582	-2.7575	-1.9153	-0.0013	-1.9167	-1.2735	 0.0939	-1.1795	61.1753	99.9833	
   876	-2.2962	-0.2035	-2.4998	-1.7202	 0.0460	-1.6742	-1.0736	 0.1024	-0.9711	61.3970	99.9821	
   877	-2.2221	-0.2001	-2.4223	-1.6242	 0.0443	-1.5799	-1.0207	 0.0611	-0.9595	61.5372	99.9792	
   878	-2.5116	-0.4487	-2.9603	-2.0439	-0.2142	-2.2582	-1.5297	-0.2055	-1.7350	61.1163	99.9790	
   879	-3.1002	-0.8673	-3.9676	-2.8285	-0.6732	-3.5017	-2.6312	-0.7486	-3.3798	60.2920	99.9705	
   880	-4.1132	-1.3362	-5.4495	-3.7443	-1.0794	-4.8237	-3.4013	-1.0303	-4.4316	59.9979	99.9764	
   881	-3.9131	-1.2130	-5.1262	-3.4077	-0.9207	-4.3283	-2.9316	-0.8629	-3.7944	60.5246	99.9767	
   882	-3.6446	-1.1744	-4.8191	-3.2016	-0.9031	-4.1046	-2.8232	-0.9012	-3.7243	60.5348	99.9731	
   883	-3.7514	-1.2260	-4.9775	-3.3250	-0.9305	-4.2555	-2.9214	-0.8778	-3.7991	60.2774	99.9759	
   884	-3.4928	-0.9964	-4.4893	-2.9829	-0.6833	-3.6661	-2.5192	-0.6357	-3.1547	60.5516	99.9753	
   885	-3.3841	-0.9154	-4.2996	-2.9288	-0.6378	-3.5666	-2.4762	-0.5661	-3.0422	60.4337	99.9787	
   886	-3.3484	-0.9357	-4.2843	-2.8869	-0.6849	-3.5718	-2.4751	-0.6399	-3.1150	60.5698	99.9771	
   887	-3.4378	-1.0611	-4.4990	-3.0225	-0.8049	-3.8274	-2.6434	-0.7669	-3.4103	60.4337	99.9764	
   888	-3.4436	-1.0365	-4.4803	-2.9994	-0.7420	-3.7414	-2.5703	-0.6572	-3.2274	60.3124	99.9782	
   889	-3.4504	-1.0266	-4.4771	-3.0228	-0.7079	-3.7307	-2.5625	-0.6203	-3.1828	60.2446	99.9786	
   890	-3.3629	-0.9305	-4.2935	-2.9613	-0.6457	-3.6070	-2.4576	-0.5331	-2.9906	60.2917	99.9823	
   891	-3.5909	-1.0287	-4.6197	-3.2223	-0.7214	-3.9436	-2.6619	-0.5231	-3.1849	59.9260	99.9865	
   892	-3.6592	-1.0567	-4.7160	-3.2348	-0.7170	-3.9518	-2.7168	-0.5150	-3.2317	59.8184	99.9843	
   893	-3.7602	-1.1329	-4.8932	-3.3254	-0.8335	-4.1588	-2.8149	-0.6725	-3.4872	60.0959	99.9834	
   894	-3.8497	-1.1458	-4.9956	-3.3430	-0.8079	-4.1509	-2.7228	-0.6146	-3.3373	60.2492	99.9847	
   895	-3.5303	-1.0054	-4.5358	-3.0076	-0.7714	-3.7790	-2.4378	-0.7548	-3.1925	61.1883	99.9790	
   896	-3.2108	-0.9776	-4.1885	-2.6358	-0.6638	-3.2996	-2.0876	-0.6412	-2.7287	61.1434	99.9752	
   897	-2.7260	-0.6791	-3.4052	-2.1134	-0.4028	-2.5162	-1.6194	-0.3150	-1.9343	61.0625	99.9783	
   898	-2.8625	-0.8476	-3.7102	-2.5249	-0.6320	-3.1568	-2.1334	-0.5742	-2.7075	60.5278	99.9809	
   899	-3.4878	-1.1481	-4.6360	-3.2400	-0.9024	-4.1424	-2.8829	-0.7897	-3.6725	59.7969	99.9826	
   900	-3.6784	-1.1248	-4.8032	-3.3355	-0.7912	-4.1267	-2.8133	-0.5544	-3.3675	59.5794	99.9869	
   901	-2.9544	-0.3273	-3.2818	-2.1370	 0.1416	-1.9954	-1.2585	 0.4333	-0.8251	60.7076	99.9862	
   902	-1.4429	 0.1952	-1.2478	-0.8679	 0.4617	-0.4062	-0.2342	 0.5235	 0.2894	61.4762	99.9821	
   903	-1.1910	 0.4347	-0.7564	-0.4266	 0.7578	 0.3312	 0.3567	 0.8628	 1.2196	61.8696	99.9828	
   904	-0.5453	 0.5930	 0.0476	 0.0737	 0.8717	 0.9454	 0.6920	 0.9139	 1.6060	61.7717	99.9805	
   905	-0.8396	 0.3837	-0.4561	-0.3044	 0.6630	 0.3586	 0.2667	 0.6573	 0.9241	61.6259	99.9782	
   906	-1.1320	 0.2036	-0.9285	-0.5232	 0.4432	-0.0800	 0.0254	 0.4205	 0.4459	61.9006	99.9767	
   907	-1.7285	-0.1073	-1.8358	-1.2100	 0.2145	-0.9956	-0.5948	 0.3288	-0.2659	61.0245	99.9829	
   908	-1.7431	 0.1229	-1.6203	-0.9804	 0.4045	-0.5758	-0.3537	 0.4696	 0.1160	61.7071	99.9786	
   909	-1.4968	 0.1620	-1.3349	-0.8463	 0.4993	-0.3471	-0.1844	 0.5228	 0.3386	61.5997	99.9775	
   910	-1.4209	 0.3072	-1.1137	-0.6633	 0.6606	-0.0027	 0.1163	 0.7330	 0.8494	61.8220	99.9803	
   911	-1.0860	 0.3446	-0.7415	-0.4682	 0.7079	 0.2398	 0.2301	 0.7832	 1.0134	61.4495	99.9806	
   912	-1.0475	 0.3682	-0.6794	-0.3428	 0.6636	 0.3208	 0.2528	 0.7017	 0.9547	61.7591	99.9775	
   913	-1.2640	 0.3334	-0.9307	-0.5415	 0.6628	 0.1213	 0.1366	 0.7032	 0.8400	61.7683	99.9780	
   914	-1.1976	 0.3321	-0.8656	-0.4921	 0.6324	 0.1403	 0.1397	 0.6626	 0.8024	61.7936	99.9777	
   915	-1.2698	 0.3580	-0.9119	-0.4564	 0.6909	 0.2344	 0.2721	 0.7458	 1.0180	62.0022	99.9783	
   916	-1.0822	 0.4032	-0.6791	-0.3048	 0.7600	 0.4552	 0.4255	 0.8103	 1.2359	61.9358	99.9780	
   917	-0.9744	 0.4695	-0.5051	-0.2006	 0.7877	 0.5872	 0.4695	 0.8060	 1.2756	62.0323	99.9764	
   918	-1.2419	 0.3330	-0.9090	-0.5889	 0.6214	 0.0325	 0.0350	 0.6713	 0.7065	61.6057	99.9797	
   919	-1.5411	 0.2754	-1.2659	-0.8518	 0.6174	-0.2343	-0.1476	 0.6737	 0.5262	61.5452	99.9793	
   920	-1.5411	 0.2754	-1.2659	-0.8651	 0.6092	-0.2559	-0.1476	 0.6737	 0.5262	61.5452	99.9804	
   921	-1.3747	 0.3356	-1.0392	-0.5415	 0.6628	 0.1213	 0.1519	 0.6809	 0.8329	62.0635	99.9753	
   922	-1.1130	 0.3842	-0.7288	-0.3440	 0.7480	 0.4040	 0.3859	 0.7960	 1.1820	61.8983	99.9777	
   923	-1.1246	 0.4334	-0.6913	-0.3416	 0.7859	 0.4443	 0.3682	 0.8701	 1.2384	61.7592	99.9792	
   924	-1.0735	 0.4226	-0.6511	-0.3432	 0.7606	 0.4175	 0.3246	 0.7894	 1.1141	61.8118	99.9769	
   925	-1.1063	 0.4868	-0.6196	-0.3184	 0.8488	 0.5303	 0.4163	 0.9322	 1.3486	61.7660	99.9793	
   926	-1.0265	 0.5781	-0.4485	-0.1895	 0.9646	 0.7752	 0.5940	 1.0333	 1.6274	61.9256	99.9782	
   927	-0.7753	 0.5780	-0.1974	-0.0716	 0.9036	 0.8320	 0.5541	 0.9230	 1.4773	61.7786	99.9765	
   928	-1.0784	 0.4618	-0.6167	-0.4285	 0.8295	 0.4010	 0.2266	 0.9088	 1.1355	61.3099	99.9793	
   929	-1.3046	 0.5054	-0.7993	-0.6648	 0.8420	 0.1772	-0.1074	 0.8799	 0.7726	61.1345	99.9762	
   930	-1.6548	 0.3461	-1.3088	-0.9806	 0.7081	-0.2725	-0.3498	 0.7169	 0.3672	61.3121	99.9747	
   931	-1.4633	 0.3374	-1.1259	-0.7534	 0.6537	-0.0997	-0.0632	 0.6947	 0.6316	61.6890	99.9788	
   932	-1.3342	 0.2761	-1.0582	-0.5387	 0.6037	 0.0650	 0.1651	 0.6254	 0.7906	62.0603	99.9764	
   933	-1.1755	 0.3317	-0.8439	-0.3146	 0.7053	 0.3907	 0.4330	 0.7511	 1.1842	62.1218	99.9761	
   934	-1.0109	 0.3626	-0.6484	-0.3052	 0.6504	 0.3451	 0.2667	 0.6573	 0.9241	61.8604	99.9756	
   935	-1.2535	 0.3821	-0.8714	-0.4407	 0.7370	 0.2962	 0.2721	 0.7458	 1.0180	62.0344	99.9748	
   936	-1.2612	 0.3774	-0.8839	-0.5391	 0.7007	 0.1616	 0.1041	 0.7147	 0.8189	61.7614	99.9761	
   937	-1.4950	 0.3038	-1.1913	-0.8369	 0.6509	-0.1859	-0.1245	 0.6882	 0.5637	61.5428	99.9789	
   938	-1.4767	 0.3573	-1.1196	-0.7886	 0.7049	-0.0837	-0.1053	 0.7322	 0.6270	61.5440	99.9773	
   939	-1.5220	 0.3435	-1.1786	-0.8286	 0.6803	-0.1483	-0.1500	 0.7254	 0.5755	61.5071	99.9783	
   940	-1.5383	 0.3194	-1.2191	-0.9054	 0.6816	-0.2238	-0.2157	 0.7373	 0.5217	61.2880	99.9791	
   941	-1.5364	 0.3487	-1.1878	-0.8286	 0.6803	-0.1483	-0.1615	 0.7182	 0.5568	61.5416	99.9776	
   942	-1.6076	 0.2767	-1.3309	-0.8259	 0.6212	-0.2047	-0.1042	 0.6584	 0.5543	61.8061	99.9771	
   943	-1.4228	 0.2779	-1.1450	-0.6515	 0.6436	-0.0080	 0.1116	 0.6556	 0.7673	61.9936	99.9764	
   944	-1.1563	 0.3998	-0.7566	-0.2797	 0.7511	 0.4714	 0.4624	 0.7803	 1.2428	62.2276	99.9757	
   945	-0.9908	 0.4454	-0.5455	-0.1872	 0.7959	 0.6087	 0.5129	 0.7907	 1.3037	62.1458	99.9742	
   946	-0.9956	 0.4846	-0.5111	-0.1273	 0.8329	 0.7056	 0.5820	 0.8341	 1.4162	62.2618	99.9737	
   947	-0.8446	 0.5354	-0.3093	-0.0015	 0.8982	 0.8967	 0.7022	 0.8990	 1.6013	62.1944	99.9736	
   948	-0.7705	 0.5388	-0.2318	 0.0620	 0.8887	 0.9507	 0.7449	 0.8726	 1.6176	62.2608	99.9729	
   949	-0.8889	 0.5363	-0.3527	-0.0340	 0.8903	 0.8563	 0.6626	 0.8847	 1.5474	62.2276	99.9732	
   950	-0.8581	 0.5552	-0.3030	-0.0015	 0.8982	 0.8967	 0.6588	 0.9143	 1.5732	62.1198	99.9738	
   951	-0.9168	 0.5613	-0.3556	-0.0649	 0.9077	 0.8428	 0.6039	 0.9224	 1.5264	62.0835	99.9739	
   952	-0.9235	 0.5712	-0.3524	-0.0892	 0.9292	 0.8400	 0.6270	 0.9369	 1.5639	62.1229	99.9746	
   953	-0.9496	 0.6255	-0.3242	-0.0093	 0.9785	 0.9692	 0.7567	 0.9758	 1.7326	62.4569	99.9736	
   954	-0.8995	 0.6001	-0.2995	-0.0367	 0.9494	 0.9127	 0.6666	 0.9511	 1.6178	62.1954	99.9738	
   955	-0.8293	 0.6573	-0.1721	 0.0816	 0.9980	 1.0797	 0.8078	 0.9973	 1.8052	62.3820	99.9738	
   956	-0.8360	 0.6673	-0.1689	 0.0707	 1.0277	 1.0984	 0.8041	 1.0269	 1.8310	62.3137	99.9733	
   957	-0.7726	 0.7345	-0.0382	 0.1114	 1.0650	 1.1764	 0.8430	 1.0300	 1.8732	62.4494	99.9730	
   958	-0.7966	 0.7056	-0.0911	 0.0699	 1.0151	 1.0850	 0.7899	 0.9754	 1.7653	62.4781	99.9736	
   959	-0.7456	 0.6948	-0.0509	 0.1475	 1.0264	 1.1739	 0.9054	 0.9628	 1.8683	62.6620	99.9719	
   960	-0.8004	 0.6470	-0.1535	 0.0558	 0.9942	 1.0500	 0.7784	 0.9681	 1.7466	62.3392	99.9731	
   961	-0.8437	 0.6625	-0.1813	 0.0174	 0.9949	 1.0123	 0.7171	 0.9615	 1.6787	62.3343	99.9725	
   962	-0.8794	 0.6828	-0.1967	-0.0085	 0.9911	 0.9826	 0.6954	 0.9692	 1.6647	62.3696	99.9740	
   963	-0.8765	 0.7268	-0.1499	-0.0069	 1.0164	 1.0095	 0.6445	 1.0437	 1.6883	62.1198	99.9759	
   964	-0.8880	 0.6634	-0.2247	-0.1252	 0.9678	 0.8425	 0.5108	 0.9384	 1.4492	62.0280	99.9739	
   965	-1.1679	 0.4489	-0.7191	-0.3549	 0.7777	 0.4228	 0.3090	 0.7158	 1.0249	62.2368	99.9707	
   966	-1.3265	 0.2809	-1.0457	-0.6653	 0.5257	-0.1396	 0.1519	 0.6809	 0.8329	61.8496	99.9884	
   967	-1.1276	 0.6144	-0.5133	-0.2721	 0.9745	 0.7023	 0.4562	 1.0424	 1.4987	61.8454	99.9775	
   968	-1.1554	 0.5269	-0.6286	-0.4669	 0.8302	 0.3633	 0.1690	 0.8726	 1.0417	61.5857	99.9787	
   969	-1.1054	 0.5015	-0.6040	-0.3392	 0.8238	 0.4846	 0.2504	 0.7535	 1.0040	62.0098	99.9693	
   970	-1.3382	 0.4425	-0.8958	-0.4661	 0.8428	 0.3767	 0.3069	 0.8635	 1.1705	62.0182	99.9742	
   971	-0.8389	 0.6233	-0.2157	-0.0626	 0.9456	 0.8831	 0.5619	 0.9598	 1.5218	61.8928	99.9750	
   972	-0.5917	 0.7895	 0.1977	 0.2866	 1.1000	 1.3866	 0.9338	 1.0658	 1.9997	62.3734	99.9718	
   973	-0.3896	 0.8295	 0.4398	 0.4119	 1.0557	 1.4676	 0.9375	 1.0362	 1.9738	62.2449	99.9740	
   974	-0.4763	 0.8606	 0.3842	 0.2897	 1.1505	 1.4403	 0.9236	 1.0807	 2.0044	62.2882	99.9725	
   975	-0.1608	 1.0548	 0.8940	 0.5989	 1.2802	 1.8791	 1.0821	 1.1377	 2.2199	62.4135	99.9669	
   976	-0.2146	 1.0217	 0.8069	 0.4637	 1.2699	 1.7336	 0.9524	 1.0988	 2.0512	62.2593	99.9660	
   977	-0.4676	 0.8800	 0.4123	 0.1866	 1.0384	 1.2251	 0.4915	 0.8943	 1.3859	61.9649	99.9658	
   978	-0.7014	 0.8064	 0.1049	-0.0296	 1.0631	 1.0336	 0.4380	 0.9245	 1.3626	61.9533	99.9667	
   979	-1.0717	 0.5644	-0.5075	-0.4528	 0.8510	 0.3982	 0.0468	 0.7745	 0.8214	61.5815	99.9708	
   980	-1.1132	 0.6092	-0.5041	-0.4262	 0.8674	 0.4413	 0.1240	 0.7698	 0.8940	61.9522	99.9708	
   981	-1.1920	 0.5325	-0.6596	-0.5402	 0.7850	 0.2448	-0.0006	 0.7235	 0.7230	61.7648	99.9734	
   982	-1.2930	 0.4563	-0.8368	-0.6151	 0.7146	 0.0995	-0.0865	 0.5843	 0.4979	62.0076	99.9682	
   983	-1.5402	 0.2900	-1.2503	-0.9250	 0.5723	-0.3528	-0.4059	 0.5220	 0.1162	61.4897	99.9726	
   984	-1.8395	 0.2324	-1.6071	-1.2545	 0.5272	-0.7273	-0.6759	 0.5439	-0.1319	61.1647	99.9776	
   985	-1.7742	 0.4415	-1.3329	-1.0660	 0.7771	-0.2889	-0.3241	 0.7756	 0.4516	61.6141	99.9772	
   986	-1.4038	 0.5710	-0.8329	-0.7274	 0.8641	 0.1367	-0.0897	 0.8058	 0.7162	61.7441	99.9741	
   987	-1.5664	 0.4569	-1.1096	-0.9747	 0.6996	-0.2751	-0.4094	 0.6475	 0.2382	61.5283	99.9757	
   988	-1.7790	 0.3682	-1.4109	-1.0899	 0.7016	-0.3883	-0.4222	 0.6182	 0.1960	61.7336	99.9713	
   989	-1.6318	 0.4728	-1.1591	-0.9065	 0.7659	-0.1406	-0.3180	 0.6943	 0.3765	61.7324	99.9708	
   990	-1.4413	 0.5620	-0.8795	-0.6816	 0.8802	 0.1986	-0.0043	 0.7530	 0.7488	62.1482	99.9686	
   991	-1.4056	 0.4292	-0.9765	-0.8502	 0.6427	-0.2075	-0.4360	 0.4818	 0.0458	61.6729	99.9672	
   992	-1.9021	 0.2924	-1.6098	-1.1730	 0.6018	-0.5712	-0.6204	 0.5469	-0.0734	61.5370	99.9697	
   993	-1.7127	 0.4794	-1.2334	-0.9943	 0.7969	-0.1973	-0.3421	 0.7537	 0.4118	61.6355	99.9733	
   994	-1.7012	 0.5427	-1.1586	-1.0444	 0.8146	-0.2298	-0.4427	 0.8288	 0.3862	61.2992	99.9778	
   995	-1.8204	 0.4130	-1.4075	-1.2850	 0.6543	-0.6308	-0.7319	 0.6258	-0.1059	61.1834	99.9775	
   996	-2.2235	 0.2352	-1.9884	-1.5417	 0.5447	-0.9970	-0.8470	 0.5535	-0.2934	61.4005	99.9776	
   997	-1.8147	 0.5010	-1.3139	-0.9652	 0.8513	-0.1140	-0.1917	 0.8588	 0.6672	61.8540	99.9755	
   998	-1.4760	 0.5969	-0.8792	-0.7333	 0.8726	 0.1393	-0.1050	 0.8282	 0.7233	61.8213	99.9740	
   999	-1.5847	 0.5159	-1.0689	-0.8916	 0.7994	-0.0922	-0.3024	 0.7680	 0.4656	61.5542	99.9741	
  1000	-1.7213	 0.4600	-1.2615	-1.0284	 0.7638	-0.2646	-0.4233	 0.6920	 0.2688	61.6199	99.9714	
  1001	-1.8656	 0.3993	-1.4665	-1.1811	 0.7790	-0.4021	-0.4921	 0.7446	 0.2526	61.3850	99.9729	
  1002	-1.8176	 0.4570	-1.3607	-1.0675	 0.7518	-0.3158	-0.4552	 0.7146	 0.2595	61.6283	99.9728	
  1003	-1.9253	 0.3907	-1.5347	-1.2235	 0.7165	-0.5070	-0.5632	 0.6680	 0.1049	61.5530	99.9731	
  1004	-1.9089	 0.4148	-1.4943	-1.1635	 0.7534	-0.4101	-0.4782	 0.7001	 0.2220	61.6725	99.9722	
  1005	-2.0849	 0.2080	-1.8770	-1.5006	 0.4850	-1.0156	-1.0416	 0.3567	-0.6848	61.2982	99.9666	
  1006	-2.5707	 0.0074	-2.5634	-1.9391	 0.3364	-1.6026	-1.4358	 0.2473	-1.1884	61.0792	99.9667	
  1007	-2.7794	-0.1352	-2.9147	-2.1997	 0.1637	-2.0360	-1.6922	 0.1288	-1.5632	60.8779	99.9721	
  1008	-2.9640	-0.3614	-3.3255	-2.4607	-0.1186	-2.5794	-1.9420	-0.1559	-2.0977	60.9917	99.9757	
  1009	-3.2620	-0.7418	-4.0039	-2.7724	-0.4929	-3.2652	-2.1975	-0.4442	-2.6416	60.9121	99.9809	
  1010	-3.1543	-0.6755	-3.8299	-2.4875	-0.3417	-2.8291	-1.7833	-0.2797	-2.0630	61.3114	99.9789	
  1011	-2.6992	-0.4938	-3.1931	-2.1114	-0.2679	-2.3792	-1.5957	-0.2895	-1.8851	61.4538	99.9756	
  1012	-2.7762	-0.5412	-3.3175	-2.1839	-0.3004	-2.4843	-1.6410	-0.3074	-1.9483	61.4210	99.9763	
  1013	-2.4252	-0.1422	-2.5676	-1.7155	 0.1218	-1.5937	-1.1610	 0.1220	-1.0389	61.5047	99.9744	
  1014	-1.8510	 0.1691	-1.6820	-1.2499	 0.3964	-0.8535	-0.7340	 0.3158	-0.4181	61.6450	99.9730	
  1015	-1.4614	 0.3667	-1.0947	-0.8851	 0.5969	-0.2882	-0.3825	 0.4515	 0.0692	61.8337	99.9696	
  1016	-1.2805	 0.4218	-0.8588	-0.7283	 0.6449	-0.0835	-0.2643	 0.4832	 0.2191	61.8302	99.9685	
  1017	-1.2718	 0.4412	-0.8307	-0.7409	 0.6493	-0.0916	-0.2975	 0.4837	 0.1863	61.7869	99.9687	
  1018	-1.2949	 0.4270	-0.8680	-0.7616	 0.6243	-0.1373	-0.3537	 0.4696	 0.1160	61.7081	99.9686	
  1019	-1.3401	 0.4132	-0.9270	-0.8142	 0.6041	-0.2100	-0.3940	 0.4443	 0.0504	61.7422	99.9691	
  1020	-1.3988	 0.4193	-0.9797	-0.8659	 0.5966	-0.2693	-0.4451	 0.4228	-0.0222	61.8116	99.9686	
  1021	-1.4296	 0.4003	-1.0294	-0.8984	 0.5887	-0.3097	-0.4675	 0.4194	-0.0480	61.7763	99.9688	
  1022	-1.4152	 0.3952	-1.0201	-0.8741	 0.5672	-0.3069	-0.4350	 0.4079	-0.0269	61.8516	99.9701	
  1023	-1.4306	 0.3857	-1.0450	-0.9133	 0.5552	-0.3581	-0.4905	 0.4050	-0.0855	61.7363	99.9707	
  1024	-1.4748	 0.3866	-1.0884	-0.9517	 0.5559	-0.3958	-0.5084	 0.3830	-0.1253	61.8458	99.9698	
  1025	-1.4816	 0.3965	-1.0852	-0.9517	 0.5559	-0.3958	-0.5301	 0.3907	-0.1393	61.8069	99.9699	
  1026	-1.4499	 0.4301	-1.0199	-0.9035	 0.6099	-0.2936	-0.4604	 0.4452	-0.0151	61.8163	99.9694	
  1027	-1.3806	 0.4727	-0.9080	-0.8384	 0.6256	-0.2128	-0.4234	 0.4152	-0.0082	61.9908	99.9671	
  1028	-1.4036	 0.3460	-1.0577	-0.9180	 0.4794	-0.4386	-0.4968	 0.2094	-0.2873	62.2298	99.9655	
  1029	-1.5834	 0.1931	-1.3904	-1.0850	 0.2672	-0.8179	-0.7202	-0.0055	-0.7256	62.3573	99.9656	
  1030	-1.8469	 0.0027	-1.8443	-1.3598	 0.0736	-1.2862	-0.9775	-0.2310	-1.2084	62.4913	99.9641	
  1031	-2.0508	-0.1791	-2.2300	-1.5687	-0.0915	-1.6602	-1.1356	-0.3730	-1.5084	62.4903	99.9663	
  1032	-2.0518	-0.1937	-2.2456	-1.5244	-0.1007	-1.6251	-1.1241	-0.3657	-1.4897	62.4562	99.9650	
  1033	-2.0480	-0.1351	-2.1832	-1.5322	-0.0205	-1.5527	-1.1238	-0.2698	-1.3935	62.2751	99.9657	
  1034	-1.9932	-0.0873	-2.0806	-1.4656	 0.0206	-1.4450	-1.0215	-0.2268	-1.2482	62.3943	99.9671	
  1035	-1.9018	-0.0451	-1.9470	-1.3982	 0.0743	-1.3239	-0.9525	-0.1834	-1.1357	62.3584	99.9666	
  1036	-1.8469	 0.0027	-1.8443	-1.3308	 0.1279	-1.2028	-0.9210	-0.1210	-1.0419	62.2487	99.9655	
  1037	-1.8220	 0.0462	-1.7758	-1.3076	 0.1908	-1.1168	-0.8730	-0.0589	-0.9318	62.2181	99.9655	
  1038	-1.7748	 0.0893	-1.6856	-1.2476	 0.2277	-1.0199	-0.8493	-0.0334	-0.8825	62.2160	99.9637	
  1039	-1.7748	 0.0893	-1.6856	-1.2735	 0.2240	-1.0495	-0.8608	-0.0406	-0.9013	62.2139	99.9647	
  1040	-1.7739	 0.1040	-1.6700	-1.2527	 0.2489	-1.0038	-0.8371	-0.0151	-0.8520	62.2181	99.9639	
  1041	-1.7056	 0.1319	-1.5737	-1.1936	 0.2732	-0.9204	-0.7839	 0.0396	-0.7442	62.1109	99.9661	
  1042	-1.6806	 0.1755	-1.5052	-1.1587	 0.3190	-0.8397	-0.7474	 0.0945	-0.6528	62.0785	99.9665	
  1043	-1.6701	 0.2242	-1.4460	-1.1289	 0.3860	-0.7429	-0.6916	 0.1935	-0.4980	61.9807	99.9681	
  1044	-1.5287	 0.3534	-1.1754	-0.9642	 0.5603	-0.4039	-0.5111	 0.3388	-0.1722	61.9952	99.9645	
  1045	-1.4508	 0.4154	-1.0355	-0.8909	 0.6054	-0.2855	-0.4434	 0.3601	-0.0832	62.1036	99.9638	
  1046	-1.3450	 0.4524	-0.8926	-0.7867	 0.6332	-0.1535	-0.3916	 0.3926	 0.0011	62.0273	99.9629	
  1047	-1.3440	 0.4671	-0.8770	-0.7750	 0.6161	-0.1588	-0.3814	 0.3777	-0.0036	62.1358	99.9642	
  1048	-1.4623	 0.3521	-1.1103	-1.0297	 0.4349	-0.5948	-0.6909	 0.2045	-0.4863	61.9143	99.9687	
  1049	-1.8068	 0.2807	-1.5262	-1.2750	 0.4053	-0.8697	-0.8372	 0.1658	-0.6713	62.1153	99.9670	
  1050	-1.8808	 0.1648	-1.7161	-1.4255	 0.2518	-1.1737	-1.0458	 0.0135	-1.0322	61.9779	99.9684	
  1051	-2.1174	 0.0472	-2.0703	-1.6273	 0.2004	-1.4269	-1.1874	 0.0522	-1.1351	61.6264	99.9718	
  1052	-1.8895	 0.2579	-1.6317	-1.3075	 0.3974	-0.9101	-0.8768	 0.1515	-0.7252	62.1553	99.9645	
  1053	-1.6567	 0.3168	-1.3400	-1.1057	 0.4488	-0.6569	-0.6692	 0.1969	-0.4723	62.2329	99.9655	
  1054	-1.5345	 0.3780	-1.1566	-0.9866	 0.5101	-0.4765	-0.5395	 0.2358	-0.3036	62.3470	99.9646	
  1055	-1.4518	 0.4008	-1.0511	-0.9141	 0.5426	-0.3715	-0.4979	 0.2832	-0.2145	62.2005	99.9645	
  1056	-1.3825	 0.4434	-0.9392	-0.8533	 0.5921	-0.2612	-0.4359	 0.3009	-0.1349	62.2738	99.9624	
  1057	-1.3671	 0.4529	-0.9143	-0.8408	 0.5877	-0.2531	-0.4359	 0.3009	-0.1349	62.2717	99.9630	
  1058	-1.4123	 0.4391	-0.9733	-0.8632	 0.5375	-0.3257	-0.4992	 0.2611	-0.2380	62.3022	99.9633	
  1059	-1.4767	 0.3573	-1.1196	-0.9564	 0.4800	-0.4764	-0.5537	 0.1843	-0.3693	62.3368	99.9628	
  1060	-1.5633	 0.2758	-1.2876	-1.0763	 0.4062	-0.6702	-0.6624	 0.1266	-0.5357	62.2213	99.9646	
  1061	-1.6153	 0.2720	-1.3434	-1.1030	 0.3897	-0.7133	-0.6956	 0.1271	-0.5684	62.2224	99.9654	
  1062	-1.5912	 0.3008	-1.2905	-1.0689	 0.4229	-0.6460	-0.6604	 0.1598	-0.5004	62.2255	99.9650	
  1063	-1.6134	 0.3013	-1.3122	-1.1006	 0.4277	-0.6730	-0.6841	 0.1343	-0.5497	62.2960	99.9633	
  1064	-1.6576	 0.3022	-1.3556	-1.1273	 0.4112	-0.7160	-0.7274	 0.1496	-0.5777	62.2224	99.9652	
  1065	-1.6278	 0.3065	-1.3214	-1.0881	 0.4232	-0.6649	-0.6502	 0.1449	-0.5052	62.3756	99.9648	
  1066	-1.5980	 0.3108	-1.2873	-1.0556	 0.4311	-0.6245	-0.6272	 0.1594	-0.4677	62.3399	99.9647	
  1067	-1.5980	 0.3108	-1.2873	-1.0556	 0.4311	-0.6245	-0.6272	 0.1594	-0.4677	62.3399	99.9647	
  1068	-1.6047	 0.3207	-1.2841	-1.0932	 0.4444	-0.6488	-0.6489	 0.1671	-0.4817	62.3011	99.9654	
  1069	-1.6192	 0.3259	-1.2934	-1.0806	 0.4400	-0.6407	-0.6814	 0.1786	-0.5027	62.2255	99.9648	
  1070	-1.6490	 0.3216	-1.3275	-1.1065	 0.4362	-0.6703	-0.6929	 0.1713	-0.5215	62.2633	99.9649	
  1071	-1.6413	 0.3263	-1.3151	-1.1049	 0.4615	-0.6435	-0.6590	 0.1820	-0.4770	62.3042	99.9643	
  1072	-1.5893	 0.3302	-1.2593	-1.0540	 0.4564	-0.5976	-0.6042	 0.1739	-0.4302	62.3786	99.9647	
  1073	-1.6038	 0.3353	-1.2685	-1.0548	 0.4437	-0.6110	-0.6157	 0.1666	-0.4489	62.4143	99.9651	
  1074	-1.6192	 0.3259	-1.2934	-1.0932	 0.4444	-0.6488	-0.6807	 0.1896	-0.4910	62.1898	99.9658	
  1075	-1.6480	 0.3362	-1.3119	-1.1057	 0.4488	-0.6569	-0.6706	 0.1747	-0.4957	62.3389	99.9651	
  1076	-1.6557	 0.3315	-1.3244	-1.1190	 0.4406	-0.6784	-0.7248	 0.1939	-0.5308	62.1509	99.9658	
  1077	-1.6702	 0.3367	-1.3336	-1.1308	 0.4577	-0.6731	-0.6814	 0.1786	-0.5027	62.3399	99.9650	
  1078	-1.6394	 0.3556	-1.2839	-1.0791	 0.4652	-0.6138	-0.6194	 0.1962	-0.4231	62.4183	99.9660	
  1079	-1.6096	 0.3599	-1.2498	-1.0716	 0.4820	-0.5896	-0.6296	 0.2111	-0.4184	62.3053	99.9653	
  1080	-1.6086	 0.3746	-1.2342	-1.0708	 0.4946	-0.5762	-0.6181	 0.2183	-0.3996	62.3430	99.9654	
  1081	-1.6009	 0.3793	-1.2217	-1.0700	 0.5073	-0.5628	-0.6283	 0.2332	-0.3949	62.2686	99.9650	
  1082	-1.6144	 0.3991	-1.2154	-1.0700	 0.5073	-0.5628	-0.6601	 0.2558	-0.4042	62.1930	99.9660	
  1083	-1.6212	 0.4090	-1.2122	-1.1060	 0.5458	-0.5602	-0.6384	 0.2481	-0.3902	62.3053	99.9643	
  1084	-1.5769	 0.4082	-1.1688	-1.0485	 0.5448	-0.5036	-0.5714	 0.2583	-0.3129	62.3470	99.9651	
  1085	-1.5461	 0.4271	-1.1191	-0.9960	 0.5650	-0.4309	-0.5643	 0.2841	-0.2801	62.2727	99.9634	
  1086	-1.5461	 0.4271	-1.1191	-1.0218	 0.5613	-0.4606	-0.5751	 0.2879	-0.2871	62.2350	99.9652	
  1087	-1.5606	 0.4323	-1.1284	-1.0343	 0.5657	-0.4687	-0.5866	 0.2807	-0.3058	62.2706	99.9644	
  1088	-1.5740	 0.4521	-1.1220	-1.0461	 0.5828	-0.4633	-0.5968	 0.2956	-0.3011	62.2706	99.9644	
  1089	-1.5885	 0.4573	-1.1313	-1.0645	 0.5957	-0.4688	-0.6402	 0.3109	-0.3292	62.1574	99.9635	
  1090	-1.5731	 0.4668	-1.1064	-1.0136	 0.5906	-0.4229	-0.5948	 0.3288	-0.2659	62.1994	99.9647	
  1091	-1.5057	 0.4801	-1.0257	-0.9661	 0.6320	-0.3341	-0.5098	 0.3609	-0.1488	62.2058	99.9646	
  1092	-1.4952	 0.5288	-0.9665	-0.9262	 0.6566	-0.2695	-0.4868	 0.3754	-0.1113	62.3155	99.9638	
  1093	-1.4952	 0.5288	-0.9665	-0.9638	 0.6699	-0.2939	-0.5301	 0.3907	-0.1393	62.1649	99.9640	
  1094	-1.5299	 0.5637	-0.9662	-1.0131	 0.7003	-0.3129	-0.5773	 0.4356	-0.1415	62.0539	99.9656	
  1095	-2.0117	 0.1968	-1.8151	-1.5940	 0.2209	-1.3730	-1.3326	-0.0604	-1.3929	61.8674	99.9653	
  1096	-2.9189	-0.2351	-3.1541	-2.5210	-0.0586	-2.5796	-1.9467	-0.2333	-2.1799	61.4838	99.9741	
  1097	-3.4208	-0.7973	-4.2182	-3.0405	-0.6823	-3.7228	-2.6830	-0.7812	-3.4641	61.0354	99.9746	
  1098	-3.5171	-0.6878	-4.2050	-2.9138	-0.3977	-3.3115	-2.2893	-0.4061	-2.6953	61.1503	99.9758	
  1099	-3.3846	-0.3530	-3.7377	-2.9379	-0.1696	-3.1075	-2.4829	-0.2190	-2.7018	60.6831	99.9763	
  1100	-3.6897	-0.3860	-4.0758	-3.2325	-0.1688	-3.4014	-2.7644	-0.2043	-2.9686	60.4175	99.9758	
  1101	-3.8110	-0.3200	-4.1311	-3.3222	-0.0661	-3.3883	-2.8190	-0.1003	-2.9192	60.3206	99.9748	
  1102	-3.7592	-0.2036	-3.9629	-3.3202	 0.0688	-3.2514	-2.7906	 0.0027	-2.7878	60.2463	99.9741	
  1103	-3.6285	-0.0106	-3.6392	-3.1179	 0.2298	-2.8881	-2.5770	 0.1476	-2.4293	60.5287	99.9736	
  1104	-3.2774	 0.2758	-3.0017	-2.7299	 0.4931	-2.2368	-2.1876	 0.3604	-1.8271	60.8471	99.9714	
  1105	-2.8591	 0.5756	-2.2835	-2.3036	 0.7558	-1.5478	-1.7579	 0.5985	-1.1593	61.0893	99.9718	
  1106	-2.3867	 0.7961	-1.5907	-1.8396	 1.0052	-0.8344	-1.3041	 0.7772	-0.5268	61.2902	99.9668	
  1107	-2.0855	 0.8830	-1.2027	-1.5477	 1.0635	-0.4842	-1.0396	 0.8476	-0.1919	61.3699	99.9683	
  1108	-1.9720	 0.9247	-1.0474	-1.4560	 1.0957	-0.3603	-0.9546	 0.8797	-0.0748	61.3699	99.9691	
  1109	-1.8633	 1.0057	-0.8577	-1.3036	 1.1774	-0.1261	-0.8036	 0.9959	 0.1924	61.3504	99.9703	
  1110	-1.6959	 1.0806	-0.6154	-1.1253	 1.2630	 0.1377	-0.6055	 1.0672	 0.4618	61.4721	99.9696	
  1111	-1.5670	 1.1318	-0.4353	-0.9877	 1.3113	 0.3235	-0.5134	 1.1250	 0.6117	61.4009	99.9688	
  1112	-1.6305	 1.0646	-0.5659	-1.0751	 1.2453	 0.1701	-0.5953	 1.0523	 0.4570	61.3932	99.9689	
  1113	-1.7074	 1.0173	-0.6903	-1.1676	 1.2004	 0.0328	-0.6969	 1.0204	 0.3235	61.2776	99.9696	
  1114	-1.7267	 1.0617	-0.6651	-1.1629	 1.2763	 0.1134	-0.6374	 1.0897	 0.4525	61.3297	99.9691	
  1115	-1.6180	 1.1426	-0.4755	-1.0504	 1.3334	 0.2830	-0.5822	 1.1776	 0.5955	61.1834	99.9702	
  1116	-1.5978	 1.1129	-0.4850	-1.0245	 1.3372	 0.3126	-0.5202	 1.1953	 0.6751	61.1593	99.9706	
  1117	-1.5343	 1.1801	-0.3543	-0.9062	 1.3858	 0.4796	-0.4295	 1.2310	 0.8016	61.3092	99.9687	
  1118	-1.6209	 1.0987	-0.5223	-1.0261	 1.3119	 0.2858	-0.5466	 1.1255	 0.5790	61.3323	99.9672	
  1119	-1.6517	 1.0797	-0.5720	-1.0677	 1.2620	 0.1943	-0.5876	 1.0891	 0.5016	61.3633	99.9695	
  1120	-1.6209	 1.0987	-0.5223	-1.0786	 1.2917	 0.2131	-0.6079	 1.1189	 0.5111	61.2129	99.9697	
  1121	-1.7085	 1.1151	-0.5935	-1.1781	 1.3398	 0.1617	-0.6991	 1.1680	 0.4691	61.0315	99.9689	
  1122	-1.9692	 0.9687	-1.0006	-1.4156	 1.2299	-0.1856	-0.9764	 1.0682	 0.0919	60.8005	99.9659	
  1123	-2.2597	 0.8180	-1.4418	-1.6104	 1.0856	-0.5247	-1.1064	 0.9333	-0.1730	61.0677	99.9659	
  1124	-2.2914	 0.7844	-1.5071	-1.6437	 1.0651	-0.5785	-1.1294	 0.9189	-0.2104	61.0328	99.9660	
  1125	-2.2347	 0.8615	-1.3733	-1.6197	 1.1406	-0.4791	-1.0878	 0.9663	-0.1214	61.0677	99.9657	
  1126	-2.0798	 0.9709	-1.1090	-1.4414	 1.2262	-0.2153	-0.8897	 1.0376	 0.1480	61.2974	99.9661	
  1127	-2.0942	 0.8636	-1.2307	-1.5218	 1.0673	-0.4545	-1.0620	 0.8442	-0.2177	61.2955	99.9646	
  1128	-2.4557	 0.5284	-1.9274	-1.9091	 0.6100	-1.2991	-1.4887	 0.2886	-1.2000	61.9397	99.9623	
  1129	-2.9527	-0.0730	-3.0259	-2.4576	-0.0681	-2.5256	-2.0777	-0.2944	-2.3720	61.8591	99.9707	
  1130	-3.2824	-0.5996	-3.8820	-2.8159	-0.4710	-3.2869	-2.3253	-0.7268	-3.0520	61.9680	99.9671	
  1131	-3.2427	-0.7862	-4.0290	-2.8066	-0.7326	-3.5392	-2.6384	-0.5935	-3.2319	60.2127	99.9829	
  1132	-3.1999	-0.2393	-3.4393	-2.5052	 0.1942	-2.3111	-1.7224	-0.1882	-1.9106	62.3227	99.9486	
  1133	-2.9074	-0.1717	-3.0793	-2.3875	-0.0735	-2.4609	-1.9378	-0.2703	-2.2081	61.7724	99.9702	
  1134	-3.0093	-0.2626	-3.2721	-2.2510	-0.6577	-2.9087	-2.3438	-0.9406	-3.2843	63.0761	99.9604	
  1135	-3.1977	-0.5474	-3.7453	-2.8921	-0.1535	-3.0456	-2.1825	-0.1048	-2.2872	60.1938	99.9815	
  1136	-3.0028	-0.0476	-3.0505	-2.4343	 0.2014	-2.2329	-1.7471	 0.1369	-1.6100	61.3294	99.9772	
  1137	-3.0392	-0.2669	-3.3062	-2.5974	 0.0524	-2.5450	-1.9481	-0.0746	-2.0226	61.0753	99.9723	
  1138	-3.0846	-0.0557	-3.1404	-2.4841	 0.1221	-2.3620	-1.8769	-0.1788	-2.0557	62.2075	99.9634	
  1139	-3.2183	-0.1802	-3.3986	-2.6080	-0.0149	-2.6229	-2.0693	-0.2465	-2.3157	61.9015	99.9658	
  1140	-3.4145	-0.3573	-3.7718	-2.8835	-0.2211	-3.1046	-2.3947	-0.4084	-2.8030	61.5749	99.9697	
  1141	-3.3576	-0.3926	-3.7504	-2.8291	-0.2726	-3.1017	-2.3631	-0.5269	-2.8899	61.8627	99.9655	
  1142	-3.3691	-0.4560	-3.8252	-2.8890	-0.3096	-3.1986	-2.4244	-0.5335	-2.9578	61.5970	99.9673	
  1143	-3.3614	-0.4512	-3.8128	-2.8847	-0.3434	-3.2281	-2.4488	-0.5701	-3.0188	61.6631	99.9680	
  1144	-3.3884	-0.4116	-3.8001	-2.8984	-0.2546	-3.1530	-2.4356	-0.4448	-2.8803	61.4165	99.9687	
  1145	-3.4029	-0.4064	-3.8094	-2.9074	-0.2966	-3.2040	-2.4830	-0.4959	-2.9788	61.5170	99.9688	
  1146	-3.5010	-0.4387	-3.9398	-2.9925	-0.3247	-3.3172	-2.5565	-0.5208	-3.0772	61.5170	99.9688	
  1147	-3.4635	-0.4296	-3.8932	-2.9607	-0.3294	-3.2902	-2.5667	-0.5059	-3.0725	61.3992	99.9695	
  1148	-3.6116	-0.5490	-4.1606	-3.2057	-0.4560	-3.6617	-2.8284	-0.7129	-3.5412	61.4371	99.9661	
  1149	-4.0185	-0.7854	-4.8039	-3.6430	-0.6890	-4.3320	-3.3096	-0.8876	-4.1971	60.9898	99.9685	
  1150	-4.1994	-0.8405	-5.0399	-3.7864	-0.7287	-4.5151	-3.4126	-0.9416	-4.3541	61.1084	99.9672	
  1151	-4.3388	-0.9404	-5.2793	-3.9479	-0.8525	-4.8004	-3.6083	-1.0646	-4.6728	61.0484	99.9675	
  1152	-4.4148	-0.9731	-5.3880	-3.9945	-0.8812	-4.8757	-3.6300	-1.0569	-4.6868	61.0205	99.9697	
  1153	-4.2532	-0.8736	-5.1269	-3.7762	-0.7711	-4.5473	-3.4011	-0.9344	-4.3353	61.1214	99.9692	
  1154	-4.0781	-0.7940	-4.8722	-3.6230	-0.6767	-4.2997	-3.2260	-0.8776	-4.1034	61.2423	99.9676	
  1155	-3.9877	-0.7664	-4.7542	-3.5462	-0.6780	-4.2242	-3.1762	-0.8782	-4.0543	61.2746	99.9685	
  1156	-3.9406	-0.7234	-4.6640	-3.4988	-0.6366	-4.1354	-3.1040	-0.8754	-3.9794	61.4670	99.9669	
  1157	-3.9973	-0.8005	-4.7979	-3.5635	-0.7494	-4.3129	-3.2377	-0.9808	-4.2184	61.4088	99.9668	
  1158	-4.1512	-0.8952	-5.0465	-3.6960	-0.8188	-4.5148	-3.3082	-1.0463	-4.3544	61.4930	99.9673	
  1159	-4.1405	-0.9590	-5.0996	-3.6940	-0.8905	-4.5846	-3.3518	-1.1269	-4.4786	61.4810	99.9657	
  1160	-4.2579	-1.0594	-5.3173	-3.7955	-0.9774	-4.7729	-3.4554	-1.1920	-4.6474	61.4034	99.9659	
  1161	-4.3406	-1.0822	-5.4229	-3.8571	-1.0396	-4.8967	-3.5194	-1.2429	-4.7622	61.5139	99.9677	
  1162	-4.3320	-1.0628	-5.3949	-3.8230	-1.0064	-4.8294	-3.4656	-1.1772	-4.6426	61.4510	99.9693	
  1163	-4.2165	-0.9917	-5.2084	-3.7273	-0.9110	-4.6384	-3.3728	-1.1082	-4.4809	61.4156	99.9670	
  1164	-4.1079	-0.9108	-5.0187	-3.5874	-0.8249	-4.4123	-3.2143	-1.0512	-4.2654	61.6174	99.9650	
  1165	-3.9212	-0.8803	-4.8015	-3.4382	-0.7936	-4.2318	-3.0789	-1.0086	-4.0874	61.5429	99.9662	
  1166	-3.8731	-0.8225	-4.6957	-3.4033	-0.7478	-4.1511	-3.0423	-0.9538	-3.9960	61.5062	99.9678	
  1167	-3.8539	-0.7544	-4.6084	-3.3727	-0.6682	-4.0409	-2.9865	-0.8548	-3.8412	61.4425	99.9691	
  1168	-3.8366	-0.7156	-4.5524	-3.3636	-0.6262	-3.9899	-2.9570	-0.8257	-3.7826	61.4829	99.9691	
  1169	-3.7963	-0.6627	-4.4590	-3.3080	-0.5555	-3.8635	-2.8758	-0.7640	-3.6396	61.5311	99.9683	
  1170	-3.7424	-0.6295	-4.3720	-3.2480	-0.5186	-3.7666	-2.8016	-0.7280	-3.5295	61.5753	99.9684	
  1171	-3.6356	-0.5778	-4.2135	-3.1539	-0.4485	-3.6024	-2.6923	-0.6593	-3.3514	61.5454	99.9684	
  1172	-3.6106	-0.5343	-4.1450	-3.0772	-0.4498	-3.5269	-2.6679	-0.6227	-3.2905	61.5467	99.9699	
  1173	-3.6029	-0.5296	-4.1326	-3.1273	-0.4320	-3.5593	-2.7024	-0.6444	-3.3467	61.5376	99.9687	
  1174	-3.6405	-0.5386	-4.1792	-3.1590	-0.4273	-3.5863	-2.7350	-0.6329	-3.3677	61.4637	99.9684	
  1175	-3.6463	-0.5140	-4.1604	-3.1649	-0.4188	-3.5837	-2.7234	-0.6257	-3.3490	61.5402	99.9695	
  1176	-3.6145	-0.4804	-4.0951	-3.0791	-0.3780	-3.4571	-2.6314	-0.5678	-3.1990	61.5919	99.9694	
  1177	-3.5058	-0.3994	-3.9054	-2.9776	-0.2912	-3.2688	-2.5111	-0.5029	-3.0139	61.6731	99.9687	
  1178	-3.3538	-0.3340	-3.6880	-2.8451	-0.2218	-3.0669	-2.4140	-0.4525	-2.8663	61.6332	99.9668	
  1179	-3.3904	-0.3284	-3.7189	-2.8952	-0.2040	-3.0993	-2.4170	-0.4118	-2.8288	61.5660	99.9694	
  1180	-3.3645	-0.2702	-3.6348	-2.8470	-0.1500	-2.9971	-2.3646	-0.3682	-2.7327	61.6458	99.9687	
  1181	-3.3635	-0.2556	-3.6192	-2.8404	-0.1459	-2.9863	-2.3964	-0.3456	-2.7420	61.5299	99.9689	
  1182	-3.2943	-0.2129	-3.5073	-2.7479	-0.1011	-2.8490	-2.2833	-0.3065	-2.5897	61.6520	99.9687	
  1183	-3.2241	-0.1556	-3.3798	-2.6797	-0.0348	-2.7145	-2.2085	-0.2595	-2.4679	61.6930	99.9675	
  1184	-3.2010	-0.1414	-3.3425	-2.6789	-0.0222	-2.7011	-2.1868	-0.2671	-2.4538	61.7663	99.9675	
  1185	-3.2068	-0.1169	-3.3237	-2.6656	-0.0140	-2.6795	-2.1760	-0.2710	-2.4468	61.8781	99.9669	
  1186	-3.1731	-0.1664	-3.3396	-2.6903	-0.1021	-2.7924	-2.2840	-0.3176	-2.6014	61.5957	99.9698	
  1187	-3.2125	-0.2048	-3.4174	-2.7444	-0.1476	-2.8919	-2.3199	-0.3614	-2.6812	61.6307	99.9710	
  1188	-3.2827	-0.2621	-3.5449	-2.7918	-0.1889	-2.9807	-2.3418	-0.4497	-2.7914	61.8555	99.9677	
  1189	-3.3557	-0.3633	-3.7192	-2.8949	-0.3010	-3.1959	-2.4576	-0.5331	-2.9906	61.7332	99.9700	
  1190	-3.4539	-0.3956	-3.8496	-3.0183	-0.3285	-3.3468	-2.5769	-0.4910	-3.0677	61.3952	99.9744	
  1191	-3.6029	-0.5296	-4.1326	-3.1803	-0.5619	-3.7421	-2.8169	-0.7057	-3.5224	61.4750	99.9771	
  1192	-3.4876	-0.3460	-3.8337	-3.0112	-0.2147	-3.2260	-2.5058	-0.4144	-2.9201	61.4899	99.9707	
  1193	-3.3607	-0.2116	-3.5724	-2.8940	-0.0818	-2.9758	-2.4269	-0.3010	-2.7278	61.4138	99.9689	
  1194	-3.3425	-0.1582	-3.5007	-2.7957	-0.0455	-2.8411	-2.3178	-0.3282	-2.6459	61.8698	99.9642	
  1195	-3.3867	-0.1573	-3.5441	-2.8282	-0.0534	-2.8816	-2.3415	-0.3537	-2.6952	61.9807	99.9634	
  1196	-3.3809	-0.1818	-3.5629	-2.8889	-0.1030	-2.9919	-2.4584	-0.3633	-2.8216	61.6644	99.9668	
  1197	-3.5011	-0.3262	-3.8274	-3.0253	-0.2356	-3.2609	-2.6209	-0.4867	-3.1075	61.5389	99.9662	
  1198	-3.5867	-0.3929	-3.9797	-3.1053	-0.2848	-3.3901	-2.6741	-0.5414	-3.2153	61.5778	99.9657	
  1199	-3.6531	-0.3916	-4.0448	-3.1468	-0.3347	-3.4816	-2.7174	-0.5261	-3.2434	61.5428	99.9713	
  1200	-3.4983	-0.2822	-3.7806	-2.9689	-0.1522	-3.1211	-2.5024	-0.3590	-2.8614	61.4925	99.9681	
  1201	-3.3973	-0.2060	-3.6034	-2.9065	-0.0774	-2.9839	-2.4046	-0.2976	-2.7020	61.5338	99.9694	
  1202	-3.3271	-0.1487	-3.4759	-2.8274	-0.0407	-2.8681	-2.3497	-0.3056	-2.6552	61.7155	99.9666	
  1203	-3.3338	-0.1388	-3.4727	-2.8450	-0.0151	-2.8601	-2.3484	-0.2835	-2.6318	61.6806	99.9666	
  1204	-3.3136	-0.1685	-3.4822	-2.8615	-0.0739	-2.9354	-2.4269	-0.3010	-2.7278	61.4420	99.9692	
  1205	-3.3175	-0.1146	-3.4322	-2.8242	 0.0098	-2.8144	-2.3636	-0.2612	-2.6247	61.6021	99.9651	
  1206	-3.3040	-0.1345	-3.4386	-2.8007	-0.0243	-2.8251	-2.3196	-0.2654	-2.5849	61.6458	99.9681	
  1207	-3.2328	-0.0625	-3.2955	-2.7125	 0.0543	-2.6582	-2.2102	-0.1967	-2.4068	61.7303	99.9676	
  1208	-3.1540	 0.0142	-3.1399	-2.6177	 0.1370	-2.4807	-2.1365	-0.0758	-2.2122	61.5530	99.9688	
  1209	-3.0770	 0.0615	-3.0156	-2.5460	 0.1569	-2.3891	-2.0823	-0.0950	-2.1772	61.7327	99.9672	
  1210	-3.1146	 0.0525	-3.0622	-2.5844	 0.1576	-2.4268	-2.1365	-0.0758	-2.2122	61.5825	99.9674	
  1211	-3.1348	 0.0822	-3.0527	-2.5895	 0.1787	-2.4107	-2.1128	-0.0503	-2.1630	61.6632	99.9686	
  1212	-3.0828	 0.0861	-2.9968	-2.5428	 0.2075	-2.3354	-2.0566	-0.0363	-2.0927	61.6669	99.9671	
  1213	-3.0646	 0.1395	-2.9252	-2.5013	 0.2574	-2.2439	-1.9634	-0.0522	-2.0155	62.0441	99.9642	
  1214	-3.0866	 0.0275	-3.0592	-2.4095	-0.2207	-2.6302	-2.4631	 0.0170	-2.4460	60.3749	99.9866	
  1215	-3.1097	 0.0133	-3.0965	-2.6126	 0.1159	-2.4967	-2.1812	-0.0826	-2.2637	61.3911	99.9699	
  1216	-3.0338	 0.1585	-2.8754	-2.5306	 0.3000	-2.2306	-2.0468	 0.0337	-2.0129	61.5530	99.9656	
  1217	-2.9165	 0.2589	-2.6577	-2.4041	 0.3780	-2.0261	-1.9520	 0.1359	-1.8160	61.4825	99.9671	
  1218	-2.9684	 0.1425	-2.8260	-2.5095	 0.2280	-2.2815	-2.0705	 0.0082	-2.0622	61.4284	99.9705	
