OxySoft export of:	C:\Users\TO3 TechSupport\Documents\Train2Adapt\Post_tests\T2A_66_POST_NIRS
Export date:	2022/12/21 10:01:53
Start of measurement:	2022-12-21 09:07:33.843

Datafile sample rate:	10.00	Hz
Datafile duration:	3224.500	s
Datafile total number of samples:	32245

Description:	

Optode-template:	PortaMon TSI Fit Factor
Optode distance (mm):	 35.00
Optode gradients (mm):	 5.00
DPF:	5.76

Device id:	334
# Receivers:	1
# Light sources:	6
# ADC:	2

Light source wavelengths:
device	index	wavelength
1	1	849	nm
1	2	759	nm
1	3	846	nm
1	4	757	nm
1	5	848	nm
1	6	757	nm

Export sample rate:	10.00	Hz
Selected time span:	0	3224.500
Selected time span (sample numbers):	0	32245


Legend:
Column	Trace (Measurement)
1	(Sample number)
2	Rx1-Tx1 O2Hb (T2A_66_POST_NIRS)
3	Rx1-Tx1 HHb (T2A_66_POST_NIRS)
4	Rx1-Tx1 tHb (T2A_66_POST_NIRS)
5	Rx1-Tx2 O2Hb (T2A_66_POST_NIRS)
6	Rx1-Tx2 HHb (T2A_66_POST_NIRS)
7	Rx1-Tx2 tHb (T2A_66_POST_NIRS)
8	Rx1-Tx3 O2Hb (T2A_66_POST_NIRS)
9	Rx1-Tx3 HHb (T2A_66_POST_NIRS)
10	Rx1-Tx3 tHb (T2A_66_POST_NIRS)
11	Rx1-Tx1,Tx2,Tx3 TSI% (T2A_66_POST_NIRS)
12	Rx1-Tx1,Tx2,Tx3 TSI Fit Factor (T2A_66_POST_NIRS)
13	(Event)


1	2	3	4	5	6	7	8	9	10	11	12	13
     0	123.9003	61.0335	184.9338	97.3362	48.8499	146.1865	76.7541	43.0647	119.8192	11.5652	98.7634	
     1	-0.1480	-0.0588	-0.2068	-0.1884	-0.0742	-0.2623	-0.1819	-0.0654	-0.2468	61.5720	99.9868	
     2	-0.1645	-0.0529	-0.2174	-0.2316	-0.0590	-0.2902	-0.2067	-0.0566	-0.2629	61.5337	99.9862	
     3	-0.1723	-0.0415	-0.2138	-0.2172	-0.0640	-0.2809	-0.2243	-0.0310	-0.2548	61.4597	99.9864	
     4	-0.1888	-0.0356	-0.2244	-0.2307	-0.0445	-0.2748	-0.1994	-0.0397	-0.2387	61.5745	99.9865	
     5	-0.1126	-0.0371	-0.1497	-0.1416	-0.0314	-0.1728	-0.1034	-0.0283	-0.1312	61.6177	99.9868	
     6	-0.0596	-0.0045	-0.0641	-0.0746	-0.0181	-0.0924	-0.0447	-0.0036	-0.0479	61.6571	99.9866	
     7	-0.0751	 0.0183	-0.0568	-0.0805	 0.0062	-0.0739	-0.0447	-0.0036	-0.0479	61.7309	99.9872	
     8	-0.0497	 0.0178	-0.0319	-0.0854	 0.0450	-0.0401	-0.0373	 0.0132	-0.0237	61.6571	99.9875	
     9	-0.0486	 0.0346	-0.0140	-0.0422	 0.0298	-0.0122	-0.0175	 0.0257	 0.0086	61.6964	99.9877	
    10	-0.0321	 0.0287	-0.0034	-0.0337	 0.0490	 0.0156	-0.0035	 0.0467	 0.0436	61.6252	99.9878	
    11	-0.0398	 0.0400	 0.0002	-0.0251	 0.0682	 0.0434	-0.0035	 0.0467	 0.0436	61.6620	99.9887	
    12	-0.0387	 0.0569	 0.0181	 0.0036	 0.0580	 0.0620	 0.0039	 0.0635	 0.0678	61.6633	99.9887	
    13	-0.0221	 0.0509	 0.0288	-0.0099	 0.0776	 0.0681	 0.0412	 0.0503	 0.0919	61.7394	99.9881	
    14	 0.0364	 0.0385	 0.0749	 0.0764	 0.0471	 0.1239	 0.0925	 0.0582	 0.1511	61.7050	99.9883	
    15	 0.0695	 0.0266	 0.0962	 0.0764	 0.0471	 0.1239	 0.1158	 0.0240	 0.1402	61.7762	99.9881	
    16	 0.0441	 0.0271	 0.0713	 0.0621	 0.0522	 0.1146	 0.0960	 0.0115	 0.1080	61.8118	99.9888	
    17	 0.0265	 0.0163	 0.0428	 0.0382	 0.0236	 0.0621	 0.0821	-0.0095	 0.0730	61.8475	99.9881	
    18	 0.0177	 0.0108	 0.0285	 0.0441	-0.0007	 0.0436	 0.0821	-0.0095	 0.0730	61.8487	99.9877	
    19	 0.0166	-0.0060	 0.0106	 0.0441	-0.0007	 0.0436	 0.0374	-0.0131	 0.0246	61.7333	99.9890	
    20	-0.0000	-0.0000	-0.0000	-0.0000	 0.0000	 0.0003	 0.0000	 0.0000	 0.0005	61.6571	99.9881	
    21	-0.0099	-0.0223	-0.0322	-0.0086	-0.0192	-0.0274	 0.0036	-0.0466	-0.0426	61.7666	99.9884	
    22	-0.0265	-0.0163	-0.0428	-0.0229	-0.0141	-0.0367	-0.0213	-0.0378	-0.0587	61.7285	99.9886	
    23	-0.0088	-0.0055	-0.0143	 0.0288	-0.0101	 0.0189	 0.0175	-0.0256	-0.0077	61.7690	99.9892	
    24	 0.0596	 0.0044	 0.0640	 0.1160	-0.0261	 0.0902	 0.1194	-0.0227	 0.0971	61.8855	99.9884	
    25	 0.1027	 0.0148	 0.1174	 0.1340	 0.0268	 0.1611	 0.1582	-0.0105	 0.1482	61.8867	99.9890	
    26	 0.1126	 0.0370	 0.1496	 0.1569	 0.0409	 0.1982	 0.1781	 0.0020	 0.1805	61.9246	99.9891	
    27	 0.1137	 0.0538	 0.1675	 0.1367	 0.0703	 0.2073	 0.1994	 0.0398	 0.2397	61.8924	99.9879	
    28	 0.1137	 0.0538	 0.1675	 0.1740	 0.0794	 0.2537	 0.2169	 0.0142	 0.2315	62.0028	99.9897	
    29	 0.1204	 0.0256	 0.1460	 0.1628	 0.0166	 0.1797	 0.1334	-0.0017	 0.1321	61.8083	99.9896	
    30	 0.0575	-0.0292	 0.0282	 0.0777	-0.0497	 0.0284	 0.0817	-0.1196	-0.0375	62.0228	99.9893	
    31	-0.0054	-0.0841	-0.0896	-0.0005	-0.1258	-0.1260	-0.0216	-0.1479	-0.1692	61.8692	99.9884	
    32	-0.0330	-0.1172	-0.1503	-0.0446	-0.1250	-0.1693	-0.0041	-0.1736	-0.1773	61.9477	99.9879	
    33	 0.0200	-0.0846	-0.0647	 0.0512	-0.1218	-0.0703	 0.0794	-0.1577	-0.0779	62.0630	99.9881	
    34	 0.0973	-0.0693	 0.0279	 0.0980	-0.0790	 0.0192	 0.1191	-0.1328	-0.0133	61.9881	99.9885	
    35	 0.0796	-0.0802	-0.0006	 0.0741	-0.1077	-0.0333	 0.0779	-0.1831	-0.1048	62.0553	99.9889	
    36	 0.0266	-0.1128	-0.0862	 0.0332	-0.1747	-0.1413	-0.0181	-0.1946	-0.2123	61.9015	99.9887	
    37	 0.0167	-0.1351	-0.1184	 0.0044	-0.1646	-0.1599	-0.0006	-0.2202	-0.2204	61.9779	99.9886	
    38	 0.0012	-0.1123	-0.1111	 0.0130	-0.1454	-0.1321	 0.0192	-0.2078	-0.1881	62.0553	99.9888	
    39	-0.0220	-0.0782	-0.1002	-0.0158	-0.1352	-0.1507	 0.0192	-0.2078	-0.1881	62.1662	99.9880	
    40	-0.0231	-0.0950	-0.1181	-0.0446	-0.1250	-0.1693	-0.0181	-0.1946	-0.2123	62.0160	99.9881	
    41	-0.0319	-0.1004	-0.1324	-0.0446	-0.1250	-0.1693	-0.0379	-0.2070	-0.2445	62.0138	99.9889	
    42	-0.0397	-0.0890	-0.1287	-0.0158	-0.1352	-0.1507	-0.0181	-0.1946	-0.2123	62.0541	99.9890	
    43	 0.0210	-0.0678	-0.0468	 0.0656	-0.1269	-0.0610	 0.0406	-0.1699	-0.1289	62.0564	99.9893	
    44	 0.0630	-0.0743	-0.0112	 0.0656	-0.1269	-0.0610	 0.0032	-0.1567	-0.1531	61.8645	99.9892	
    45	 0.0464	-0.0683	-0.0219	 0.0656	-0.1269	-0.0610	 0.0406	-0.1699	-0.1289	62.0171	99.9889	
    46	 0.0630	-0.0743	-0.0112	 0.0656	-0.1269	-0.0610	 0.0406	-0.1699	-0.1289	61.9790	99.9887	
    47	 0.0365	-0.0906	-0.0540	 0.0561	-0.1606	-0.1042	-0.0006	-0.2202	-0.2204	62.0474	99.9897	
    48	 0.0012	-0.1123	-0.1111	-0.0041	-0.1838	-0.1876	 0.0029	-0.2669	-0.2635	62.1968	99.9884	
    49	-0.0165	-0.1232	-0.1396	-0.0185	-0.1787	-0.1969	-0.0453	-0.2239	-0.2688	61.9744	99.9887	
    50	-0.0065	-0.1009	-0.1075	-0.0158	-0.1352	-0.1507	-0.0379	-0.2070	-0.2445	61.9744	99.9892	
    51	-0.0065	-0.1009	-0.1075	 0.0130	-0.1454	-0.1321	-0.0554	-0.1814	-0.2364	61.8633	99.9898	
    52	 0.0365	-0.0906	-0.0540	 0.0512	-0.1218	-0.0703	 0.0208	-0.1824	-0.1612	61.9790	99.9896	
    53	 0.0542	-0.0797	-0.0255	 0.0858	-0.1563	-0.0702	 0.0192	-0.2078	-0.1881	62.0486	99.9898	
    54	 0.0277	-0.0960	-0.0683	 0.0476	-0.1798	-0.1320	-0.0379	-0.2070	-0.2445	61.9339	99.9894	
    55	 0.0277	-0.0960	-0.0683	 0.0273	-0.1504	-0.1228	-0.0181	-0.1946	-0.2123	61.9374	99.9891	
    56	 0.0277	-0.0960	-0.0683	 0.0130	-0.1454	-0.1321	-0.0628	-0.1982	-0.2606	61.8574	99.9897	
    57	 0.0100	-0.1069	-0.0968	 0.0332	-0.1747	-0.1413	-0.0453	-0.2239	-0.2688	61.9710	99.9900	
    58	-0.0065	-0.1009	-0.1075	 0.0044	-0.1646	-0.1599	-0.1075	-0.2019	-0.3090	61.8179	99.9903	
    59	-0.0319	-0.1004	-0.1324	-0.0185	-0.1787	-0.1969	-0.0842	-0.2361	-0.3198	62.0058	99.9896	
    60	-0.0253	-0.1286	-0.1539	-0.0051	-0.1983	-0.2030	-0.0842	-0.2361	-0.3198	61.9328	99.9897	
    61	 0.0432	-0.1188	-0.0756	 0.0476	-0.1798	-0.1320	-0.0204	-0.2327	-0.2527	61.9710	99.9896	
    62	 0.0277	-0.0960	-0.0683	 0.0273	-0.1504	-0.1228	-0.0453	-0.2239	-0.2688	61.9687	99.9901	
    63	 0.0432	-0.1188	-0.0756	 0.0332	-0.1747	-0.1413	-0.0628	-0.1982	-0.2606	61.7832	99.9895	
    64	 0.0266	-0.1128	-0.0862	 0.0332	-0.1747	-0.1413	-0.0453	-0.2239	-0.2688	61.9328	99.9898	
    65	 0.0012	-0.1123	-0.1111	 0.0332	-0.1747	-0.1413	-0.0826	-0.2107	-0.2929	61.8574	99.9907	
    66	 0.0012	-0.1123	-0.1111	 0.0044	-0.1646	-0.1599	-0.1448	-0.1887	-0.3331	61.6657	99.9908	
    67	-0.0165	-0.1232	-0.1396	-0.0051	-0.1983	-0.2030	-0.1413	-0.2353	-0.3762	61.8131	99.9906	
    68	-0.0253	-0.1286	-0.1539	-0.0338	-0.1881	-0.2216	-0.1215	-0.2229	-0.3440	61.8179	99.9896	
    69	-0.0330	-0.1172	-0.1503	-0.0185	-0.1787	-0.1969	-0.1448	-0.1887	-0.3331	61.7065	99.9902	
    70	-0.0584	-0.1167	-0.1752	-0.0675	-0.1392	-0.2064	-0.1215	-0.2229	-0.3440	61.8945	99.9902	
    71	-0.0165	-0.1232	-0.1396	-0.0244	-0.1544	-0.1785	-0.0593	-0.2449	-0.3037	62.0081	99.9899	
    72	 0.0001	-0.1291	-0.1290	-0.0041	-0.1838	-0.1876	-0.0666	-0.2617	-0.3280	62.0047	99.9900	
    73	-0.0264	-0.1454	-0.1718	-0.0338	-0.1881	-0.2216	-0.1238	-0.2610	-0.3844	61.8898	99.9905	
    74	-0.0518	-0.1449	-0.1967	-0.0424	-0.2073	-0.2494	-0.1487	-0.2522	-0.4005	61.8527	99.9903	
    75	-0.0529	-0.1618	-0.2146	-0.0855	-0.1921	-0.2773	-0.1627	-0.2732	-0.4354	61.8503	99.9902	
    76	-0.0860	-0.1499	-0.2359	-0.0941	-0.2113	-0.3051	-0.1825	-0.2856	-0.4677	61.9235	99.9903	
    77	-0.0794	-0.1781	-0.2574	-0.1094	-0.2207	-0.3298	-0.2447	-0.2637	-0.5079	61.6583	99.9906	
    78	-0.1213	-0.1716	-0.2929	-0.1238	-0.2156	-0.3391	-0.2521	-0.2805	-0.5322	61.7711	99.9912	
    79	-0.1291	-0.1602	-0.2893	-0.1525	-0.2055	-0.3577	-0.2521	-0.2805	-0.5322	61.8084	99.9905	
    80	-0.1545	-0.1597	-0.3142	-0.1611	-0.2247	-0.3854	-0.2287	-0.3147	-0.5430	61.9967	99.9901	
    81	-0.1114	-0.1494	-0.2608	-0.1372	-0.1960	-0.3330	-0.2074	-0.2769	-0.4838	61.8863	99.9900	
    82	-0.0849	-0.1330	-0.2180	-0.0855	-0.1921	-0.2773	-0.2000	-0.2600	-0.4596	61.8479	99.9908	
    83	-0.0849	-0.1330	-0.2180	-0.0855	-0.1921	-0.2773	-0.1860	-0.2390	-0.4246	61.8143	99.9902	
    84	-0.0728	-0.0772	-0.1500	-0.0293	-0.1156	-0.1446	-0.1799	-0.1374	-0.3169	61.6335	99.9916	
    85	-0.0552	-0.0663	-0.1215	 0.0117	-0.0486	-0.0366	-0.1445	-0.0786	-0.2227	61.5299	99.9928	
    86	-0.1391	-0.0534	-0.1925	-0.0086	-0.0192	-0.0274	-0.1585	-0.0996	-0.2577	61.7188	99.9942	
    87	-0.1822	-0.0637	-0.2459	-0.0229	-0.0141	-0.0367	-0.1819	-0.0654	-0.2468	61.6127	99.9944	
    88	-0.2076	-0.0632	-0.2708	-0.0400	-0.0525	-0.0923	-0.2405	-0.0900	-0.3302	61.6052	99.9947	
    89	-0.2186	-0.1023	-0.3209	-0.0724	-0.1004	-0.1725	-0.2817	-0.1403	-0.4217	61.5990	99.9945	
    90	-0.1921	-0.0860	-0.2781	-0.0985	-0.0467	-0.1449	-0.2794	-0.1023	-0.3813	61.4877	99.9940	
    91	-0.1447	-0.0084	-0.1531	 0.0036	 0.0580	 0.0620	-0.1617	 0.0572	-0.1041	61.3606	99.9940	
    92	-0.0223	 0.1800	 0.1577	 0.2249	 0.3059	 0.5312	 0.1086	 0.3248	 0.4338	61.3607	99.9947	
    93	 0.1674	 0.4905	 0.6579	 0.4890	 0.6499	 1.1392	 0.4225	 0.6808	 1.1037	61.3595	99.9949	
    94	-0.0347	 0.5114	 0.4767	 0.2323	 0.6590	 0.8917	 0.1159	 0.5492	 0.6655	61.4705	99.9958	
    95	-0.5302	 0.0611	-0.4692	-0.3884	 0.1372	-0.2508	-0.7025	 0.0472	-0.6548	61.0213	99.9965	
    96	-0.7180	 0.0424	-0.6756	-0.6451	 0.1464	-0.4983	-0.8642	 0.1044	-0.7594	60.7652	99.9948	
    97	-0.5703	 0.3594	-0.2109	-0.5725	 0.4839	-0.0883	-0.7604	 0.5605	-0.1995	60.1216	99.9922	
    98	-0.4140	 0.9400	 0.5260	-0.2386	 1.1219	 0.8836	-0.3803	 1.2757	 0.8958	59.8738	99.9932	
    99	-0.2000	 1.2332	 1.0331	 0.0677	 1.4361	 1.5041	-0.0828	 1.5726	 1.4903	59.9448	99.9948	
   100	 0.1602	 1.0351	 1.1954	 0.2987	 1.1321	 1.4311	 0.1169	 1.1973	 1.3146	60.4511	99.9936	
   101	 0.2698	 0.7635	 1.0334	 0.4635	 0.8293	 1.2931	 0.1432	 0.8962	 1.0398	60.6138	99.9958	
   102	-0.3634	 0.0185	-0.3450	-0.4788	-0.0161	-0.4946	-1.0624	-0.0202	-1.0821	60.1096	99.9962	
   103	-1.9577	-0.6401	-2.5977	-2.0278	-0.4544	-2.4820	-2.2163	-0.2933	-2.5093	59.5073	99.9910	
   104	-2.7163	-0.8326	-3.5488	-2.8160	-0.4798	-3.2955	-2.8640	-0.2850	-3.1486	58.8752	99.9897	
   105	-2.7505	-0.8375	-3.5880	-2.7177	-0.9073	-3.6248	-3.2548	-0.6527	-3.9071	59.1561	99.9935	
   106	-3.8280	-1.3717	-5.1996	-3.8448	-0.9463	-4.7909	-3.6505	-0.6815	-4.3316	58.9253	99.9859	
   107	-3.7141	-1.4469	-5.1610	-3.6489	-1.1045	-4.7531	-3.7735	-0.9298	-4.7030	59.0384	99.9936	
   108	-4.1248	-1.6351	-5.7600	-4.0995	-1.2566	-5.3557	-4.1762	-1.0729	-5.2487	58.8277	99.9927	
   109	-4.4418	-1.6849	-6.1267	-4.3985	-1.4548	-5.8530	-4.4613	-1.3742	-5.8351	59.5027	99.9926	
   110	-4.6481	-1.8604	-6.5086	-4.5276	-1.5203	-6.0476	-4.4602	-1.2514	-5.7112	59.0784	99.9898	
   111	-4.2927	-1.6093	-5.9021	-3.9610	-1.1573	-5.1179	-3.7904	-0.6839	-4.4740	58.8496	99.9886	
   112	-2.5826	-0.8633	-3.4459	-2.2774	-0.5664	-2.8435	-2.4527	-0.2098	-2.6621	59.2551	99.9942	
   113	-2.3705	-0.8619	-3.2325	-2.2639	-0.5859	-2.8496	-2.5064	-0.2557	-2.7617	58.9420	99.9929	
   114	-2.6266	-1.0196	-3.6462	-2.6071	-0.7834	-3.3902	-2.8677	-0.5560	-3.4233	59.1031	99.9932	
   115	-3.0198	-1.0679	-4.0876	-2.9087	-0.7880	-3.6964	-3.0391	-0.5538	-3.5925	59.2484	99.9927	
   116	-3.1797	-1.3116	-4.4913	-3.0607	-0.8677	-3.9281	-3.0234	-0.7150	-3.7380	59.4669	99.9928	
   117	-3.9758	-1.5595	-5.5353	-3.7749	-1.2379	-5.0124	-3.7342	-1.0151	-4.7489	59.5410	99.9919	
   118	-4.1745	-1.6173	-5.7918	-3.9453	-1.2592	-5.2041	-3.9095	-1.0763	-4.9854	59.5334	99.9933	
   119	-4.2187	-1.6445	-5.8632	-3.9575	-1.3364	-5.2935	-3.9098	-1.1865	-5.0959	59.8667	99.9934	
   120	-4.2032	-1.6673	-5.8705	-3.9575	-1.3364	-5.2935	-3.8950	-1.1528	-5.0474	59.7234	99.9928	
   121	-4.0895	-1.6134	-5.7029	-3.8158	-1.3049	-5.1204	-3.8348	-1.1027	-4.9371	59.6444	99.9939	
   122	-4.0663	-1.6475	-5.7138	-3.8702	-1.3524	-5.2223	-3.9172	-1.2033	-5.1201	59.6520	99.9939	
   123	-4.1690	-1.6623	-5.8313	-3.9543	-1.4042	-5.3582	-4.0404	-1.2441	-5.2840	59.6387	99.9943	
   124	-4.2230	-1.7118	-5.9348	-4.0537	-1.4654	-5.5188	-4.1161	-1.3405	-5.4562	59.7375	99.9937	
   125	-4.3234	-1.8220	-6.1455	-4.2592	-1.5781	-5.8370	-4.3376	-1.4309	-5.7681	59.4400	99.9924	
   126	-4.5586	-1.9183	-6.4769	-4.2574	-1.5491	-5.8062	-4.0726	-1.2521	-5.3244	59.6407	99.9901	
   127	-4.3963	-1.8991	-6.2954	-4.0115	-1.4952	-5.5064	-3.8775	-1.1784	-5.0555	59.6257	99.9924	
   128	-4.3953	-1.7532	-6.1485	-3.9593	-1.3654	-5.3244	-3.8640	-1.0600	-4.9236	59.6295	99.9936	
   129	-3.8531	-1.6293	-5.4825	-3.3095	-1.2022	-4.5114	-3.1830	-0.9374	-4.1201	60.1301	99.9951	
   130	-3.9735	-1.6550	-5.6285	-3.5609	-1.3431	-4.9037	-3.6202	-1.1267	-4.7465	59.8956	99.9958	
   131	-4.3267	-1.8725	-6.1992	-4.1100	-1.5419	-5.6516	-4.1161	-1.3405	-5.4562	59.5423	99.9933	
   132	-4.4307	-1.6459	-6.0766	-4.0194	-1.1515	-5.1706	-3.7305	-0.7440	-4.4741	59.2864	99.9895	
   133	-2.8491	-0.5268	-3.3759	-2.0604	 0.0832	-1.9768	-1.5020	 0.4853	-1.0163	60.3590	99.9912	
   134	-1.0761	 0.2740	-0.8020	-0.4007	 0.6455	 0.2452	-0.5565	 0.8840	 0.3279	60.1984	99.9983	
   135	-1.1290	 0.2414	-0.8876	-0.7478	 0.5014	-0.2461	-0.6912	 0.6528	-0.0380	60.5929	99.9936	
   136	-1.3233	 0.1218	-1.2015	-1.0406	 0.4047	-0.6355	-0.8495	 0.6633	-0.1857	60.2760	99.9884	
   137	-0.6199	 0.2481	-0.3718	-0.4552	 0.3610	-0.0940	-0.4637	 0.5270	 0.0637	60.6627	99.9896	
   138	-0.7783	-0.3662	-1.1445	-0.7626	-0.2048	-0.9671	-0.9415	-0.0175	-0.9586	60.1501	99.9910	
   139	-0.9823	-0.7662	-1.7485	-0.7403	-0.5536	-1.2936	-0.9965	-0.2963	-1.2924	60.2812	99.9948	
   140	-1.0691	-1.1910	-2.2601	-0.8786	-1.0013	-1.8796	-1.3215	-0.7327	-2.0538	60.0717	99.9964	
   141	-1.3824	-1.5777	-2.9601	-1.1827	-1.3978	-2.5802	-1.5658	-1.0938	-2.6592	60.2483	99.9952	
   142	-1.4562	-1.8007	-3.2569	-1.3028	-1.5555	-2.8580	-1.6454	-1.2538	-2.8987	60.1701	99.9949	
   143	-1.6514	-2.0662	-3.7177	-1.5494	-1.9723	-3.5214	-2.0753	-1.7438	-3.8187	60.4237	99.9963	
   144	-2.1768	-2.4542	-4.6310	-2.1705	-2.3828	-4.5530	-2.6958	-2.2314	-4.9268	60.5138	99.9962	
   145	-2.7508	-2.8076	-5.5584	-2.8653	-2.7969	-5.6619	-3.4811	-2.7127	-6.1933	60.3854	99.9965	
   146	-3.3768	-3.0477	-6.4245	-3.6459	-3.0547	-6.7003	-4.3508	-3.0149	-7.3654	59.8583	99.9965	
   147	-4.0903	-3.0671	-7.1574	-4.4480	-3.1863	-7.6340	-5.1045	-3.1831	-8.2872	59.8322	99.9945	
   148	-4.9051	-3.3427	-8.2478	-5.3743	-3.4222	-8.7962	-5.8817	-3.4273	-9.3086	59.5499	99.9911	
   149	-5.4293	-3.8430	-9.2723	-5.6649	-3.8383	-9.5030	-6.1738	-3.8429	-10.0162	59.8893	99.9953	
   150	-5.0988	-4.1078	-9.2065	-5.2352	-4.0198	-9.2547	-5.6667	-4.0739	-9.7402	60.5784	99.9961	
   151	-4.4683	-3.9295	-8.3978	-4.6170	-3.8899	-8.5066	-5.0172	-3.9467	-8.9635	61.0074	99.9952	
   152	-3.6217	-3.2954	-6.9171	-3.7247	-3.2566	-6.9809	-4.0155	-3.3539	-7.3690	61.4720	99.9944	
   153	-3.0279	-2.8975	-5.9254	-3.0956	-2.9527	-6.0479	-3.4711	-3.0729	-6.5435	61.7585	99.9954	
   154	-2.9816	-2.8367	-5.8183	-3.0461	-2.8664	-5.9122	-3.4533	-2.9884	-6.4412	61.6032	99.9959	
   155	-3.0335	-2.8525	-5.8860	-3.1036	-2.8461	-5.9494	-3.5454	-2.9364	-6.4814	61.2887	99.9963	
   156	-3.0843	-2.8515	-5.9358	-3.1593	-2.7967	-5.9558	-3.5820	-2.9105	-6.4920	61.2134	99.9963	
   157	-3.0877	-2.7728	-5.8605	-3.1251	-2.7199	-5.8447	-3.5393	-2.8348	-6.3736	61.2611	99.9965	
   158	-3.0403	-2.6952	-5.7354	-2.9799	-2.6304	-5.6100	-3.3185	-2.7571	-6.0753	61.6015	99.9966	
   159	-3.2233	-3.0339	-6.2572	-3.3442	-3.0501	-6.3940	-3.8602	-3.0975	-6.9573	60.9840	99.9963	
   160	-3.7369	-2.9787	-6.7157	-3.6247	-2.8324	-6.4568	-4.0427	-2.8579	-6.9002	60.8055	99.9975	
   161	-3.2745	-2.6456	-5.9201	-3.3058	-2.5523	-5.8578	-3.8735	-2.3730	-6.2461	59.7122	99.9964	
   162	-3.6455	-2.7448	-6.3903	-3.7311	-2.5354	-6.2662	-4.0520	-2.2775	-6.3291	59.4086	99.9923	
   163	-3.5474	-2.5391	-6.0865	-3.7562	-2.4673	-6.2232	-4.1858	-2.1783	-6.3638	59.1223	99.9897	
   164	-3.4017	-2.3849	-5.7866	-3.6829	-2.3524	-6.0349	-4.0281	-2.0914	-6.1191	59.3232	99.9864	
   165	-3.3883	-2.5704	-5.9587	-3.6142	-2.5471	-6.1610	-4.0777	-2.2814	-6.3587	59.3416	99.9898	
   166	-3.4046	-2.8226	-6.2272	-3.4740	-2.6559	-6.1296	-3.9408	-2.3298	-6.2702	59.2397	99.9932	
   167	-3.2742	-2.9038	-6.1780	-3.1845	-2.7286	-5.9127	-3.6752	-2.4560	-6.1308	59.8062	99.9963	
   168	-3.3026	-3.2119	-6.5146	-3.2579	-3.0806	-6.3382	-3.7846	-2.7935	-6.5777	59.9291	99.9957	
   169	-3.3941	-3.4458	-6.8399	-3.3655	-3.2723	-6.6375	-3.8782	-2.9744	-6.8522	59.8847	99.9956	
   170	-3.4094	-3.5522	-6.9616	-3.3489	-3.3597	-6.7083	-3.8427	-3.1231	-6.9654	60.1952	99.9966	
   171	-3.5407	-3.7460	-7.2867	-3.5549	-3.5982	-7.1528	-4.1227	-3.4457	-7.5680	60.3340	99.9972	
   172	-3.9622	-4.1024	-8.0647	-4.0839	-4.0634	-8.1470	-4.7770	-3.9668	-8.7433	60.3577	99.9975	
   173	-4.5782	-4.4493	-9.0276	-4.7742	-4.4050	-9.1789	-5.4446	-4.2886	-9.7327	60.0697	99.9967	
   174	-5.0651	-4.6361	-9.7012	-5.3385	-4.6132	-9.9514	-6.0540	-4.4883	-10.5418	59.6875	99.9963	
   175	-5.5035	-4.7283	-10.2318	-5.8408	-4.7693	-10.6097	-6.5849	-4.6509	-11.2353	59.5070	99.9956	
   176	-5.7510	-4.6223	-10.3734	-6.1379	-4.7013	-10.8389	-6.8096	-4.5844	-11.3936	59.4554	99.9934	
   177	-5.8859	-4.4793	-10.3652	-6.2952	-4.6309	-10.9258	-6.9356	-4.5659	-11.5010	59.6833	99.9925	
   178	-6.2360	-4.5172	-10.7532	-6.5789	-4.5826	-11.1612	-7.1382	-4.4489	-11.5867	59.3495	99.9920	
   179	-6.3488	-4.4252	-10.7739	-6.5828	-4.2922	-10.8747	-7.0525	-4.1874	-11.2394	59.1343	99.9948	
   180	-6.0152	-4.3813	-10.3966	-6.1606	-4.2413	-10.4015	-6.7411	-4.1871	-10.9278	59.3859	99.9973	
   181	-5.1507	-4.1236	-9.2742	-5.2231	-3.9426	-9.1653	-5.7126	-3.9928	-9.7051	60.2688	99.9972	
   182	-4.3027	-3.8599	-8.1626	-4.3876	-3.7486	-8.1359	-4.8668	-3.8766	-8.7431	61.0136	99.9969	
   183	-3.7927	-3.5782	-7.3709	-3.7958	-3.4538	-7.2493	-4.1774	-3.6144	-7.7914	61.5410	99.9966	
   184	-3.3897	-3.3786	-6.7683	-3.4918	-3.2944	-6.7859	-3.9132	-3.4484	-7.3612	61.4187	99.9963	
   185	-3.3479	-3.2559	-6.6038	-3.4158	-3.1360	-6.5514	-3.8351	-3.3139	-7.1486	61.3907	99.9965	
   186	-3.2563	-3.1511	-6.4074	-3.3137	-3.0312	-6.3446	-3.7287	-3.2347	-6.9630	61.4748	99.9964	
   187	-3.1813	-3.0404	-6.2217	-3.2228	-2.9892	-6.2117	-3.7307	-3.1627	-6.8930	61.3864	99.9972	
   188	-3.0809	-2.9301	-6.0110	-3.1666	-2.9127	-6.0790	-3.7144	-3.1036	-6.8176	61.3357	99.9973	
   189	-3.0854	-2.8683	-5.9537	-3.0703	-2.7837	-5.8537	-3.5703	-2.9276	-6.4975	61.2539	99.9974	
   190	-2.8786	-3.0801	-5.9587	-3.1168	-3.1749	-6.2914	-3.9167	-3.4018	-7.3181	61.1410	99.9980	
   191	-4.2827	-3.9445	-8.2272	-4.4506	-3.8153	-8.2656	-5.0916	-3.8102	-8.9014	60.0690	99.9976	
   192	-5.1475	-3.9440	-9.0916	-5.2315	-3.7247	-8.9558	-5.7495	-3.5518	-9.3009	59.2286	99.9967	
   193	-5.2440	-3.5997	-8.8437	-5.2272	-3.3038	-8.5307	-5.6154	-3.0156	-8.6306	58.8469	99.9955	
   194	-4.8267	-3.3106	-8.1373	-4.7865	-3.0741	-7.8603	-5.1152	-2.8356	-7.9505	59.3908	99.9949	
   195	-4.8201	-3.3388	-8.1589	-4.9884	-3.1287	-8.1168	-5.2610	-2.8295	-8.0901	58.9709	99.9896	
   196	-4.6511	-3.3478	-7.9989	-4.9745	-3.2596	-8.2339	-5.4168	-2.9885	-8.4048	58.8011	99.9891	
   197	-4.4457	-3.3182	-7.7639	-4.6616	-3.1923	-7.8536	-5.1117	-2.8823	-7.9936	58.8899	99.9907	
   198	-4.2677	-3.4508	-7.7186	-4.4611	-3.2780	-7.7388	-5.0751	-2.9082	-7.9829	58.4453	99.9936	
   199	-4.1903	-3.5646	-7.7549	-4.2674	-3.3538	-7.6209	-4.9853	-2.9983	-7.9831	58.5311	99.9970	
   200	-4.1891	-3.6769	-7.8660	-4.1694	-3.4329	-7.6020	-4.8382	-3.0891	-7.9270	58.8794	99.9977	
   201	-4.1614	-3.7729	-7.9343	-4.0953	-3.5406	-7.6356	-4.7946	-3.2083	-8.0025	59.0732	99.9983	
   202	-4.2275	-3.8782	-8.1058	-4.1237	-3.6418	-7.7651	-4.7269	-3.3490	-8.0754	59.5207	99.9980	
   203	-4.2285	-4.0241	-8.2526	-4.1795	-3.8295	-8.0088	-4.8748	-3.5885	-8.4629	59.5886	99.9986	
   204	-4.8298	-4.6688	-9.4986	-5.0760	-4.6467	-9.7224	-5.9163	-4.5239	-10.4398	59.6366	99.9979	
   205	-6.1312	-5.5184	-11.6496	-6.3582	-5.5202	-11.8781	-7.1488	-5.3595	-12.5078	59.6338	99.9972	
   206	-6.7925	-5.7802	-12.5728	-7.0012	-5.6933	-12.6941	-7.7543	-5.4957	-13.2496	59.1644	99.9974	
   207	-6.9353	-5.4967	-12.4320	-7.1507	-5.3810	-12.5314	-7.8529	-5.1301	-12.9827	58.6974	99.9964	
   208	-6.5570	-4.8925	-11.4495	-6.9234	-4.9203	-11.8435	-7.6674	-4.7936	-12.4606	58.8587	99.9955	
   209	-6.7184	-4.7658	-11.4842	-7.2309	-4.9006	-12.1313	-7.9729	-4.8024	-12.7749	58.7527	99.9927	
   210	-7.1337	-4.7631	-11.8968	-7.6067	-4.7975	-12.4039	-8.2273	-4.5958	-12.8227	58.2222	99.9905	
   211	-7.2543	-4.5306	-11.7849	-7.4482	-4.3792	-11.8271	-7.9940	-4.2049	-12.1984	58.3078	99.9959	
   212	-6.8083	-4.3206	-11.1289	-7.0250	-4.0766	-11.1014	-7.5727	-3.9646	-11.5370	58.2640	99.9967	
   213	-5.8125	-3.8690	-9.6815	-5.9665	-3.6058	-9.5720	-6.5300	-3.6392	-10.1688	59.0217	99.9972	
   214	-5.2108	-3.6116	-8.8224	-5.3177	-3.4571	-8.7744	-5.8844	-3.5755	-9.4595	59.8879	99.9974	
   215	-4.6951	-3.5040	-8.1992	-4.8401	-3.3442	-8.1840	-5.3604	-3.5272	-8.8872	60.3106	99.9967	
   216	-4.7314	-3.6717	-8.4031	-5.0003	-3.5544	-8.5544	-5.5644	-3.6432	-9.2071	59.8763	99.9965	
   217	-4.5526	-3.5293	-8.0820	-4.7664	-3.3406	-8.1067	-5.3118	-3.4600	-8.7715	59.9111	99.9967	
   218	-4.2524	-3.3445	-7.5969	-4.4872	-3.2243	-7.7112	-5.0845	-3.3782	-8.4623	60.1034	99.9969	
   219	-4.0139	-3.1977	-7.2117	-4.3315	-3.0866	-7.4178	-4.9653	-3.1934	-8.1583	59.7414	99.9968	
   220	-3.8539	-3.0831	-6.9370	-4.2312	-3.0109	-7.2418	-4.9439	-3.1555	-8.0991	59.6734	99.9970	
   221	-3.8937	-3.0430	-6.9367	-4.2744	-2.9956	-7.2697	-4.9813	-3.1424	-8.1232	59.7096	99.9969	
   222	-3.8661	-3.0098	-6.8760	-4.2564	-2.9427	-7.1988	-4.9876	-3.0364	-8.0235	59.3942	99.9970	
   223	-3.8593	-3.1671	-7.0265	-4.3306	-3.0721	-7.4024	-5.0255	-3.2435	-8.2686	59.5725	99.9963	
   224	-5.5968	-4.2045	-9.8013	-6.1088	-4.0002	-10.1086	-6.8824	-3.8973	-10.7793	57.8327	99.9964	
   225	-6.8406	-4.0337	-10.8743	-7.0716	-3.6452	-10.7164	-7.4833	-3.4321	-10.9150	57.5483	99.9951	
   226	-6.7526	-3.7211	-10.4737	-6.8053	-3.3835	-10.1885	-7.2177	-3.0331	-10.2504	57.5176	99.9950	
   227	-5.9589	-3.2487	-9.2076	-5.9495	-2.9819	-8.9311	-6.2629	-2.6896	-8.9520	58.3998	99.9941	
   228	-5.7126	-3.2424	-8.9550	-6.0174	-3.0097	-9.0269	-6.4358	-2.7127	-9.1482	57.6683	99.9910	
   229	-5.2809	-3.1219	-8.4028	-5.6640	-3.0012	-8.6649	-6.2415	-2.6517	-8.8928	57.4663	99.9899	
   230	-4.9164	-3.1236	-8.0400	-5.2755	-2.9013	-8.1765	-5.9123	-2.5670	-8.4789	57.3398	99.9933	
   231	-4.8169	-3.1592	-7.9762	-5.0525	-2.8615	-7.9138	-5.6939	-2.5274	-8.2209	57.4733	99.9957	
   232	-4.8523	-3.1810	-8.0332	-4.9338	-2.8442	-7.7777	-5.5267	-2.4957	-8.0221	57.7724	99.9967	
   233	-4.7551	-3.1212	-7.8763	-4.7310	-2.7750	-7.5058	-5.3375	-2.4134	-7.7505	57.9278	99.9977	
   234	-4.7286	-3.1049	-7.8335	-4.6582	-2.7859	-7.4438	-5.2966	-2.4733	-7.7695	58.1936	99.9984	
   235	-4.9350	-3.2804	-8.2154	-4.9200	-2.9751	-7.8947	-5.5596	-2.7240	-8.2832	58.3021	99.9984	
   236	-5.1392	-3.4222	-8.5614	-5.0756	-3.1128	-8.1881	-5.6808	-2.8368	-8.5173	58.3879	99.9983	
   237	-5.3987	-3.5012	-8.8999	-5.2942	-3.3171	-8.6110	-5.9556	-3.3882	-9.3434	59.7173	99.9979	
   238	-6.6843	-4.6318	-11.3161	-6.9668	-4.5567	-11.5232	-7.7617	-4.4620	-12.2233	58.4282	99.9979	
   239	-7.6194	-5.0621	-12.6815	-7.8541	-4.9917	-12.8455	-8.6719	-4.8019	-13.4733	57.9547	99.9980	
   240	-8.0524	-5.0703	-13.1227	-8.3333	-4.8965	-13.2295	-9.0622	-4.7418	-13.8036	57.5751	99.9977	
   241	-8.3154	-4.9416	-13.2569	-8.8094	-4.8691	-13.6782	-9.6570	-4.7002	-14.3568	56.7689	99.9964	
   242	-8.5808	-4.5883	-13.1690	-9.1397	-4.6264	-13.7658	-9.9479	-4.4678	-14.4153	56.6465	99.9940	
   243	-8.5525	-4.1510	-12.7035	-9.1125	-4.1914	-13.3036	-9.8383	-4.0202	-13.8580	56.4928	99.9922	
   244	-8.6807	-4.0362	-12.7169	-9.2158	-3.9622	-13.1777	-9.8971	-3.8373	-13.7339	56.2764	99.9942	
   245	-8.7980	-3.8823	-12.6803	-9.1756	-3.6725	-12.8478	-9.8472	-3.5372	-13.3839	56.0348	99.9967	
   246	-8.4900	-3.7089	-12.1988	-8.9035	-3.4352	-12.3384	-9.5405	-3.4056	-12.9457	56.2269	99.9967	
   247	-7.7691	-3.3135	-11.0827	-8.0446	-3.1013	-11.1456	-8.6937	-3.1665	-11.8598	57.1790	99.9974	
   248	-7.1332	-3.0512	-10.1844	-7.4146	-2.7829	-10.1972	-7.9666	-2.8074	-10.7736	57.2876	99.9967	
   249	-6.4190	-2.6277	-9.0467	-6.7152	-2.2963	-9.0112	-7.1354	-2.4072	-9.5422	57.7514	99.9954	
   250	-5.9951	-2.3667	-8.3618	-6.2660	-2.0474	-8.3131	-6.7647	-2.1621	-8.9264	57.7351	99.9960	
   251	-5.2478	-1.9551	-7.2029	-5.4916	-1.6540	-7.1453	-6.1317	-1.8864	-8.0177	58.0276	99.9954	
   252	-4.9299	-1.7594	-6.6893	-5.3130	-1.5022	-6.8149	-6.1108	-1.7511	-7.8615	57.5641	99.9956	
   253	-5.0504	-1.6559	-6.7063	-5.3921	-1.3557	-6.7475	-6.1051	-1.5521	-7.6568	57.4154	99.9959	
   254	-5.0130	-1.4715	-6.4845	-5.2800	-1.0915	-6.3711	-5.9211	-1.2410	-7.1617	57.2566	99.9958	
   255	-4.6595	-1.5122	-6.1717	-5.1219	-1.3845	-6.5060	-6.1765	-1.6825	-7.8586	57.3000	99.9957	
   256	-6.0117	-2.3608	-8.3725	-6.6144	-2.0948	-8.7089	-7.5305	-2.2157	-9.7458	56.1118	99.9969	
   257	-7.5930	-2.6884	-10.2814	-8.0473	-2.3222	-10.3692	-8.5718	-2.3082	-10.8797	55.9549	99.9955	
   258	-8.2955	-2.6688	-10.9643	-8.5243	-2.3093	-10.8333	-8.9854	-2.4215	-11.4065	56.6146	99.9960	
   259	-8.4127	-2.5149	-10.9276	-8.6025	-2.1483	-10.7505	-9.0559	-2.2215	-11.2770	56.3958	99.9963	
   260	-8.3133	-2.5505	-10.8638	-8.7073	-2.2965	-11.0035	-9.3688	-2.2471	-11.6155	55.4453	99.9970	
   261	-8.3365	-2.5164	-10.8529	-8.7689	-2.2229	-10.9914	-9.3779	-2.0818	-11.4593	55.0338	99.9959	
   262	-8.2980	-2.3151	-10.6132	-8.7454	-2.0830	-10.8281	-9.2315	-1.8677	-11.0987	55.1353	99.9924	
   263	-8.3258	-2.2191	-10.5449	-8.9764	-2.0161	-10.9923	-9.4084	-1.7468	-11.1548	54.5995	99.9861	
   264	-7.9959	-1.8384	-9.8343	-8.6417	-1.6008	-10.2423	-9.0798	-1.3571	-10.4365	54.4967	99.9876	
   265	-7.6448	-1.6546	-9.2994	-8.2060	-1.3324	-9.5380	-8.6967	-1.1163	-9.8127	54.4907	99.9918	
   266	-7.6360	-1.6492	-9.2852	-8.0292	-1.2095	-9.2384	-8.5277	-0.9491	-9.4764	54.3982	99.9947	
   267	-7.6603	-1.6319	-9.2922	-7.9357	-1.1240	-9.0594	-8.4820	-0.8226	-9.3042	54.2156	99.9965	
   268	-7.8227	-1.6511	-9.4737	-8.0121	-1.1711	-9.1829	-8.5612	-0.8724	-9.4332	54.4215	99.9971	
   269	-7.9696	-1.5639	-9.5336	-8.0048	-1.0551	-9.0596	-8.4731	-0.7803	-9.2530	54.8209	99.9976	
   270	-8.1154	-1.5891	-9.7045	-8.1397	-1.0964	-9.2358	-8.5531	-0.8428	-9.3955	55.0180	99.9973	
   271	-8.3572	-1.6572	-10.0145	-8.4820	-1.2793	-9.7610	-9.0213	-1.1249	-10.1458	55.0122	99.9977	
   272	-9.2225	-2.3191	-11.5416	-9.5299	-2.0503	-11.5799	-10.1745	-1.9106	-12.0847	54.6214	99.9973	
   273	-10.5054	-2.8828	-13.3882	-10.7827	-2.5711	-13.3535	-11.3898	-2.3566	-13.7460	54.0189	99.9972	
   274	-10.8040	-2.5176	-13.3216	-11.0985	-2.0964	-13.1946	-11.6237	-1.9173	-13.5406	53.4859	99.9969	
   275	-10.5682	-1.8881	-12.4563	-11.1090	-1.5591	-12.6678	-11.7103	-1.4587	-13.1687	52.8656	99.9957	
   276	-10.6823	-1.5546	-12.2369	-11.3827	-1.3513	-12.7337	-12.0191	-1.3107	-13.3294	52.6018	99.9942	
   277	-10.9332	-1.3700	-12.3032	-11.6600	-1.2014	-12.8611	-12.2276	-1.1852	-13.4124	52.5881	99.9928	
   278	-11.4170	-1.3772	-12.7942	-12.0997	-1.1795	-13.2788	-12.6684	-1.1202	-13.7883	52.1540	99.9933	
   279	-11.7109	-1.2029	-12.9139	-12.2569	-0.8720	-13.1285	-12.8110	-0.7456	-13.5562	51.6087	99.9951	
   280	-11.6162	-0.9186	-12.5348	-12.1654	-0.4670	-12.6321	-12.7988	-0.3349	-13.1334	50.8589	99.9964	
   281	-11.1527	-0.5686	-11.7213	-11.7444	-0.0822	-11.8263	-12.4208	-0.0729	-12.4933	50.9570	99.9962	
   282	-10.5765	-0.1816	-10.7581	-11.1597	 0.3338	-10.8256	-11.7590	 0.2574	-11.5012	51.4615	99.9952	
   283	-10.1185	 0.2134	-9.9052	-10.6267	 0.7457	-9.8807	-11.1638	 0.6437	-10.5197	51.8630	99.9949	
   284	-9.6517	 0.6138	-9.0379	-10.0965	 1.1142	-8.9820	-10.5906	 0.9794	-9.6108	52.3455	99.9949	
   285	-9.1572	 0.9182	-8.2390	-9.6580	 1.4262	-8.2315	-10.1318	 1.3166	-8.8148	52.2602	99.9947	
   286	-8.9541	 1.0432	-7.9108	-9.4929	 1.5976	-7.8950	-9.9496	 1.4922	-8.4570	52.1003	99.9943	
   287	-8.6405	 1.1717	-7.4689	-9.1916	 1.7135	-7.4778	-9.6752	 1.6157	-8.0591	52.1271	99.9945	
   288	-8.3479	 1.2388	-7.1091	-8.9659	 1.7968	-7.1688	-9.5268	 1.7578	-7.7686	51.6838	99.9949	
   289	-8.2188	 1.3990	-6.8198	-8.8804	 1.9889	-6.8912	-9.4904	 1.9395	-7.5505	51.3554	99.9948	
   290	-8.1748	 1.5553	-6.6195	-8.9270	 2.1832	-6.7435	-9.5361	 2.1307	-7.4049	50.9421	99.9942	
   291	-8.2346	 1.6799	-6.5546	-9.0146	 2.3105	-6.7038	-9.6485	 2.2677	-7.3804	50.6431	99.9943	
   292	-8.4048	 1.8012	-6.6036	-9.1971	 2.4491	-6.7477	-9.8313	 2.3971	-7.4338	50.3884	99.9941	
   293	-8.6744	 1.9582	-6.7163	-9.4514	 2.6131	-6.8381	-10.0557	 2.5737	-7.4816	50.1589	99.9941	
   294	-8.8823	 2.1531	-6.7291	-9.6266	 2.8677	-6.7587	-10.2600	 2.8729	-7.3868	49.5923	99.9945	
   295	-9.2492	 2.3794	-6.8698	-9.9502	 3.1006	-6.8493	-10.5723	 3.0675	-7.5044	49.4224	99.9943	
   296	-9.7751	 2.5077	-7.2673	-10.4658	 3.2012	-7.2643	-11.0276	 3.2089	-7.8183	49.1274	99.9945	
   297	-10.0889	 2.6375	-7.4514	-10.7306	 3.3170	-7.4133	-11.2691	 3.3137	-7.9550	49.0875	99.9946	
   298	-10.1728	 2.6504	-7.5224	-10.7966	 3.3181	-7.4782	-11.2465	 3.2668	-7.9794	49.4729	99.9939	
   299	-9.6688	 2.3148	-7.3540	-10.4102	 2.9148	-7.4951	-11.1502	 2.8631	-8.2867	49.1706	99.9952	
   300	-10.3132	 1.6597	-8.6535	-11.1392	 2.4238	-8.7151	-11.8836	 2.6100	-9.2732	47.7879	99.9956	
   301	-10.5662	 1.6816	-8.8845	-11.2920	 2.5668	-8.7250	-11.8947	 2.8473	-9.0469	47.6356	99.9951	
   302	-10.5730	 1.8389	-8.7340	-11.2955	 2.7459	-8.5494	-11.8244	 3.0624	-8.7616	47.5658	99.9944	
   303	-10.0286	 1.9964	-8.0322	-10.7933	 2.9019	-7.8911	-11.3787	 3.1838	-8.1945	47.6688	99.9946	
   304	-9.7747	 2.1205	-7.6542	-10.6750	 3.0305	-7.6441	-11.3227	 3.2678	-8.0546	47.3410	99.9942	
   305	-9.6941	 2.1862	-7.5079	-10.6453	 3.0349	-7.6101	-11.4098	 3.2985	-8.1109	46.9977	99.9949	
   306	-9.9029	 2.2353	-7.6676	-10.9590	 3.1902	-7.7685	-11.6973	 3.4844	-8.2125	46.2190	99.9939	
   307	-10.4376	 2.3582	-8.0794	-11.4184	 3.3673	-8.0508	-12.0344	 3.6878	-8.3462	46.0765	99.9933	
   308	-10.9425	 2.5479	-8.3946	-11.8426	 3.6358	-8.2066	-12.3636	 4.1284	-8.2349	45.3826	99.9925	
   309	-11.3009	 3.0378	-8.2631	-11.9786	 4.1655	-7.8127	-12.3555	 4.6832	-7.6719	45.6247	99.9931	
   310	-11.4338	 3.4726	-7.9612	-12.0269	 4.5680	-7.4586	-12.3040	 5.0087	-7.2950	46.0366	99.9929	
   311	-11.4507	 3.7368	-7.7139	-12.0920	 4.8207	-7.2710	-12.3831	 5.2765	-7.1062	45.6760	99.9925	
   312	-11.5569	 3.9297	-7.6272	-12.2065	 4.9872	-7.2191	-12.5453	 5.4311	-7.1138	45.4308	99.9930	
   313	-11.6046	 4.1103	-7.4943	-12.2577	 5.1090	-7.1484	-12.5722	 5.5120	-7.0599	45.6052	99.9926	
   314	-11.6908	 4.2186	-7.4722	-12.3524	 5.3574	-6.9948	-12.6328	 5.8770	-6.7553	44.8544	99.9920	
   315	-11.6347	 4.4308	-7.2039	-12.2440	 5.5636	-6.6800	-12.4856	 6.1039	-6.3813	44.9602	99.9918	
   316	-11.5200	 4.6306	-6.8894	-12.1184	 5.8083	-6.3098	-12.3237	 6.3644	-5.9589	44.8746	99.9915	
   317	-11.4915	 4.8096	-6.6819	-12.0972	 6.0305	-6.0663	-12.3126	 6.6523	-5.6599	44.4469	99.9913	
   318	-11.6022	 5.0644	-6.5378	-12.1739	 6.3318	-5.8417	-12.3397	 6.9407	-5.3986	44.3447	99.9914	
   319	-11.6788	 5.4532	-6.2255	-12.1953	 6.6951	-5.4998	-12.3392	 7.3685	-4.9703	44.1508	99.9910	
   320	-11.6813	 5.8069	-5.8744	-12.1974	 7.0145	-5.1825	-12.3612	 7.6357	-4.7251	44.0998	99.9916	
   321	-11.6935	 5.8801	-5.8135	-12.2877	 7.0983	-5.1891	-12.4386	 7.7214	-4.7168	43.8403	99.9904	
   322	-11.6152	 5.9122	-5.7030	-12.1870	 7.0628	-5.1239	-12.3363	 7.6269	-4.7090	44.2650	99.9907	
   323	-11.5310	 5.6411	-5.8898	-12.0999	 6.8097	-5.2900	-12.2284	 7.4137	-4.8143	44.4048	99.9901	
   324	-11.2681	 5.6415	-5.6266	-11.8332	 6.9600	-4.8729	-11.9690	 7.7111	-4.2575	43.8062	99.9898	
   325	-10.7929	 5.3850	-5.4079	-11.3532	 6.6422	-4.7108	-11.6009	 7.2828	-4.3178	44.4468	99.9924	
   326	-10.5253	 5.0653	-5.4600	-11.0688	 6.3712	-4.6973	-11.3173	 7.0334	-4.2835	44.6868	99.9927	
   327	-10.1926	 4.8342	-5.3584	-10.8689	 6.1598	-4.7088	-11.2499	 6.7826	-4.4669	44.4092	99.9933	
   328	-10.0964	 4.7481	-5.3484	-10.7975	 6.0086	-4.7886	-11.1934	 6.5616	-4.6313	44.7767	99.9933	
   329	-9.9859	 4.6224	-5.3635	-10.7184	 5.8621	-4.8560	-11.1673	 6.4681	-4.6987	44.6233	99.9933	
   330	-9.8311	 4.5239	-5.3073	-10.6061	 5.7779	-4.8279	-11.0584	 6.3778	-4.6802	44.6480	99.9930	
   331	-9.8587	 4.4907	-5.3680	-10.6721	 5.7790	-4.8928	-11.0929	 6.3316	-4.7609	44.6661	99.9926	
   332	-9.9559	 4.4309	-5.5249	-10.7801	 5.6986	-5.0812	-11.2301	 6.2698	-4.9599	44.5367	99.9927	
   333	-10.0696	 4.3771	-5.6925	-10.9438	 5.6675	-5.2760	-11.4213	 6.2596	-5.1614	44.1706	99.9925	
   334	-10.2319	 4.3579	-5.8740	-11.0863	 5.6215	-5.4645	-11.5862	 6.2660	-5.3198	43.9973	99.9926	
   335	-10.4474	 4.4352	-6.0122	-11.3407	 5.7855	-5.5549	-11.7916	 6.4423	-5.3489	43.5669	99.9919	
   336	-10.5801	 4.6118	-5.9683	-11.3770	 6.0280	-5.3486	-11.8198	 6.8154	-5.0040	43.1357	99.9923	
   337	-10.6974	 4.8948	-5.8026	-11.4298	 6.3580	-5.0715	-11.7998	 7.1455	-4.6539	43.1263	99.9923	
   338	-10.8435	 5.1278	-5.7156	-11.5246	 6.6064	-4.9179	-11.9023	 7.4476	-4.4543	42.8223	99.9927	
   339	-10.9917	 5.3272	-5.6644	-11.6220	 6.8113	-4.8104	-11.9398	 7.6684	-4.2710	42.8399	99.9923	
   340	-11.1510	 5.6167	-5.5343	-11.7563	 7.1329	-4.6231	-11.9902	 7.9909	-3.9988	42.7603	99.9916	
   341	-11.2064	 5.8086	-5.3978	-11.8155	 7.3613	-4.4539	-11.9977	 8.1816	-3.8156	42.7357	99.9913	
   342	-11.2441	 6.0114	-5.2327	-11.7614	 7.5201	-4.2410	-11.9267	 8.4095	-3.5169	42.8114	99.9912	
   343	-11.0046	 6.1750	-4.8296	-11.4902	 7.7429	-3.7470	-11.5922	 8.5831	-3.0087	43.0972	99.9915	
   344	-10.7993	 6.3337	-4.4656	-11.2398	 7.8694	-3.3701	-11.3894	 8.7838	-2.6052	43.0268	99.9918	
   345	-10.7189	 6.5285	-4.1904	-11.1744	 8.0909	-3.0833	-11.2818	 8.9857	-2.2957	43.0158	99.9914	
   346	-10.6893	 6.7244	-3.9649	-11.1321	 8.2982	-2.8336	-11.2116	 9.2008	-2.0104	42.9755	99.9911	
   347	-10.6607	 6.9034	-3.7573	-11.0983	 8.4864	-2.6116	-11.1760	 9.3698	-1.8058	42.9305	99.9914	
   348	-10.6499	 7.0716	-3.5783	-11.0788	 8.6796	-2.3989	-11.1198	 9.5640	-1.5554	42.8907	99.9911	
   349	-10.5141	 7.2036	-3.3105	-10.8580	 8.8017	-2.0560	-10.8579	 9.6919	-1.1656	43.2357	99.9913	
   350	-10.1640	 7.2415	-2.9225	-10.5068	 8.8925	-1.6140	-10.4774	 9.7844	-0.6925	43.3851	99.9912	
   351	-9.9509	 7.2597	-2.6912	-10.3270	 8.9476	-1.3791	-10.2612	 9.7859	-0.4750	43.5610	99.9909	
   352	-9.8792	 7.3200	-2.5591	-10.2083	 8.9649	-1.2431	-10.2045	 9.8826	-0.3216	43.4447	99.9914	
   353	-9.8008	 7.3521	-2.4487	-10.1309	 9.0265	-1.1041	-10.0879	 9.9192	-0.1684	43.5620	99.9912	
   354	-9.7478	 7.3847	-2.3630	-10.0572	 9.0301	-1.0268	-10.0359	 9.9397	-0.0958	43.6041	99.9915	
   355	-9.7445	 7.4352	-2.3093	-10.0153	 9.1116	-0.9034	-9.9792	10.0364	 0.0576	43.5985	99.9918	
   356	-9.4563	 7.4350	-2.0212	-9.6840	 9.1206	-0.5631	-9.5652	10.0522	 0.4874	44.0584	99.9909	
   357	-9.1260	 7.4284	-1.6976	-9.3527	 9.1295	-0.2229	-9.2507	10.1032	 0.8529	44.0930	99.9909	
   358	-8.9923	 7.3977	-1.5946	-9.2502	 9.1229	-0.1269	-9.1228	10.0126	 0.8903	44.3265	99.9910	
   359	-8.9105	 7.3512	-1.5594	-9.1513	 9.0583	-0.0926	-9.0357	 9.9819	 0.9466	44.3804	99.9910	
   360	-8.8443	 7.3274	-1.5169	-9.0794	 9.0329	-0.0461	-8.9486	 9.9511	 1.0029	44.5045	99.9908	
   361	-8.7934	 7.3264	-1.4671	-8.9643	 8.9923	 0.0283	-8.8366	 9.9115	 1.0753	44.7811	99.9913	
   362	-8.6587	 7.3125	-1.3462	-8.8150	 9.0285	 0.2138	-8.5890	 9.9083	 1.3198	45.1231	99.9906	
   363	-8.2522	 7.3043	-0.9479	-8.3304	 9.0203	 0.6902	-8.0630	 9.8846	 1.8220	45.7058	99.9910	
   364	-7.9517	 7.2310	-0.7207	-8.0283	 8.9136	 0.8855	-7.8141	 9.7967	 1.9830	45.8449	99.9914	
   365	-7.8037	 7.1607	-0.6430	-7.8863	 8.8337	 0.9477	-7.6547	 9.7015	 2.0472	46.0649	99.9911	
   366	-7.6732	 7.0795	-0.5938	-7.7663	 8.7543	 0.9883	-7.5143	 9.6065	 2.0926	46.2501	99.9908	
   367	-7.5594	 7.0042	-0.5552	-7.6243	 8.6745	 1.0505	-7.3548	 9.5112	 2.1568	46.5212	99.9909	
   368	-7.4611	 6.9518	-0.5093	-7.5110	 8.6048	 1.0941	-7.2304	 9.4673	 2.2372	46.6529	99.9905	
   369	-7.1584	 6.9120	-0.2463	-7.0934	 8.5832	 1.4902	-6.7316	 9.4142	 2.6830	47.3512	99.9910	
   370	-6.7066	 6.8188	 0.1123	-6.6025	 8.4394	 1.8372	-6.2748	 9.2982	 3.0238	47.7422	99.9913	
   371	-6.4789	 6.6683	 0.1895	-6.3854	 8.2664	 1.8813	-6.0993	 9.1519	 3.0530	47.8352	99.9914	
   372	-6.3186	 6.5248	 0.2062	-6.1684	 8.0934	 1.9253	-5.8516	 8.9412	 3.0900	48.3814	99.9917	
   373	-6.1749	 6.3872	 0.2124	-6.0444	 7.9606	 1.9165	-5.7033	 8.7656	 3.0627	48.6518	99.9914	
   374	-6.0400	 6.2442	 0.2042	-5.9011	 7.7840	 1.8832	-5.5960	 8.6498	 3.0543	48.6862	99.9913	
   375	-5.8577	 6.1788	 0.3212	-5.5972	 7.7063	 2.1094	-5.1932	 8.5854	 3.3926	49.3291	99.9909	
   376	-5.3120	 6.0950	 0.7830	-5.0069	 7.6237	 2.6171	-4.5225	 8.4327	 3.9106	50.1404	99.9908	
   377	-4.9495	 5.9306	 0.9810	-4.6586	 7.4340	 2.7756	-4.2724	 8.2600	 3.9880	50.2163	99.9917	
   378	-4.8002	 5.7480	 0.9477	-4.4740	 7.2131	 2.7394	-4.0168	 7.9687	 3.9523	50.9154	99.9914	
   379	-4.6598	 5.5599	 0.9002	-4.3324	 7.0075	 2.6753	-3.8417	 7.7123	 3.8710	51.3548	99.9911	
   380	-4.5138	 5.3269	 0.8131	-4.1600	 6.7094	 2.5497	-3.7412	 7.4823	 3.7414	51.4713	99.9914	
   381	-4.4495	 5.1404	 0.6909	-4.0760	 6.5241	 2.4484	-3.5719	 7.2344	 3.6629	52.0037	99.9909	
   382	-4.1015	 5.0156	 0.9141	-3.5995	 6.3854	 2.7862	-2.9619	 7.1291	 4.1676	52.7847	99.9898	
   383	-3.5524	 4.8531	 1.3007	-3.0579	 6.2310	 3.1735	-2.4416	 6.9064	 4.4651	53.2729	99.9907	
   384	-3.3069	 4.5844	 1.2774	-2.7865	 5.8684	 3.0822	-2.2455	 6.5777	 4.3326	53.6183	99.9911	
   385	-3.1454	 4.3285	 1.1831	-2.6266	 5.6044	 2.9781	-2.0843	 6.3003	 4.2163	53.9172	99.9911	
   386	-3.0050	 4.1405	 1.1355	-2.4159	 5.3298	 2.9142	-1.8462	 6.0346	 4.1887	54.5108	99.9906	
   387	-2.8988	 3.9476	 1.0488	-2.2695	 5.0854	 2.8163	-1.7656	 5.7921	 4.0269	54.7610	99.9917	
   388	-2.8257	 3.7665	 0.9408	-2.1720	 4.8805	 2.7088	-1.5684	 5.5862	 4.0183	55.2330	99.9900	
   389	-2.4346	 3.6520	 1.2175	-1.6852	 4.7900	 3.1052	-0.9650	 5.4768	 4.5122	55.9294	99.9897	
   390	-1.9374	 3.4737	 1.5363	-1.1777	 4.5589	 3.3815	-0.5107	 5.2126	 4.7022	56.4324	99.9905	
   391	-1.7438	 3.1892	 1.4454	-1.0417	 4.2662	 3.2249	-0.3425	 4.8419	 4.4998	56.8828	99.9901	
   392	-1.6641	 2.9799	 1.3159	-0.9182	 4.0077	 3.0898	-0.2545	 4.6162	 4.3621	57.1149	99.9903	
   393	-1.5501	 2.7756	 1.2255	-0.8072	 3.7832	 2.9763	-0.1190	 4.3349	 4.2163	57.5462	99.9904	
   394	-1.4704	 2.5663	 1.0959	-0.6963	 3.5588	 2.8628	-0.0683	 4.1225	 4.0546	57.6707	99.9915	
   395	-1.4393	 2.3917	 0.9524	-0.6658	 3.3405	 2.6749	-0.0110	 3.9142	 3.9036	57.9382	99.9904	
   396	-1.2514	 2.2813	 1.0299	-0.4051	 3.2780	 2.8732	 0.4034	 3.8326	 4.2364	58.4729	99.9894	
   397	-0.7421	 2.1589	 1.4168	 0.1788	 3.0939	 3.2730	 0.8887	 3.6611	 4.5502	58.8873	99.9912	
   398	-0.5221	 1.8907	 1.3686	 0.3647	 2.7763	 3.1413	 1.0709	 3.3114	 4.3827	59.3099	99.9907	
   399	-0.5009	 1.6938	 1.1929	 0.3943	 2.5435	 2.9381	 1.0462	 3.1127	 4.1592	59.3635	99.9908	
   400	-0.4377	 1.4905	 1.0528	 0.4342	 2.3589	 2.7934	 1.1641	 2.8570	 4.0215	59.7703	99.9904	
   401	-0.3978	 1.3213	 0.9235	 0.4512	 2.1603	 2.6117	 1.1833	 2.6492	 3.8329	59.9627	99.9898	
   402	-0.4175	 1.1477	 0.7302	 0.4682	 1.9616	 2.4300	 1.1710	 2.4460	 3.6175	60.1589	99.9906	
   403	-0.3489	 1.0285	 0.6795	 0.5603	 1.9068	 2.4674	 1.3783	 2.4052	 3.7839	60.3249	99.9894	
   404	 0.1073	 1.0025	 1.1098	 1.1141	 1.8297	 2.9441	 1.9700	 2.3129	 4.2833	60.9956	99.9896	
   405	 0.3582	 0.8179	 1.1760	 1.3352	 1.6034	 2.9389	 2.0638	 2.0787	 4.1430	61.0751	99.9910	
   406	 0.3230	 0.6670	 0.9900	 1.3886	 1.3992	 2.7881	 2.0912	 1.9004	 3.9920	61.3470	99.9917	
   407	 0.3418	 0.5656	 0.9075	 1.3400	 1.3275	 2.6678	 2.1216	 1.7730	 3.8950	61.5139	99.9905	
   408	 0.3409	 0.4197	 0.7606	 1.3071	 1.1538	 2.4612	 2.0794	 1.5998	 3.6796	61.6054	99.9899	
   409	 0.2460	 0.2645	 0.5105	 1.1955	 1.0154	 2.2112	 1.9310	 1.4577	 3.3891	61.5260	99.9906	
   410	 0.1523	 0.1260	 0.2783	 1.0839	 0.8769	 1.9612	 1.8486	 1.3571	 3.2062	61.4907	99.9893	
   411	 0.2528	 0.1072	 0.3600	 1.2966	 0.8685	 2.1654	 2.2032	 1.3356	 3.5392	62.0311	99.9886	
   412	 0.6273	-0.0013	 0.6260	 1.6562	 0.7414	 2.3979	 2.4629	 1.2179	 3.6812	62.0937	99.9897	
   413	 0.5734	-0.1799	 0.3935	 1.6053	 0.5149	 2.1204	 2.3414	 0.9950	 3.3368	62.1808	99.9904	
   414	 0.4157	-0.3900	 0.0257	 1.4298	 0.2952	 1.7254	 2.1943	 0.7681	 2.9628	62.3092	99.9897	
   415	 0.3154	-0.6294	-0.3140	 1.3052	 0.0651	 1.3705	 2.0829	 0.5027	 2.5860	62.4707	99.9898	
   416	 0.1443	-0.7831	-0.6388	 1.1055	-0.0719	 1.0339	 1.8758	 0.3359	 2.2121	62.4599	99.9902	
   417	-0.0510	-0.9195	-0.9705	 0.8617	-0.2081	 0.6539	 1.6263	 0.2036	 1.8303	62.3449	99.9896	
   418	-0.2520	-1.0109	-1.2629	 0.6926	-0.3262	 0.3667	 1.4561	 0.1211	 1.5776	62.3420	99.9892	
   419	-0.1094	-1.0362	-1.1457	 0.8774	-0.3100	 0.5677	 1.7185	 0.1516	 1.8705	62.4977	99.9886	
   420	 0.0684	-1.0398	-0.9714	 1.0365	-0.3514	 0.6855	 1.8912	 0.0646	 1.9562	62.8044	99.9883	
   421	 0.0199	-1.1342	-1.1143	 0.9632	-0.4663	 0.4972	 1.7385	-0.0435	 1.6954	62.6890	99.9891	
   422	-0.1270	-1.1762	-1.3032	 0.8409	-0.5416	 0.2995	 1.6196	-0.1182	 1.5017	62.7890	99.9890	
   423	-0.1976	-1.2197	-1.4173	 0.7442	-0.5593	 0.1852	 1.5147	-0.1720	 1.3431	62.7487	99.9897	
   424	-0.3279	-1.2676	-1.5955	 0.5989	-0.6488	-0.0496	 1.3335	-0.2247	 1.1093	62.6366	99.9891	
   425	-0.4748	-1.3096	-1.7843	 0.4218	-0.6604	-0.2383	 1.1291	-0.2432	 0.8863	62.4205	99.9897	
   426	-0.5841	-1.2962	-1.8803	 0.3701	-0.6643	-0.2939	 1.1057	-0.2090	 0.8971	62.4626	99.9892	
   427	-0.4119	-1.2547	-1.6666	 0.5652	-0.5999	-0.0343	 1.3440	-0.1571	 1.1873	62.6124	99.9892	
   428	-0.3434	-1.2448	-1.5882	 0.6372	-0.6253	 0.0122	 1.3813	-0.1702	 1.2115	62.6443	99.9892	
   429	-0.3953	-1.2606	-1.6559	 0.5500	-0.6093	-0.0590	 1.2962	-0.2115	 1.0851	62.6383	99.9900	
   430	-0.4097	-1.2211	-1.6307	 0.5212	-0.5991	-0.0776	 1.2515	-0.2152	 1.0368	62.6678	99.9899	
   431	-0.5720	-1.2403	-1.8123	 0.3508	-0.6204	-0.2694	 1.0684	-0.1959	 0.8730	62.4561	99.9894	
   432	-0.6118	-1.2002	-1.8120	 0.3104	-0.5617	-0.2510	 1.0435	-0.1871	 0.8569	62.5246	99.9901	
   433	-0.5534	-1.0835	-1.6369	 0.3617	-0.4464	-0.0845	 1.1150	-0.0567	 1.0587	62.4607	99.9894	
   434	-0.3426	-0.9698	-1.3124	 0.6315	-0.3639	 0.2679	 1.3547	 0.0207	 1.3759	62.6409	99.9905	
   435	-0.3966	-1.0193	-1.4159	 0.6193	-0.4411	 0.1785	 1.2786	 0.0217	 1.3007	62.4671	99.9906	
   436	-0.8917	-0.8073	-1.6990	 0.3381	-0.0008	 0.3375	 1.4348	 0.6085	 2.0437	62.2742	99.9859	
   437	-0.0074	-0.3759	-0.3833	 1.3543	 0.2627	 1.6172	 2.4208	 0.8372	 3.2585	63.1367	99.9865	
   438	 0.8098	-0.1958	 0.6140	 2.1230	 0.0948	 2.2181	 2.9766	 0.4658	 3.4428	64.4297	99.9885	
   439	 0.6974	-0.4911	 0.2064	 1.6642	-0.1878	 1.4768	 2.0883	 0.0663	 2.1550	63.4532	99.9936	
   440	-0.4910	-0.5122	-1.0032	 0.1138	 0.0562	 0.1702	 0.2174	 0.4420	 0.6598	60.4500	99.9952	
   441	-1.9657	-0.3705	-2.3361	-1.5023	 0.4271	-1.0749	-1.1730	 0.7776	-0.3950	59.2176	99.9929	
   442	-2.4772	-0.1526	-2.6298	-2.1099	 0.8196	-1.2900	-1.9730	 1.3132	-0.6594	57.3247	99.9945	
   443	-2.7042	 0.4020	-2.3022	-2.1713	 1.1303	-1.0407	-1.5550	 0.6597	-0.8949	61.5333	99.9872	
   444	-2.4566	 0.1669	-2.2897	-1.9519	 1.1121	-0.8395	-1.7923	 1.4633	-0.3286	57.9219	99.9956	
   445	-2.4403	 0.4192	-2.0211	-1.8960	 1.5370	-0.3587	-1.7936	 2.0733	 0.2802	56.7511	99.9964	
   446	-2.1248	 0.8394	-1.2853	-1.4445	 1.7036	 0.2594	-1.3831	 2.1358	 0.7531	57.8107	99.9973	
   447	-1.5770	 0.9183	-0.6587	-1.0274	 1.5562	 0.5291	-0.9132	 1.7104	 0.7976	59.2776	99.9961	
   448	-1.5661	 1.0865	-0.4797	-1.0853	 1.6878	 0.6028	-1.1094	 2.0391	 0.9301	58.2990	99.9963	
   449	-1.6745	 1.2458	-0.4288	-1.1868	 1.9460	 0.7595	-1.0598	 2.2291	 1.1697	58.3756	99.9955	
   450	-1.6990	 1.3922	-0.3068	-1.1549	 1.8680	 0.7135	-1.2340	 2.2906	 1.0571	58.1895	99.9961	
   451	-1.6064	 1.6429	 0.0365	-0.9854	 1.8748	 0.8898	-1.1593	 2.2642	 1.1054	58.8027	99.9961	
   452	-1.7513	 1.7637	 0.0124	-1.1261	 1.8579	 0.7321	-1.1581	 2.1795	 1.0218	59.5197	99.9936	
   453	-1.5636	 1.9115	 0.3479	-0.8217	 1.9060	 1.0845	-0.9121	 2.3585	 1.4468	59.5488	99.9919	
   454	-1.4180	 2.0657	 0.6478	-0.6391	 2.0045	 1.3656	-0.7859	 2.4501	 1.6646	59.6562	99.9925	
   455	-1.3551	 2.1206	 0.7655	-0.4984	 2.0215	 1.5234	-0.6164	 2.5199	 1.9039	59.8254	99.9911	
   456	-1.3066	 2.2151	 0.9085	-0.3877	 2.1454	 1.7580	-0.5206	 2.7389	 2.2188	59.5353	99.9905	
   457	-1.2151	 2.4490	 1.2338	-0.2680	 2.4144	 2.1466	-0.4038	 3.0932	 2.6898	59.1442	99.9894	
   458	-1.2585	 2.6968	 1.4384	-0.3007	 2.7149	 2.4146	-0.4425	 3.3987	 2.9566	58.8076	99.9906	
   459	-1.4421	 3.0036	 1.5615	-0.4080	 2.9974	 2.5897	-0.5536	 3.7687	 3.2155	58.4831	99.9890	
   460	-1.7141	 3.2560	 1.5419	-0.7279	 3.2883	 2.5607	-0.8874	 4.1330	 3.2460	57.7456	99.9874	
   461	-1.9019	 3.3664	 1.4644	-0.8920	 3.3685	 2.4768	-1.1276	 4.1531	 3.0258	57.7112	99.9902	
   462	-2.2244	 3.3616	 1.1371	-1.4764	 3.4268	 1.9507	-1.7800	 4.2928	 2.5131	56.4638	99.9868	
   463	-2.5803	 3.6269	 1.0465	-1.8435	 3.7862	 1.9430	-2.0100	 4.5880	 2.5784	56.2814	99.9880	
   464	-2.6818	 3.4998	 0.8180	-1.8999	 3.4726	 1.5731	-2.0257	 4.2239	 2.1987	57.1325	99.9850	
   465	-2.8469	 2.9138	 0.0668	-2.0333	 2.7490	 0.7160	-2.1241	 3.3314	 1.2077	58.4184	99.9867	
   466	-2.9225	 2.2698	-0.6527	-2.1470	 2.1074	-0.0393	-2.1905	 2.6545	 0.4644	58.9264	99.9861	
   467	-3.2713	 1.9905	-1.2807	-2.3242	 1.8588	-0.4652	-2.6538	 2.5588	-0.0946	58.1770	99.9907	
   468	-3.6049	 2.0758	-1.5291	-2.6236	 2.0090	-0.6143	-2.8269	 2.7432	-0.0833	57.9990	99.9895	
   469	-3.1988	 2.4549	-0.7439	-2.1738	 2.3837	 0.2102	-2.2865	 3.1683	 0.8822	58.1135	99.9867	
   470	-2.6527	 3.0334	 0.3807	-1.6232	 2.9599	 1.3370	-1.8857	 3.7011	 1.8158	57.8426	99.9907	
   471	-2.6672	 3.2020	 0.5349	-1.6991	 3.0386	 1.3397	-2.0005	 3.8000	 1.7999	57.7057	99.9880	
   472	-2.9223	 3.1903	 0.2680	-1.9842	 2.9466	 0.9627	-2.2774	 3.5282	 1.2512	58.2508	99.9908	
   473	-3.3573	 3.0194	-0.3379	-2.5251	 2.8783	 0.3535	-2.7214	 3.5424	 0.8214	57.5988	99.9874	
   474	-3.4445	 2.9818	-0.4627	-2.6443	 2.7352	 0.0912	-2.8698	 3.4003	 0.5309	57.7385	99.9849	
   475	-3.7768	 2.8257	-0.9511	-2.9902	 2.4942	-0.4956	-3.2203	 3.2778	 0.0578	57.5310	99.9780	
   476	-4.0961	 2.8714	-1.2247	-3.3330	 2.7710	-0.5617	-3.3426	 3.5674	 0.2252	57.0671	99.9785	
   477	-4.0742	 3.0786	-0.9956	-3.3912	 3.2510	-0.1399	-3.1967	 3.8790	 0.6827	56.9166	99.9848	
   478	-4.0412	 3.1958	-0.8454	-3.4514	 3.4650	 0.0139	-3.2337	 4.0023	 0.7690	56.6922	99.9872	
   479	-4.3383	 3.1905	-1.1478	-3.7017	 3.5757	-0.1258	-3.3581	 4.0462	 0.6885	56.7646	99.9891	
   480	-4.4489	 3.3162	-1.1326	-3.7560	 3.7653	 0.0096	-3.4827	 4.2978	 0.8155	56.2512	99.9911	
   481	-4.4066	 3.0516	-1.3550	-3.7836	 3.4416	-0.3418	-3.5274	 3.7689	 0.2418	56.9851	99.9932	
   482	-4.5007	 2.1217	-2.3790	-4.0625	 2.3914	-1.6708	-4.0442	 2.8944	-1.1493	56.5003	99.9899	
   483	-4.8784	 2.0507	-2.8277	-4.2719	 2.5691	-1.7025	-3.8955	 3.1467	-0.7484	56.5771	99.9880	
   484	-4.8527	 1.7920	-3.0607	-4.2896	 2.1678	-2.1215	-4.0623	 2.6998	-1.3621	56.8713	99.9889	
   485	-4.7534	 1.8854	-2.8680	-4.1893	 2.2435	-1.9455	-4.1261	 2.6964	-1.4292	56.7821	99.9933	
   486	-5.0438	 1.8519	-3.1919	-4.3508	 2.1301	-2.2204	-4.2744	 2.5543	-1.7197	57.2520	99.9941	
   487	-5.3035	 1.9020	-3.4014	-4.7263	 2.7074	-2.0186	-3.9717	 3.1477	-0.8236	56.7734	99.9868	
   488	-5.9204	 1.4092	-4.5112	-5.0395	 1.3433	-3.6959	-5.0307	 1.7126	-3.3177	58.4599	99.9938	
   489	-5.7792	 1.6253	-4.1539	-5.1300	 2.0126	-3.1170	-4.8069	 2.8916	-1.9149	55.8771	99.9785	
   490	-5.4815	 2.1638	-3.3178	-4.7807	 2.6600	-2.1205	-4.5145	 3.4173	-1.0969	55.7091	99.9873	
   491	-5.2344	 2.4451	-2.7893	-4.6466	 2.9239	-1.7225	-4.4411	 3.4756	-0.9651	55.8927	99.9911	
   492	-5.4486	 2.4101	-3.0386	-5.0319	 2.9933	-2.0383	-4.6685	 3.3938	-1.2742	55.8967	99.9899	
   493	-5.4296	 2.1796	-3.2501	-4.5568	 1.8916	-2.6649	-5.1963	 2.7568	-2.4391	55.9949	99.9872	
   494	-5.5909	 2.1772	-3.4137	-5.1558	 2.5405	-2.6150	-5.1055	 2.9971	-2.1080	55.7824	99.9920	
   495	-5.7644	 2.2480	-3.5164	-5.2160	 2.5173	-2.6984	-5.2179	 3.1341	-2.0835	55.5871	99.9897	
   496	-5.9092	 2.3688	-3.5404	-5.3400	 2.6501	-2.6897	-5.3050	 3.1648	-2.1398	55.8004	99.9918	
   497	-6.0693	 2.3832	-3.6861	-5.4776	 2.5653	-2.9120	-5.4415	 3.1158	-2.3253	55.9289	99.9896	
   498	-6.1379	 2.5024	-3.6355	-5.5643	 2.7071	-2.8569	-5.4622	 3.2982	-2.1636	55.7392	99.9873	
   499	-6.0906	 2.7092	-3.3815	-5.3682	 3.0231	-2.3447	-5.2875	 3.6644	-1.6227	55.4665	99.9910	
   500	-5.9480	 2.5548	-3.3932	-5.2675	 2.9876	-2.2796	-5.1522	 3.5907	-1.5611	55.4126	99.9925	
   501	-5.8434	 2.8614	-2.9820	-5.1210	 3.5658	-1.5550	-4.8109	 4.0861	-0.7243	55.2696	99.9945	
   502	-5.7008	 2.7070	-2.9938	-5.3347	 3.3226	-2.0118	-5.1053	 3.8400	-1.2649	54.7467	99.9902	
   503	-6.0973	 2.7374	-3.3599	-5.5995	 3.4384	-2.1608	-5.3262	 3.9699	-1.3559	54.6189	99.9922	
   504	-6.2553	 2.7854	-3.4699	-5.7690	 3.4316	-2.3371	-5.3915	 3.9411	-1.4500	54.9097	99.9898	
   505	-6.6163	 2.5793	-4.0369	-6.1589	 3.1914	-2.9672	-5.7178	 3.5895	-2.1279	55.3157	99.9897	
   506	-6.7574	 2.3633	-4.3942	-6.2409	 2.8201	-3.4205	-6.0507	 3.2337	-2.8165	55.3430	99.9929	
   507	-7.0170	 2.4134	-4.6037	-5.9413	 2.3215	-3.6195	-6.3502	 3.5341	-2.8157	54.3826	99.9794	
   508	-7.1417	 2.3204	-4.8213	-6.5440	 2.6753	-3.8684	-6.4235	 3.2682	-3.1549	54.9641	99.9905	
   509	-7.2578	 2.3620	-4.8957	-6.7512	 2.7707	-3.9802	-6.5982	 3.4272	-3.1706	54.4148	99.9878	
   510	-7.4687	 2.3775	-5.0913	-7.1108	 2.8977	-4.2127	-6.8372	 3.3625	-3.4743	54.4404	99.9892	
   511	-7.6741	 2.3479	-5.3262	-7.3090	 2.9011	-4.4077	-6.7874	 3.3449	-3.4421	54.8804	99.9848	
   512	-7.2688	 2.3230	-4.9458	-6.8834	 2.7729	-4.1101	-6.3489	 3.2418	-3.1066	55.4169	99.9820	
   513	-6.8251	 2.6284	-4.1966	-6.4493	 3.2495	-3.1995	-6.0849	 3.8230	-2.2616	54.3121	99.9867	
   514	-6.5438	 3.0438	-3.5001	-6.0978	 3.8145	-2.2830	-5.7705	 4.3992	-1.3708	53.8390	99.9907	
   515	-6.2537	 3.4645	-2.7892	-5.8580	 4.2412	-1.6165	-5.5095	 4.7220	-0.7870	53.9282	99.9912	
   516	-6.3168	 3.5388	-2.7780	-5.9887	 4.3837	-1.6047	-5.5620	 4.7990	-0.7627	53.8600	99.9905	
   517	-6.3987	 3.7144	-2.6843	-6.0103	 4.5099	-1.5001	-5.6699	 5.0122	-0.6573	53.5414	99.9912	
   518	-6.4606	 3.8054	-2.6552	-6.0691	 4.6270	-1.4418	-5.6587	 5.0925	-0.5658	53.6379	99.9908	
   519	-6.4883	 3.9014	-2.5869	-6.1032	 4.7873	-1.3156	-5.7210	 5.3220	-0.3986	53.1283	99.9910	
   520	-6.6541	 3.9609	-2.6932	-6.2556	 4.8189	-1.4364	-5.8703	 5.3748	-0.4951	53.0496	99.9905	
   521	-6.8683	 3.9258	-2.9425	-6.4759	 4.8226	-1.6530	-6.1316	 5.4671	-0.6641	52.5075	99.9903	
   522	-7.0162	 3.8671	-3.1492	-6.6759	 4.7969	-1.8787	-6.2353	 5.3287	-0.9063	52.7698	99.9900	
   523	-7.0813	 3.7786	-3.3028	-6.7773	 4.4696	-2.3073	-6.4651	 4.8911	-1.5736	53.3524	99.9907	
   524	-7.1318	 3.3923	-3.7395	-6.9002	 4.0313	-2.8686	-6.5690	 4.4349	-2.1336	53.6463	99.9888	
   525	-6.9317	 3.2087	-3.7230	-6.6040	 3.9489	-2.6548	-6.1863	 4.2479	-1.9380	54.3019	99.9912	
   526	-6.6907	 3.0018	-3.6889	-6.2121	 3.6326	-2.5792	-5.9561	 4.0628	-1.8929	54.4932	99.9931	
   527	-6.6498	 2.9785	-3.6713	-6.2386	 3.7976	-2.4407	-6.0676	 4.5302	-1.5370	52.8689	99.9912	
   528	-6.4400	 3.0754	-3.3647	-6.0564	 4.0074	-2.0487	-5.7450	 4.6107	-1.1339	53.2230	99.9917	
   529	-6.2206	 3.4526	-2.7679	-5.5383	 4.2987	-1.2393	-5.0109	 4.3513	-0.6591	55.9348	99.9939	
   530	-5.6082	 2.9577	-2.6505	-5.4793	 3.5960	-1.8830	-4.8765	 3.9472	-0.9289	55.3228	99.9812	
   531	-5.1401	 3.1167	-2.0233	-4.7646	 3.5065	-1.2577	-4.4139	 4.0302	-0.3833	55.6740	99.9832	
   532	-4.6252	 2.9493	-1.6759	-4.5899	 3.1261	-1.4634	-4.3479	 3.5464	-0.8010	55.9685	99.9765	
   533	-4.7104	 3.0745	-1.6359	-4.6626	 3.3741	-1.2881	-4.5405	 3.8285	-0.7116	55.1632	99.9823	
   534	-5.2194	 2.9387	-2.2807	-4.9916	 3.5200	-1.4713	-4.7958	 3.7047	-1.0907	55.4929	99.9929	
   535	-5.5231	 2.8325	-2.6905	-5.1804	 3.5571	-1.6230	-4.8907	 3.8161	-1.0743	55.2526	99.9932	
   536	-5.6100	 2.5368	-3.0732	-5.3631	 3.2215	-2.1413	-4.9749	 3.5799	-1.3946	55.2433	99.9889	
   537	-5.7226	 2.4997	-3.2229	-5.2340	 3.2870	-1.9467	-4.6431	 3.8129	-0.8298	55.4361	99.9871	
   538	-5.5172	 2.5293	-2.9879	-4.8982	 3.3684	-1.5294	-4.2118	 4.0106	-0.2007	55.5608	99.9856	
   539	-5.5172	 2.5293	-2.9879	-4.8091	 3.3815	-1.4274	-4.1495	 3.9887	-0.1605	55.7506	99.9886	
   540	-5.6220	 2.3518	-3.2702	-4.9351	 3.2481	-1.6867	-4.1669	 3.8067	-0.3598	56.0044	99.9876	
   541	-5.5258	 2.2657	-3.2601	-4.7854	 3.1730	-1.6121	-4.0273	 3.6990	-0.3278	56.2605	99.9893	
   542	-5.5204	 2.3498	-3.1706	-4.7570	 3.2741	-1.4826	-3.9784	 3.8763	-0.1017	56.0517	99.9882	
   543	-5.5261	 2.5239	-3.0022	-4.5892	 3.4890	-1.0999	-3.6816	 4.1605	 0.4793	56.2726	99.9877	
   544	-4.9887	 3.0969	-1.8919	-3.8215	 4.1293	 0.3082	-2.7240	 4.9700	 2.2464	56.4296	99.9849	
   545	-3.6885	 3.9297	 0.2412	-2.4737	 4.8759	 2.4026	-1.4358	 5.5718	 4.1364	57.1419	99.9883	
   546	-2.9187	 4.0322	 1.1134	-1.8722	 4.8561	 2.9843	-1.0127	 5.4223	 4.4100	57.4342	99.9896	
   547	-2.8523	 3.8793	 1.0270	-1.8534	 4.6864	 2.8334	-1.0332	 5.1896	 4.1569	57.6004	99.9904	
   548	-3.0762	 3.5638	 0.4876	-2.1489	 4.3091	 2.1605	-1.3298	 4.6979	 3.3685	58.0059	99.9904	
   549	-3.6974	 2.8746	-0.8227	-2.6452	 3.5433	 0.8984	-1.7863	 3.8735	 2.0876	58.8198	99.9915	
   550	-3.8159	 2.0912	-1.7247	-2.6241	 2.7058	 0.0820	-1.6532	 3.0288	 1.3761	59.9293	99.9910	
   551	-3.5237	 1.4960	-2.0277	-2.3219	 2.0136	-0.3080	-1.4330	 2.3610	 0.9283	60.5252	99.9910	
   552	-3.0263	 1.0595	-1.9668	-1.9391	 1.5522	-0.3866	-1.0968	 1.8271	 0.7308	61.0186	99.9909	
   553	-2.5753	 0.6913	-1.8840	-1.6471	 1.0489	-0.5980	-0.9482	 1.2364	 0.2886	61.5240	99.9909	
   554	-2.2812	 0.3879	-1.8933	-1.4684	 0.6152	-0.8529	-0.8654	 0.7144	-0.1507	62.0853	99.9907	
   555	-2.3747	-0.0087	-2.3834	-1.6759	 0.2364	-1.4392	-1.0525	 0.3525	-0.6997	62.0315	99.9885	
   556	-2.2739	-0.2858	-2.5596	-1.5282	-0.1048	-1.6327	-0.8929	 0.0497	-0.8429	62.4628	99.9873	
   557	-2.1201	-0.5302	-2.6503	-1.4020	-0.3198	-1.7215	-0.7163	-0.1813	-0.8972	62.7159	99.9865	
   558	-2.1530	-0.7765	-2.9295	-1.5055	-0.5649	-2.0701	-0.8584	-0.4294	-1.2874	62.6650	99.9862	
   559	-2.2688	-0.9931	-3.2619	-1.5965	-0.8440	-2.4402	-1.0246	-0.6560	-1.6802	62.6894	99.9861	
   560	-2.3382	-1.1488	-3.4871	-1.7080	-0.9824	-2.6902	-1.1598	-0.7898	-1.9492	62.5719	99.9861	
   561	-2.4044	-1.2542	-3.6585	-1.7679	-1.1169	-2.8845	-1.2238	-0.9034	-2.1268	62.6406	99.9853	
   562	-2.4210	-1.2482	-3.6692	-1.6667	-1.0267	-2.6931	-0.9992	-0.7622	-1.7611	62.7080	99.9850	
   563	-2.0521	-1.1826	-3.2347	-1.1500	-0.8757	-2.0255	-0.3482	-0.6097	-0.9575	63.1378	99.9860	
   564	-1.7384	-1.1833	-2.9217	-0.7144	-0.8444	-1.5585	 0.0440	-0.5342	-0.4899	63.2243	99.9885	
   565	-1.6080	-1.2645	-2.8725	-0.5179	-0.8767	-1.3944	 0.3324	-0.5973	-0.2644	63.5879	99.9890	
   566	-1.3771	-1.3645	-2.7416	-0.2599	-0.9827	-1.2424	 0.5689	-0.6808	-0.1115	63.7310	99.9893	
   567	-1.2842	-1.5011	-2.7852	-0.1157	-1.1448	-1.2602	 0.6447	-0.7919	-0.1468	63.7659	99.9900	
   568	-1.1295	-1.5996	-2.7290	 0.0578	-1.1913	-1.1332	 0.9421	-0.8127	 0.1299	63.9518	99.9881	
   569	-0.5596	-1.5717	-2.1312	 0.7749	-1.1260	-0.3508	 1.7328	-0.7678	 0.9654	64.5541	99.9897	
   570	-0.0050	-1.6501	-1.6551	 1.2456	-1.2404	 0.0054	 2.1076	-0.8743	 1.2337	64.6203	99.9895	
   571	 0.1277	-1.8268	-1.6991	 1.3803	-1.4363	-0.0556	 2.2477	-1.0794	 1.1687	64.8951	99.9893	
   572	 0.3134	-1.9708	-1.6574	 1.4720	-1.6169	-0.1446	 2.1953	-1.2101	 0.9857	64.6135	99.9891	
   573	 0.2362	-2.1152	-1.8790	 1.4341	-1.7517	-0.3173	 2.1927	-1.3583	 0.8348	64.8218	99.9894	
   574	 0.2319	-2.1824	-1.9506	 1.3941	-1.8043	-0.4099	 2.1018	-1.3910	 0.7112	64.6120	99.9897	
   575	 0.3169	-2.1785	-1.8616	 1.6162	-1.7790	-0.1625	 2.4403	-1.3615	 1.0793	65.0334	99.9897	
   576	 0.5257	-2.2276	-1.7019	 1.7591	-1.8443	-0.0849	 2.5337	-1.4982	 1.0359	65.2034	99.9907	
   577	 0.2498	-2.4298	-2.1800	 1.4506	-2.0762	-0.6253	 2.1646	-1.7180	 0.4470	65.0963	99.9908	
   578	-0.0107	-2.6547	-2.6654	 1.1371	-2.2693	-1.1319	 1.8988	-1.9094	-0.0101	65.0252	99.9896	
   579	 0.1826	-2.6810	-2.4984	 1.4694	-2.2459	-0.7762	 2.3548	-1.8305	 0.5246	65.3078	99.9889	
   580	 0.8188	-2.6769	-1.8580	 2.1177	-2.2230	-0.1050	 3.0972	-1.7427	 1.3549	65.5498	99.9859	
   581	 2.1131	-2.4614	-0.3483	 3.4503	-2.0713	 1.3793	 4.3671	-1.6531	 2.7144	66.2952	99.9878	
   582	 2.7648	-2.4800	 0.2848	 4.0298	-2.0907	 1.9394	 4.8830	-1.6344	 3.2490	66.2605	99.9869	
   583	 3.2640	-2.4956	 0.7684	 4.4645	-2.0739	 2.3910	 5.3810	-1.7001	 3.6813	66.6300	99.9867	
   584	 3.6606	-2.5260	 1.1346	 4.8602	-2.0951	 2.7654	 5.7114	-1.7001	 4.0117	66.6286	99.9877	
   585	 4.0847	-2.5232	 1.5615	 5.2509	-2.0775	 3.1737	 6.0368	-1.6789	 4.3583	66.5944	99.9885	
   586	 4.2283	-2.5317	 1.6966	 5.3889	-2.1040	 3.2851	 6.0974	-1.7263	 4.3716	66.6302	99.9900	
   587	 4.2173	-2.5708	 1.6465	 5.3286	-2.1272	 3.2017	 6.0139	-1.7421	 4.2721	66.4631	99.9899	
   588	 4.0661	-2.6800	 1.3860	 5.0543	-2.2822	 2.7723	 5.7326	-1.9800	 3.7530	66.6060	99.9890	
   589	 3.2535	-3.0511	 0.2025	 4.0367	-2.6860	 1.3509	 4.5806	-2.3252	 2.2559	65.8251	99.9870	
   590	 1.7696	-3.5771	-1.8075	 2.6441	-3.2093	-0.5650	 3.1851	-2.8113	 0.3742	65.5465	99.9882	
   591	 0.6830	-3.8585	-3.1754	 1.6670	-3.4348	-1.7675	 2.2561	-3.0407	-0.7842	65.3702	99.9902	
   592	-0.0502	-4.0515	-4.1017	 0.7704	-3.6664	-2.8957	 1.2861	-3.3205	-2.0341	64.9724	99.9897	
   593	-0.6453	-4.2080	-4.8533	 0.2003	-3.8503	-3.6498	 0.7890	-3.4497	-2.6603	64.8996	99.9871	
   594	-0.3140	-4.1978	-4.5118	 0.7043	-3.6653	-2.9606	 1.7382	-3.3052	-1.5666	65.7913	99.9839	
   595	 1.7178	-3.7220	-2.0042	 3.1922	-3.0250	 0.1675	 4.6974	-2.4961	 2.2017	67.0451	99.9796	
   596	 4.2631	-3.1723	 1.0909	 5.4731	-2.6377	 2.8357	 6.3637	-2.1575	 4.2065	66.8901	99.9868	
   597	 5.0967	-2.8690	 2.2278	 6.3261	-2.2795	 4.0469	 7.1883	-1.7615	 5.4272	66.7793	99.9876	
   598	 5.3030	-2.5644	 2.7386	 6.6172	-1.9748	 4.6427	 7.4835	-1.5027	 5.9812	66.9390	99.9896	
   599	 5.1515	-2.4154	 2.7361	 6.4253	-1.8699	 4.5557	 7.2351	-1.5122	 5.7233	67.0470	99.9914	
   600	 4.8624	-2.6903	 2.1721	 5.9557	-2.3265	 3.6294	 6.4153	-2.0396	 4.3761	66.9110	99.9938	
   601	 3.6087	-3.7205	-0.1118	 4.1639	-3.4721	 0.6921	 4.3717	-3.1527	 1.2194	65.8989	99.9892	
   602	 1.7990	-4.3017	-2.5027	 2.4882	-3.8212	-1.3328	 2.9694	-3.4354	-0.4656	65.3332	99.9885	
   603	 1.0968	-4.5403	-3.4435	 1.8708	-3.9366	-2.0655	 2.5655	-3.4937	-0.9278	65.1951	99.9863	
   604	 0.5755	-4.6028	-4.0273	 1.3834	-4.2090	-2.8254	 1.7999	-3.7550	-1.9547	65.1157	99.9893	
   605	 0.3382	-4.7328	-4.3946	 1.1136	-4.2916	-3.1777	 1.5858	-3.8285	-2.2423	64.9726	99.9882	
   606	-0.1058	-4.7800	-4.8858	 0.5277	-4.3736	-3.8456	 0.8464	-3.8655	-3.0187	64.2046	99.9877	
   607	-0.1290	-4.7459	-4.8749	 0.6163	-4.2493	-3.6327	 1.1309	-3.7845	-2.6532	64.6136	99.9879	
   608	 0.0002	-4.7148	-4.7146	 0.8663	-4.2487	-3.3821	 1.4570	-3.7506	-2.2931	65.0119	99.9869	
   609	 0.5887	-4.5301	-3.9414	 1.5795	-3.8930	-2.3131	 2.3492	-3.2876	-0.9380	64.9213	99.9856	
   610	 1.4264	-3.9014	-2.4750	 2.5905	-3.2423	-0.6515	 3.5095	-2.5952	 0.9147	65.2771	99.9845	
   611	 2.4043	-3.2025	-0.7982	 3.5948	-2.5818	 1.0133	 4.6006	-1.9950	 2.6060	65.7194	99.9834	
   612	 3.0267	-2.6256	 0.4011	 4.2430	-1.9734	 2.2699	 5.1479	-1.4556	 3.6927	65.5849	99.9880	
   613	 3.4413	-1.9828	 1.4586	 4.8336	-1.3446	 3.4893	 5.5838	-0.9741	 4.6100	65.8190	99.9946	
   614	 3.5008	-1.8492	 1.6516	 4.7724	-1.3823	 3.3904	 5.3238	-1.1741	 4.1501	66.1270	99.9960	
   615	 3.3149	-2.6257	 0.6892	 4.1506	-2.3928	 1.7581	 4.4387	-2.2556	 2.1835	66.2122	99.9943	
   616	 2.5407	-3.7160	-1.1753	 2.9915	-3.4136	-0.4218	 3.1778	-3.0357	 0.1426	64.8286	99.9879	
   617	 1.8087	-4.0213	-2.2126	 2.3561	-3.5819	-1.2255	 2.7767	-3.1533	-0.3762	64.7637	99.9858	
   618	 1.4288	-4.1259	-2.6971	 1.9272	-3.6230	-1.6955	 2.4654	-3.1536	-0.6878	64.4810	99.9823	
   619	 1.4363	-3.8791	-2.4428	 2.0775	-3.3352	-1.2574	 2.6451	-2.8085	-0.1630	64.3509	99.9838	
   620	 1.7594	-3.3411	-1.5817	 2.6088	-2.7151	-0.1061	 3.3004	-2.1647	 1.1362	64.4429	99.9856	
   621	 2.3122	-2.7909	-0.4787	 3.3567	-2.1568	 1.2003	 3.9986	-1.6526	 2.3464	64.6948	99.9907	
   622	 2.7008	-2.5517	 0.1491	 3.7219	-1.9597	 1.7625	 4.2854	-1.5335	 2.7523	64.8646	99.9923	
   623	 2.6334	-2.5447	 0.0887	 3.5803	-1.9912	 1.5894	 4.0149	-1.5935	 2.4217	64.6513	99.9934	
   624	 2.3994	-2.7534	-0.3539	 3.2222	-2.3094	 0.9132	 3.5837	-1.9989	 1.5852	64.8826	99.9931	
   625	 1.8897	-3.2932	-1.4035	 2.4819	-2.8630	-0.3808	 2.7191	-2.5299	 0.1896	64.3353	99.9919	
   626	 1.1447	-3.8003	-2.6557	 1.6954	-3.3336	-1.6379	 1.9283	-2.8925	-0.9638	63.8252	99.9902	
   627	 0.7572	-4.0227	-3.2655	 1.2843	-3.5589	-2.2743	 1.5079	-3.1201	-1.6118	63.7433	99.9901	
   628	 0.2725	-4.1758	-3.9033	 0.7875	-3.6280	-2.8402	 1.2300	-3.1970	-1.9666	63.7860	99.9870	
   629	 0.1819	-4.1347	-3.9528	 0.7777	-3.5504	-2.7724	 1.3235	-3.0160	-1.6921	63.6595	99.9844	
   630	 0.1684	-3.9492	-3.7808	 0.8920	-3.3684	-2.4762	 1.5146	-2.7982	-1.2832	63.8165	99.9840	
   631	 0.5059	-3.4508	-2.9449	 1.2416	-2.8324	-1.5905	 1.8855	-2.2354	-0.3495	63.5155	99.9837	
   632	 1.0256	-2.8887	-1.8631	 1.9287	-2.4230	-0.4940	 2.3797	-1.8393	 0.5407	63.8003	99.9884	
   633	 1.4784	-2.8360	-1.3576	 2.3303	-2.2314	 0.0992	 2.8897	-1.8120	 1.0780	64.1568	99.9907	
   634	 1.5612	-2.8657	-1.3045	 2.3726	-2.2611	 0.1117	 2.7952	-1.7981	 0.9975	63.7670	99.9918	
   635	 1.4508	-2.8691	-1.4183	 2.2386	-2.2879	-0.0490	 2.5826	-1.8462	 0.7368	63.6525	99.9929	
   636	 1.2675	-2.9496	-1.6821	 2.0021	-2.3081	-0.3057	 2.4050	-1.9456	 0.4598	63.6835	99.9929	
   637	 1.0157	-2.9109	-1.8953	 1.7337	-2.2503	-0.5163	 2.0442	-1.8181	 0.2265	63.0784	99.9935	
   638	 0.9039	-2.6730	-1.7691	 1.6008	-2.0255	-0.4244	 1.8615	-1.8962	-0.0343	63.6246	99.9954	
   639	 0.2258	-2.7997	-2.5739	 0.7993	-1.7942	-0.9946	 1.9283	-1.8420	 0.0867	64.2587	99.9845	
   640	 0.4032	-3.4656	-3.0624	 0.7168	-3.1138	-2.3968	 0.6039	-2.8331	-2.2288	62.8882	99.9943	
   641	-0.3507	-3.9781	-4.3288	-0.2082	-3.4466	-3.6545	-0.1419	-3.0819	-3.2234	62.1065	99.9899	
   642	-1.5413	-4.0329	-5.5742	-1.2121	-3.3958	-4.6076	-1.0667	-3.1377	-4.2040	62.0653	99.9935	
   643	-2.1513	-3.6334	-5.7848	-1.9178	-3.1613	-5.0788	-1.9822	-3.0412	-5.0230	61.7308	99.9953	
   644	-3.0981	-3.4574	-6.5554	-2.9927	-3.0705	-6.0629	-2.8787	-2.9449	-5.8233	61.4385	99.9910	
   645	-4.1449	-3.6497	-7.7947	-3.7269	-3.1743	-6.9009	-3.1170	-2.9969	-6.1135	62.2656	99.9866	
   646	-3.2036	-3.9099	-7.1135	-2.1310	-3.2786	-5.4093	-1.1361	-2.8149	-3.9506	63.6666	99.9861	
   647	-0.7260	-3.0950	-3.8210	 0.0333	-2.4055	-2.3719	 0.5197	-2.0187	-1.4986	62.8095	99.9925	
   648	-1.3018	-2.6906	-3.9924	-0.6754	-1.8661	-2.5411	-0.0547	-1.2192	-1.2735	61.1353	99.9855	
   649	-0.1475	-1.6248	-1.7723	 0.8591	-0.8371	 0.0223	 1.3438	-0.4747	 0.8695	62.3483	99.9956	
   650	 0.1299	-1.7931	-1.6633	 0.6670	-1.2065	-0.5392	 1.1762	-0.9343	 0.2423	62.5693	99.9894	
   651	 0.0920	-2.6399	-2.5479	 0.5553	-2.4046	-1.8490	 0.2085	-2.2265	-2.0176	62.6140	99.9982	
   652	-0.6026	-2.7607	-3.3633	-0.0281	-2.0948	-2.1226	 0.1559	-1.6243	-1.4680	61.5220	99.9937	
   653	-0.4799	-2.8305	-3.3104	-0.1708	-2.3778	-2.5483	-0.1994	-2.1408	-2.3397	61.9705	99.9945	
   654	-1.7317	-3.5689	-5.3006	-1.5162	-2.9697	-4.4856	-1.3102	-2.4357	-3.7454	60.8339	99.9862	
   655	-2.2584	-3.7155	-5.9739	-2.0509	-3.1735	-5.2241	-1.7726	-2.7262	-4.4984	61.2103	99.9855	
   656	-2.7000	-3.8582	-6.5583	-2.3696	-3.2165	-5.5859	-2.0171	-2.6722	-4.6889	60.9087	99.9857	
   657	-2.8347	-3.9734	-6.8081	-2.6143	-3.3673	-5.9813	-2.3680	-2.9049	-5.2725	60.8174	99.9874	
   658	-3.2276	-4.2799	-7.5075	-3.0901	-3.6883	-6.7781	-2.9068	-3.3046	-6.2111	60.7974	99.9887	
   659	-3.5863	-4.5814	-8.1677	-3.4675	-3.9626	-7.4297	-3.3078	-3.6299	-6.9373	60.8030	99.9901	
   660	-3.7585	-4.6229	-8.3814	-3.6338	-4.0372	-7.6707	-3.5359	-3.7244	-7.2599	60.7800	99.9913	
   661	-3.6251	-4.3954	-8.0205	-3.4921	-3.7686	-7.2604	-3.3837	-3.5188	-6.9020	60.7923	99.9923	
   662	-3.3426	-4.0923	-7.4350	-3.1655	-3.4838	-6.6490	-3.0064	-3.2695	-6.2755	61.0847	99.9922	
   663	-3.1970	-3.9381	-7.1351	-3.0338	-3.3747	-6.4081	-2.8933	-3.1862	-6.0791	61.1948	99.9922	
   664	-3.6111	-4.0477	-7.6588	-3.4244	-3.3923	-6.8164	-3.2079	-3.0297	-6.2372	60.4696	99.9901	
   665	-3.5748	-3.8800	-7.4548	-3.3817	-3.2962	-6.6776	-3.1741	-2.9962	-6.1699	60.7599	99.9904	
   666	-3.4181	-3.6867	-7.1049	-3.1500	-3.0001	-6.1498	-2.8545	-2.6487	-5.5028	60.5918	99.9903	
   667	-3.2019	-3.4890	-6.6908	-2.8842	-2.8643	-5.7482	-2.6101	-2.4952	-5.1048	60.7538	99.9904	
   668	-2.9998	-3.3808	-6.3806	-2.7044	-2.8093	-5.5133	-2.4950	-2.4839	-4.9785	60.8886	99.9912	
   669	-3.0981	-3.4574	-6.5554	-2.8698	-2.8694	-5.7389	-2.6687	-2.5198	-5.1882	60.6149	99.9903	
   670	-3.3035	-3.4869	-6.7904	-3.0164	-2.8621	-5.8781	-2.7508	-2.5103	-5.2607	60.6675	99.9904	
   671	-3.7419	-3.5792	-7.3211	-3.5249	-2.8825	-6.4071	-3.1939	-2.4834	-5.6770	60.1399	99.9883	
   672	-4.4897	-3.4745	-7.9642	-4.1002	-2.6792	-6.7791	-3.5926	-2.2453	-5.8375	60.0048	99.9883	
   673	-4.4060	-3.2292	-7.6352	-3.8317	-2.4999	-6.3313	-3.2999	-2.1347	-5.4342	60.6963	99.9908	
   674	-3.9376	-3.3283	-7.2659	-3.3786	-2.5414	-5.9197	-2.7896	-1.9972	-4.7865	60.4177	99.9872	
   675	-3.4166	-3.0076	-6.4242	-2.9751	-2.0837	-5.0584	-2.3782	-1.6044	-3.9822	60.0410	99.9880	
   676	-3.9148	-2.9752	-6.8899	-3.4122	-2.2553	-5.6672	-2.8904	-1.8773	-4.7673	60.6003	99.9896	
   677	-3.9339	-2.6156	-6.5495	-3.5990	-1.9522	-5.5509	-3.2408	-1.6822	-4.9226	60.1301	99.9910	
   678	-4.1439	-2.4542	-6.5981	-3.8971	-1.8987	-5.7955	-3.5623	-1.6400	-5.2019	60.0163	99.9893	
   679	-4.5713	-2.5074	-7.0787	-4.4083	-1.9627	-6.3706	-4.0159	-1.6807	-5.6962	59.7303	99.9862	
   680	-4.7469	-2.4702	-7.2172	-4.5386	-1.9314	-6.4698	-4.1023	-1.6372	-5.7391	59.7786	99.9858	
   681	-4.7359	-2.4312	-7.1671	-4.5071	-1.8981	-6.4049	-4.0245	-1.6128	-5.6370	59.9402	99.9852	
   682	-4.7768	-2.4079	-7.1847	-4.5512	-1.8974	-6.4483	-4.1124	-1.5947	-5.7067	59.8177	99.9854	
   683	-4.8265	-2.3901	-7.2166	-4.6959	-1.8610	-6.5567	-4.2765	-1.5757	-5.8517	59.5321	99.9848	
   684	-5.0011	-2.3361	-7.3372	-4.8416	-1.8392	-6.6805	-4.4720	-1.5520	-6.0236	59.4419	99.9860	
   685	-5.1105	-2.3227	-7.4331	-5.0151	-1.7927	-6.8075	-4.5739	-1.5549	-6.1284	59.4360	99.9846	
   686	-5.2022	-2.2984	-7.5005	-5.1032	-1.7913	-6.8942	-4.7445	-1.5400	-6.2841	59.2263	99.9861	
   687	-5.2784	-2.2969	-7.5752	-5.1617	-1.7854	-6.9468	-4.7438	-1.5273	-6.2707	59.3155	99.9850	
   688	-5.2187	-2.2924	-7.5112	-5.0888	-1.7963	-6.8849	-4.6236	-1.5373	-6.1606	59.5169	99.9838	
   689	-5.2110	-2.3038	-7.5148	-5.0754	-1.8159	-6.8910	-4.6442	-1.5625	-6.2063	59.5092	99.9847	
   690	-5.1867	-2.3211	-7.5078	-5.0466	-1.8261	-6.8724	-4.5944	-1.5801	-6.1741	59.5900	99.9845	
   691	-5.2121	-2.3206	-7.5327	-5.0610	-1.8210	-6.8817	-4.6325	-1.5796	-6.2117	59.5487	99.9855	
   692	-5.1822	-2.3830	-7.5652	-4.9756	-1.8660	-6.8413	-4.5330	-1.6147	-6.1473	59.6781	99.9862	
   693	-5.1954	-2.4557	-7.6511	-4.9927	-1.9044	-6.8968	-4.5081	-1.6235	-6.1312	59.6164	99.9851	
   694	-5.1158	-2.5358	-7.6516	-4.8128	-1.8494	-6.6619	-4.2528	-1.4997	-5.7522	59.4946	99.9859	
   695	-5.0628	-2.5032	-7.5660	-4.5763	-1.8292	-6.4052	-3.9531	-1.4824	-5.4351	60.0587	99.9876	
   696	-4.8041	-2.6992	-7.5034	-4.2743	-1.9359	-6.2099	-3.6102	-1.4868	-5.0967	59.9571	99.9868	
   697	-4.5081	-2.7108	-7.2189	-3.9420	-1.9125	-5.8542	-3.2783	-1.4615	-4.7393	60.0898	99.9878	
   698	-4.5566	-2.8052	-7.3618	-4.0729	-2.0071	-6.0797	-3.4586	-1.5015	-4.9597	59.7041	99.9865	
   699	-4.7147	-2.6281	-7.3428	-4.0822	-1.8037	-5.8856	-3.4347	-1.3154	-4.7497	59.8466	99.9889	
   700	-4.5414	-2.5698	-7.1112	-3.9235	-1.7338	-5.6570	-3.1890	-1.2466	-4.4352	60.0150	99.9870	
   701	-4.2543	-2.4576	-6.7120	-3.5494	-1.6288	-5.1779	-2.8128	-1.1201	-3.9325	60.2276	99.9879	
   702	-4.0125	-2.3895	-6.4020	-3.3093	-1.5506	-4.8596	-2.5555	-1.0684	-3.6235	60.3835	99.9880	
   703	-3.9087	-2.3579	-6.2666	-3.2652	-1.5513	-4.8162	-2.5637	-1.0979	-3.6612	60.3631	99.9882	
   704	-3.9066	-2.3243	-6.2308	-3.2958	-1.5702	-4.8657	-2.5932	-1.1653	-3.7581	60.5633	99.9877	
   705	-3.6338	-2.3017	-5.9354	-3.0125	-1.5072	-4.5194	-2.3892	-1.0493	-3.4381	60.2865	99.9891	
   706	-3.6813	-2.2502	-5.9315	-3.1123	-1.4571	-4.5691	-2.3620	-1.0200	-3.3816	60.4395	99.9859	
   707	-3.7366	-2.1873	-5.9239	-2.9882	-1.3528	-4.3406	-2.0934	-0.8879	-2.9810	60.8184	99.9860	
   708	-3.5831	-2.1736	-5.7567	-2.7116	-1.2800	-3.9914	-1.7736	-0.7480	-2.5213	60.8620	99.9867	
   709	-3.5522	-2.0900	-5.6422	-2.7004	-1.2173	-3.9174	-1.8358	-0.7261	-2.5615	60.8099	99.9883	
   710	-3.6793	-2.0875	-5.7667	-2.8249	-1.2104	-4.0350	-1.9649	-0.7583	-2.7227	60.8368	99.9891	
   711	-3.8825	-2.0834	-5.9659	-3.0528	-1.2114	-4.2639	-2.1635	-0.7854	-2.9485	60.8269	99.9885	
   712	-3.9576	-2.0651	-6.0227	-3.0672	-1.2063	-4.2732	-2.1561	-0.7685	-2.9242	60.9428	99.9887	
   713	-3.9908	-2.0532	-6.0439	-3.1095	-1.1765	-4.2857	-2.1391	-0.6967	-2.8354	60.8494	99.9870	
   714	-3.8208	-1.9162	-5.7370	-2.8801	-1.0352	-3.9150	-1.8266	-0.5737	-2.3999	61.1589	99.9865	
   715	-3.6530	-1.8130	-5.4660	-2.7002	-0.9802	-3.6801	-1.7225	-0.5327	-2.2547	61.2225	99.9879	
   716	-3.6144	-1.7408	-5.3552	-2.6620	-0.9567	-3.6184	-1.6937	-0.4780	-2.1713	61.2225	99.9869	
   717	-3.3153	-1.5727	-4.8880	-2.3522	-0.8216	-3.1734	-1.3358	-0.3386	-1.6740	61.4514	99.9853	
   718	-2.8770	-1.3514	-4.2284	-2.0005	-0.6049	-2.6051	-0.9243	-0.1532	-1.0771	61.5680	99.9828	
   719	-2.0348	-0.7845	-2.8193	-1.0277	 0.0222	-1.0052	 0.0960	 0.5368	 0.6332	61.6031	99.9836	
   720	-0.6818	 0.3391	-0.3427	 0.8903	 1.1899	 2.0805	 2.0712	 1.5703	 3.6419	62.8921	99.9929	
   721	 0.3325	 1.0766	 1.4091	 1.8910	 1.7924	 3.6836	 3.2156	 2.1062	 5.3223	63.6441	99.9900	
   722	 1.1075	 1.3923	 2.4998	 2.4171	 1.9770	 4.3944	 3.5611	 2.2500	 5.8116	63.4942	99.9887	
   723	 1.2908	 1.4728	 2.7636	 2.5655	 1.9987	 4.5645	 3.6482	 2.2193	 5.8679	63.6535	99.9894	
   724	 1.2036	 1.4352	 2.6388	 2.3982	 1.9096	 4.3081	 3.3373	 2.1216	 5.4593	63.4017	99.9904	
   725	 0.8702	 1.2623	 2.1325	 2.0263	 1.7223	 3.7489	 2.8480	 1.9119	 4.7603	63.1792	99.9920	
   726	 0.4143	 1.0301	 1.4443	 1.5941	 1.5119	 3.1063	 2.4078	 1.6719	 4.0801	63.1689	99.9930	
   727	 0.0369	 0.7008	 0.7377	 1.1947	 1.2380	 2.4330	 1.9497	 1.3474	 3.2975	63.0494	99.9942	
   728	-0.4344	 0.3623	-0.0722	 0.6614	 0.9373	 1.5990	 1.4228	 1.0407	 2.4639	62.8611	99.9938	
   729	-0.8008	 0.0721	-0.7287	 0.1433	 0.6460	 0.7896	 0.8664	 0.6666	 1.5334	62.7585	99.9932	
   730	-1.2060	-0.1612	-1.3671	-0.2763	 0.4015	 0.1255	 0.4623	 0.4982	 0.9608	62.5406	99.9926	
   731	-1.3528	-0.2031	-1.5560	-0.4026	 0.3794	-0.0229	 0.4036	 0.4735	 0.8775	62.6157	99.9920	
   732	-1.3274	-0.2036	-1.5311	-0.3595	 0.3642	 0.0050	 0.4249	 0.5114	 0.9367	62.5138	99.9921	
   733	-1.1871	-0.2626	-1.4497	-0.2970	 0.3051	 0.0084	 0.4642	 0.4261	 0.8908	62.5047	99.9917	
   734	-1.3217	-0.3778	-1.6995	-0.4891	 0.1728	-0.3159	 0.2618	 0.3355	 0.5977	62.3195	99.9906	
   735	-1.5326	-0.4914	-2.0240	-0.7328	 0.0366	-0.6959	-0.0067	 0.2035	 0.1971	62.2346	99.9904	
   736	-1.8791	-0.7371	-2.6162	-1.1304	-0.2083	-1.3384	-0.4198	-0.0073	-0.4267	62.0044	99.9896	
   737	-2.5779	-1.1834	-3.7612	-1.7698	-0.5604	-2.3300	-1.0039	-0.3132	-1.3166	61.7877	99.9900	
   738	-3.1320	-1.4922	-4.6242	-2.2555	-0.8038	-3.0590	-1.5444	-0.5307	-2.0747	61.4900	99.9921	
   739	-3.4245	-1.6884	-5.1129	-2.4494	-0.9651	-3.4142	-1.6893	-0.7195	-2.4084	61.7443	99.9930	
   740	-3.6352	-1.9312	-5.5664	-2.7539	-1.2503	-4.0039	-2.0580	-1.0367	-3.0942	61.7071	99.9929	
   741	-4.1045	-2.1070	-6.2115	-3.1473	-1.3114	-4.4584	-2.2967	-0.9912	-3.2875	61.4164	99.9915	
   742	-4.5905	-2.0187	-6.6093	-3.5322	-1.3533	-4.8851	-2.6729	-1.1177	-3.7902	61.9330	99.9925	
   743	-4.2813	-1.9576	-6.2389	-3.1360	-1.2487	-4.3844	-2.0589	-0.8418	-2.9003	62.0299	99.9881	
   744	-2.9731	-1.3944	-4.3674	-1.7416	-0.6964	-2.4377	-0.5894	-0.3948	-0.9838	62.9151	99.9891	
   745	-1.6053	-0.6976	-2.3029	-0.4294	-0.1669	-0.5961	 0.5656	 0.0012	 0.5673	63.5406	99.9908	
   746	-0.6501	-0.4810	-1.1311	 0.3367	-0.1411	 0.1958	 1.1325	-0.0823	 1.0506	63.9739	99.9910	
   747	-0.0579	-0.6331	-0.6911	 0.7048	-0.2490	 0.4561	 1.1057	-0.2090	 0.8971	63.1333	99.9945	
   748	-0.3416	-0.8239	-1.1655	 0.3797	-0.3935	-0.0135	 0.7661	-0.3614	 0.4051	62.9094	99.9945	
   749	-0.5393	-0.8649	-1.4041	 0.1243	-0.4811	-0.3565	 0.4524	-0.3997	 0.0531	62.6087	99.9943	
   750	-0.6387	-0.8292	-1.4679	 0.0658	-0.4753	-0.4092	 0.4384	-0.4207	 0.0181	62.8614	99.9941	
   751	-0.6156	-0.7342	-1.3498	 0.0358	-0.3683	-0.3323	 0.3902	-0.3777	 0.0129	62.8181	99.9943	
   752	-0.8839	-0.8187	-1.7026	-0.3010	-0.4643	-0.7650	-0.0284	-0.4698	-0.4978	62.4720	99.9946	
   753	-1.0286	-0.8270	-1.8556	-0.4246	-0.4428	-0.8672	-0.0891	-0.4224	-0.5111	62.4087	99.9941	
   754	-0.8719	-0.6337	-1.5056	-0.1620	-0.2392	-0.4009	 0.1988	-0.1804	 0.0188	62.4685	99.9946	
   755	-0.4623	-0.4623	-0.9246	 0.3066	-0.0342	 0.2727	 0.7985	-0.0357	 0.7633	62.9940	99.9939	
   756	-0.2261	-0.3491	-0.5752	 0.6213	 0.0621	 0.6838	 1.0706	 0.0498	 1.1208	63.1783	99.9949	
   757	-0.1102	-0.2616	-0.3718	 0.7054	 0.1139	 0.8197	 1.1432	 0.0955	 1.2391	63.2114	99.9947	
   758	-0.0628	-0.1840	-0.2468	 0.7284	 0.1281	 0.8567	 1.0919	 0.0876	 1.1800	63.2368	99.9952	
   759	-0.0794	-0.1781	-0.2574	 0.5472	 0.1698	 0.7174	 0.9726	 0.1104	 1.0833	62.9806	99.9933	
   760	-0.1357	-0.1320	-0.2678	 0.6048	 0.1495	 0.7546	 0.9283	 0.0093	 0.9380	63.3651	99.9953	
   761	-0.3898	-0.1270	-0.5167	 0.1871	 0.1711	 0.3585	 0.4074	 0.0117	 0.4196	62.7281	99.9951	
   762	-1.1410	 0.0564	-1.0846	-0.7817	 0.3133	-0.4681	-0.5207	 0.3202	-0.2001	61.5072	99.9918	
   763	-1.9895	 0.3091	-1.6804	-1.2966	 0.7768	-0.5195	-0.7656	 0.7893	 0.0241	61.4764	99.9931	
   764	-2.5570	 0.0567	-2.5003	-2.0777	 0.3932	-1.6842	-1.7624	 0.3828	-1.3792	60.9432	99.9934	
   765	-3.2479	-0.4010	-3.6490	-2.7194	 0.1234	-2.5957	-2.1533	 0.2226	-1.9303	60.6564	99.9906	
   766	-3.2236	-0.4183	-3.6420	-2.6952	 0.0407	-2.6542	-2.1560	 0.0744	-2.0811	61.0008	99.9912	
   767	-3.7161	-0.5600	-4.2761	-3.1556	-0.0337	-3.1891	-2.4557	 0.0571	-2.3982	60.8759	99.9889	
   768	-3.5672	-0.3553	-3.9225	-2.7486	 0.2449	-2.5034	-1.8335	 0.3625	-1.4706	61.4631	99.9891	
   769	-3.0471	-0.1805	-3.2276	-2.3390	 0.3299	-2.0088	-1.5894	 0.4060	-1.1830	61.4358	99.9900	
   770	-3.1996	-0.1775	-3.3770	-2.4347	 0.3267	-2.1078	-1.6516	 0.4280	-1.2233	61.4801	99.9899	
   771	-3.1267	-0.1003	-3.2271	-2.3547	 0.4318	-1.9226	-1.5802	 0.5584	-1.0214	61.3112	99.9901	
   772	-3.0672	 0.0332	-3.0340	-2.2287	 0.5651	-1.6633	-1.4128	 0.7002	-0.7121	61.4376	99.9902	
   773	-2.7240	 0.3575	-2.3666	-1.7340	 0.9536	-0.7801	-0.8587	 1.0362	 0.1779	61.7637	99.9919	
   774	-2.2230	 0.7628	-1.4602	-1.0936	 1.3202	 0.2269	-0.2315	 1.3204	 1.0893	62.3126	99.9935	
   775	-1.7218	 1.0391	-0.6828	-0.5675	 1.5049	 0.9377	 0.2268	 1.4373	 1.6645	62.7312	99.9943	
   776	-1.3265	 1.1210	-0.2055	-0.2316	 1.5863	 1.3550	 0.4475	 1.5150	 1.9629	62.5513	99.9949	
   777	-1.4490	 1.0617	-0.3874	-0.4668	 1.4693	 1.0028	 0.0713	 1.3885	 1.4602	62.2376	99.9953	
   778	-1.8952	 0.9808	-0.9144	-0.9150	 1.4720	 0.5573	-0.3004	 1.5458	 1.2457	61.5491	99.9946	
   779	-1.7993	 1.1529	-0.6464	-0.7607	 1.7065	 0.9461	 0.0364	 1.7575	 1.7943	61.8318	99.9933	
   780	-1.6216	 1.2784	-0.3431	-0.5543	 1.8337	 1.2797	 0.1533	 1.9042	 2.0580	61.6607	99.9944	
   781	-1.5332	 1.3328	-0.2005	-0.4940	 1.8569	 1.3632	 0.1719	 2.0014	 2.1737	61.4170	99.9942	
   782	-1.3953	 1.4984	 0.1031	-0.2983	 2.0471	 1.7491	 0.5240	 2.1494	 2.6738	61.8289	99.9932	
   783	-1.2364	 1.5963	 0.3599	-0.1405	 2.1025	 1.9623	 0.5741	 2.2419	 2.8164	61.6501	99.9941	
   784	-1.0465	 1.6486	 0.6021	 0.0681	 2.1474	 2.2158	 0.7999	 2.2983	 3.0986	61.7645	99.9939	
   785	-0.9250	 1.6911	 0.7660	 0.2048	 2.2177	 2.4228	 0.9107	 2.3435	 3.2545	61.7678	99.9946	
   786	-0.7594	 1.7607	 1.0013	 0.4382	 2.3057	 2.7442	 1.1306	 2.4084	 3.5395	61.9167	99.9954	
   787	-0.5154	 1.8625	 1.3471	 0.7435	 2.3682	 3.1121	 1.3922	 2.4262	 3.8189	62.2286	99.9961	
   788	-0.2239	 1.9128	 1.6889	 1.0219	 2.4700	 3.4921	 1.6978	 2.4350	 4.1332	62.4742	99.9955	
   789	-0.0637	 1.8984	 1.8347	 1.0920	 2.4156	 3.5078	 1.6271	 2.3173	 3.9448	62.4146	99.9956	
   790	-0.3673	 1.7922	 1.4248	 0.7534	 2.2906	 3.0443	 1.1832	 2.3315	 3.5151	61.7435	99.9967	
   791	-0.6093	 1.8531	 1.2438	 0.5291	 2.3477	 2.8770	 1.1944	 2.4118	 3.6066	62.0091	99.9952	
   792	-0.5828	 1.8694	 1.2866	 0.4801	 2.3872	 2.8676	 1.2165	 2.4624	 3.6793	61.9093	99.9938	
   793	-0.5563	 1.8858	 1.3295	 0.4886	 2.4064	 2.8953	 1.1419	 2.4888	 3.6310	61.6936	99.9946	
   794	-0.6314	 1.9041	 1.2727	 0.4801	 2.3872	 2.8676	 1.1932	 2.4966	 3.6901	61.9115	99.9942	
   795	-0.5718	 1.9085	 1.3367	 0.4886	 2.4064	 2.8953	 1.1419	 2.4888	 3.6310	61.7623	99.9946	
   796	-0.6039	 1.9372	 1.3334	 0.5075	 2.4738	 2.9817	 1.2359	 2.5723	 3.8085	61.8152	99.9943	
   797	-0.5233	 2.0030	 1.4797	 0.5984	 2.5159	 3.1145	 1.1833	 2.6492	 3.8329	61.5299	99.9956	
   798	-0.5431	 1.9585	 1.4153	 0.6559	 2.4955	 3.1517	 1.3078	 2.6052	 3.9134	61.8195	99.9957	
   799	-0.2174	 2.0137	 1.7963	 1.0741	 2.5998	 3.6741	 1.7393	 2.5954	 4.3351	62.3130	99.9958	
   800	 0.1030	 1.9848	 2.0878	 1.3146	 2.5667	 3.8815	 1.9162	 2.4745	 4.3912	62.4707	99.9952	
   801	 0.3161	 2.0030	 2.3192	 1.5798	 2.5767	 4.1568	 2.0752	 2.4767	 4.5524	62.5039	99.9953	
   802	 0.4321	 1.9614	 2.3936	 1.6356	 2.5274	 4.1632	 2.1278	 2.3998	 4.5280	62.5662	99.9951	
   803	 0.4918	 1.9658	 2.4576	 1.7035	 2.5553	 4.2590	 2.1857	 2.4118	 4.5978	62.5680	99.9947	
   804	 0.5736	 1.9193	 2.4929	 1.7794	 2.4765	 4.2562	 2.1165	 2.3195	 4.4364	62.4834	99.9945	
   805	 0.4632	 1.7868	 2.2500	 1.6305	 2.3291	 3.9599	 1.9300	 2.1779	 4.1083	62.4017	99.9947	
   806	 0.5439	 1.7235	 2.2674	 1.6691	 2.2413	 3.9107	 1.9394	 2.1227	 4.0625	62.3269	99.9955	
   807	 0.2910	 1.7453	 2.0363	 1.3724	 2.1979	 3.5706	 1.7170	 2.2272	 3.9446	62.0187	99.9970	
   808	-0.4182	 1.7932	 1.3750	 0.4009	 2.2966	 2.6978	 0.9504	 2.1608	 3.1117	61.8458	99.9939	
   809	-0.9628	 1.8939	 0.9311	 0.0903	 2.3841	 2.4747	 0.7088	 2.4732	 3.1824	61.5041	99.9949	
   810	-0.7883	 1.9690	 1.1806	 0.2845	 2.4341	 2.7189	 0.9067	 2.4876	 3.3946	61.7501	99.9951	
   811	-0.6989	 2.0402	 1.3412	 0.3637	 2.5247	 2.8887	 0.9649	 2.6096	 3.5749	61.5480	99.9952	
   812	-0.5753	 2.1163	 1.5410	 0.4707	 2.5906	 3.0616	 1.1308	 2.7261	 3.8573	61.5276	99.9940	
   813	-0.1601	 2.2427	 2.0825	 0.8916	 2.7383	 3.6303	 1.5525	 2.8689	 4.4218	61.6134	99.9941	
   814	 0.1766	 2.3370	 2.5136	 1.1920	 2.8397	 4.0320	 1.8992	 2.9280	 4.8276	61.8281	99.9935	
   815	 0.4107	 2.4165	 2.8272	 1.4101	 2.9183	 4.3287	 2.1161	 2.9422	 5.0586	62.0337	99.9936	
   816	 0.5543	 2.4080	 2.9623	 1.4883	 2.9944	 4.4830	 2.2081	 3.0977	 5.3062	61.5680	99.9928	
   817	 0.8259	 2.5429	 3.3688	 1.8395	 3.0852	 4.9251	 2.5116	 3.1785	 5.6905	61.8155	99.9939	
   818	 1.1328	 2.6995	 3.8323	 2.1471	 3.3026	 5.4501	 2.9123	 3.3936	 6.3063	61.8757	99.9930	
   819	 1.6130	 2.9145	 4.5275	 2.6401	 3.6621	 6.3024	 3.4897	 3.6954	 7.1855	61.9099	99.9926	
   820	 1.9455	 2.9415	 4.8870	 2.7479	 3.5054	 6.2536	 3.2123	 3.5211	 6.7337	61.4626	99.9945	
   821	 1.5126	 2.8042	 4.3168	 2.2007	 3.3356	 5.5366	 2.7179	 3.3326	 6.0509	61.3657	99.9930	
   822	 0.9441	 2.5349	 3.4790	 1.4223	 2.9955	 4.4181	 1.9046	 3.0169	 4.9218	60.9238	99.9908	
   823	 0.4981	 2.3249	 2.8230	 0.9717	 2.8434	 3.8154	 1.4860	 2.9249	 4.4112	60.5711	99.9902	
   824	 0.3568	 2.2380	 2.5947	 0.8647	 2.7775	 3.6425	 1.3480	 2.8504	 4.1988	60.5305	99.9914	
   825	 0.1537	 2.1129	 2.2666	 0.6766	 2.5920	 3.2689	 1.1460	 2.6624	 3.8088	60.6872	99.9914	
   826	-0.0462	 2.0383	 1.9922	 0.5381	 2.4927	 3.0311	 0.9649	 2.6096	 3.5749	60.6131	99.9922	
   827	 0.0423	 1.9636	 2.0059	 0.5938	 2.4434	 3.0375	 1.0548	 2.5195	 3.5747	60.7527	99.9919	
   828	-0.0405	 1.8642	 1.8237	 0.4917	 2.3386	 2.8307	 0.8721	 2.4414	 3.3139	60.5240	99.9926	
   829	-0.2899	 1.6784	 1.3885	 0.1544	 2.1169	 2.2716	 0.5380	 2.1704	 2.7088	60.5924	99.9917	
   830	-0.5869	 1.5440	 0.9571	-0.0596	 1.9850	 1.9257	 0.2733	 2.1018	 2.3755	60.4129	99.9930	
   831	-0.6840	 1.4842	 0.8002	-0.1734	 1.9289	 1.7558	 0.2186	 1.9330	 2.1521	60.7915	99.9928	
   832	-0.8673	 1.4037	 0.5364	-0.3933	 1.8213	 1.4283	-0.0394	 1.8686	 1.8295	60.5597	99.9925	
   833	-0.9545	 1.3661	 0.4116	-0.4823	 1.8083	 1.3262	-0.0616	 1.8180	 1.7569	60.7062	99.9920	
   834	-0.8882	 1.3423	 0.4541	-0.4190	 1.7637	 1.3450	-0.0616	 1.8180	 1.7569	60.5582	99.9924	
   835	-0.9468	 1.3547	 0.4079	-0.4994	 1.7699	 1.2707	-0.1362	 1.8444	 1.7086	60.4485	99.9918	
   836	-1.0086	 1.3167	 0.3081	-0.5624	 1.7032	 1.1411	-0.2508	 1.7358	 1.4853	60.5356	99.9928	
   837	-1.1764	 1.2134	 0.0370	-0.7805	 1.6246	 0.8444	-0.3845	 1.6274	 1.2433	60.6025	99.9914	
   838	-1.2946	 1.2214	-0.0732	-0.8637	 1.5873	 0.7239	-0.4746	 1.6073	 1.1331	60.6710	99.9914	
   839	-1.3299	 1.1996	-0.1303	-0.9010	 1.5782	 0.6775	-0.5259	 1.5995	 1.0740	60.5965	99.9917	
   840	-1.2692	 1.2209	-0.0483	-0.8237	 1.6398	 0.8165	-0.4078	 1.6615	 1.2541	60.6129	99.9916	
   841	-1.2250	 1.2480	 0.0230	-0.7517	 1.6144	 0.8630	-0.3705	 1.6484	 1.2783	60.7170	99.9919	
   842	-1.3122	 1.2105	-0.1017	-0.8722	 1.5681	 0.6961	-0.5120	 1.6205	 1.1090	60.5622	99.9916	
   843	-1.4149	 1.1957	-0.2192	-0.9613	 1.5551	 0.5941	-0.6220	 1.5881	 0.9665	60.5547	99.9923	
   844	-1.4425	 1.1626	-0.2799	-0.9928	 1.5217	 0.5293	-0.6375	 1.5417	 0.9046	60.6248	99.9922	
   845	-1.5353	 1.1700	-0.3653	-1.0674	 1.5036	 0.4365	-0.7276	 1.5216	 0.7944	60.6547	99.9925	
   846	-1.6049	 1.1434	-0.4615	-1.1708	 1.4957	 0.3252	-0.8610	 1.5234	 0.6628	60.4286	99.9926	
   847	-1.5861	 1.1711	-0.4151	-1.0876	 1.5330	 0.4457	-0.6514	 1.5207	 0.8696	60.8869	99.9919	
   848	-1.4757	 1.1745	-0.3012	-1.0130	 1.5511	 0.5384	-0.6608	 1.5758	 0.9154	60.5562	99.9925	
   849	-1.5187	 1.1641	-0.3546	-1.0732	 1.5279	 0.4550	-0.6888	 1.5338	 0.8455	60.6606	99.9919	
   850	-1.6027	 1.1770	-0.4257	-1.1393	 1.5290	 0.3900	-0.7650	 1.5348	 0.7703	60.6577	99.9922	
   851	-1.6612	 1.1894	-0.4718	-1.1910	 1.5251	 0.3344	-0.8412	 1.5358	 0.6950	60.6158	99.9925	
   852	-1.6888	 1.1563	-0.5325	-1.2773	 1.5556	 0.2785	-0.8983	 1.5365	 0.6386	60.4692	99.9920	
   853	-1.7639	 1.1746	-0.5893	-1.3232	 1.5273	 0.2044	-0.9745	 1.5375	 0.5634	60.4646	99.9923	
   854	-1.7540	 1.1969	-0.5572	-1.2917	 1.5606	 0.2692	-0.9018	 1.5832	 0.6817	60.5143	99.9919	
   855	-1.6082	 1.2220	-0.3862	-1.1339	 1.6160	 0.4825	-0.7624	 1.6831	 0.9211	60.3493	99.9921	
   856	-1.6248	 1.2280	-0.3969	-1.1770	 1.6313	 0.4546	-0.8350	 1.6374	 0.8028	60.3694	99.9928	
   857	-1.7518	 1.2305	-0.5213	-1.2890	 1.6042	 0.3155	-0.9018	 1.5832	 0.6817	60.5830	99.9924	
   858	-1.7684	 1.2364	-0.5320	-1.3178	 1.6143	 0.2969	-0.9252	 1.6174	 0.6926	60.4769	99.9920	
   859	-1.7938	 1.2369	-0.5569	-1.3897	 1.6397	 0.2504	-1.0387	 1.6315	 0.5932	60.2474	99.9923	
   860	-1.8535	 1.2325	-0.6209	-1.4355	 1.6115	 0.1762	-1.1347	 1.6201	 0.4858	60.1657	99.9929	
   861	-1.8601	 1.2607	-0.5994	-1.3609	 1.6296	 0.2690	-0.9859	 1.6648	 0.6793	60.4099	99.9925	
   862	-1.7232	 1.2804	-0.4427	-1.2404	 1.6759	 0.4358	-0.8759	 1.6972	 0.8217	60.3772	99.9927	
   863	-1.7563	 1.2923	-0.4640	-1.2921	 1.6720	 0.3802	-0.9579	 1.7068	 0.7492	60.2602	99.9927	
   864	-1.8336	 1.2770	-0.5566	-1.3811	 1.6589	 0.2781	-1.0481	 1.6867	 0.6391	60.2179	99.9927	
   865	-1.8844	 1.2780	-0.6064	-1.4530	 1.6843	 0.2316	-1.1243	 1.6877	 0.5638	60.1396	99.9929	
   866	-1.9595	 1.2964	-0.6632	-1.5047	 1.6804	 0.1759	-1.1989	 1.7141	 0.5156	60.0660	99.9931	
   867	-2.0192	 1.2920	-0.7272	-1.5852	 1.6866	 0.1017	-1.2378	 1.7019	 0.4645	60.1020	99.9925	
   868	-2.1031	 1.3049	-0.7983	-1.6513	 1.6877	 0.0367	-1.3140	 1.7029	 0.3893	60.0987	99.9928	
   869	-2.0424	 1.3261	-0.7163	-1.5739	 1.7493	 0.1757	-1.1710	 1.7561	 0.5855	60.1918	99.9923	
   870	-1.9231	 1.3349	-0.5882	-1.4216	 1.7177	 0.2964	-1.0750	 1.7676	 0.6930	60.1934	99.9929	
   871	-1.9662	 1.3246	-0.6416	-1.5366	 1.7583	 0.2220	-1.1710	 1.7561	 0.5855	60.0744	99.9925	
   872	-2.0336	 1.3315	-0.7020	-1.5739	 1.7493	 0.1757	-1.2705	 1.7913	 0.5211	59.8898	99.9933	
   873	-2.0667	 1.3434	-0.7233	-1.6171	 1.7645	 0.1477	-1.3078	 1.8044	 0.4970	59.8521	99.9932	
   874	-2.1419	 1.3618	-0.7801	-1.6976	 1.7707	 0.0735	-1.3607	 1.7712	 0.4110	59.9908	99.9930	
   875	-2.2346	 1.3692	-0.8654	-1.7637	 1.7719	 0.0085	-1.4369	 1.7722	 0.3357	59.9891	99.9934	
   876	-2.2788	 1.3421	-0.9367	-1.8441	 1.7781	-0.0658	-1.5131	 1.7732	 0.2605	59.8400	99.9931	
   877	-2.2512	 1.3752	-0.8760	-1.7609	 1.8154	 0.0547	-1.3934	 1.8606	 0.4676	59.8659	99.9929	
   878	-2.1386	 1.4122	-0.7264	-1.6260	 1.8566	 0.2309	-1.2959	 1.8975	 0.6020	59.8694	99.9937	
   879	-2.1827	 1.3850	-0.7977	-1.7092	 1.8193	 0.1104	-1.4074	 1.8396	 0.4326	59.8145	99.9937	
   880	-2.2965	 1.3312	-0.9653	-1.8842	 1.7255	-0.1584	-1.5888	 1.6768	 0.0884	59.9619	99.9934	
   881	-2.4013	 1.2828	-1.1186	-2.0429	 1.6556	-0.3870	-1.7605	 1.5688	-0.1913	59.9725	99.9932	
   882	-2.4388	 1.2274	-1.2115	-2.1576	 1.5850	-0.5723	-1.9168	 1.5073	-0.4091	59.7644	99.9928	
   883	-2.4488	 1.2051	-1.2436	-2.2035	 1.5567	-0.6465	-1.9323	 1.4609	-0.4710	59.8321	99.9921	
   884	-2.3693	 1.2541	-1.1152	-2.0515	 1.6364	-0.4148	-1.7450	 1.6152	-0.1294	59.7618	99.9921	
   885	-1.9917	 1.4542	-0.5375	-1.4511	 1.9505	 0.4997	-1.0332	 2.0381	 1.0053	59.8747	99.9928	
   886	-1.4993	 1.5959	 0.0966	-0.9745	 2.0489	 1.0747	-0.6215	 2.0159	 1.3948	60.3293	99.9938	
   887	-1.9165	 1.3068	-0.6097	-1.3500	 1.8036	 0.4539	-0.9304	 1.8462	 0.9162	60.1932	99.9933	
   888	-2.2597	 0.9825	-1.2772	-1.8160	 1.4050	-0.4107	-1.4724	 1.3957	-0.0763	60.1919	99.9930	
   889	-3.0245	 0.4308	-2.5937	-2.6746	 0.7227	-1.9516	-2.5067	 0.6847	-1.8216	60.0750	99.9940	
   890	-3.5787	 0.1220	-3.4567	-2.9885	 0.6409	-2.3473	-2.5597	 0.8590	-1.7002	59.6475	99.9924	
   891	-3.1138	 0.2306	-2.8833	-2.4647	 0.6707	-1.7936	-2.1603	 0.6336	-1.5262	60.6323	99.9953	
   892	-2.9988	 0.0430	-2.9557	-2.4490	 0.5689	-1.8798	-2.0709	 0.6409	-1.4295	60.2150	99.9937	
   893	-2.8329	-0.1455	-2.9784	-2.2967	 0.3001	-1.9963	-1.9831	 0.3052	-1.6776	60.6944	99.9943	
   894	-2.8316	-0.3869	-3.2184	-2.3216	 0.0199	-2.3014	-1.9744	 0.0297	-1.9443	60.9768	99.9935	
   895	-3.0686	-0.7750	-3.8437	-2.5902	-0.3965	-2.9865	-2.1813	-0.3446	-2.5255	61.1467	99.9918	
   896	-3.2672	-1.0910	-4.3581	-2.7540	-0.6648	-3.4185	-2.2962	-0.5634	-2.8592	61.1535	99.9914	
   897	-3.4580	-1.2892	-4.7473	-2.9249	-0.8119	-3.7365	-2.4322	-0.7099	-3.1417	61.1549	99.9915	
   898	-3.5309	-1.3664	-4.8972	-2.9542	-0.9275	-3.8814	-2.4888	-0.8066	-3.2950	61.2603	99.9920	
   899	-3.6026	-1.4267	-5.0293	-3.0432	-0.9405	-3.9835	-2.5409	-0.8271	-3.3676	61.1900	99.9916	
   900	-3.6026	-1.4267	-5.0293	-3.0271	-0.9166	-3.9434	-2.4888	-0.8066	-3.2950	61.2359	99.9915	
   901	-3.5021	-1.4455	-4.9476	-2.9111	-0.9428	-3.8535	-2.4193	-0.8117	-3.2306	61.1995	99.9921	
   902	-3.3696	-1.3640	-4.7336	-2.7609	-0.8921	-3.6527	-2.3248	-0.8257	-3.1500	61.4103	99.9934	
   903	-3.2316	-1.3274	-4.5590	-2.7227	-0.8685	-3.5909	-2.4091	-0.8542	-3.2629	61.1954	99.9941	
   904	-3.0914	-1.2573	-4.3487	-2.6309	-0.8120	-3.4426	-2.3520	-0.8550	-3.2065	61.2567	99.9941	
   905	-3.0141	-1.2420	-4.2561	-2.6012	-0.8077	-3.4086	-2.3842	-0.8630	-3.2468	61.1309	99.9944	
   906	-3.0207	-1.2138	-4.2345	-2.6071	-0.7834	-3.3902	-2.3944	-0.8205	-3.2145	61.0584	99.9944	
   907	-2.9953	-1.2143	-4.2096	-2.6012	-0.8077	-3.4086	-2.4091	-0.8542	-3.2629	61.0869	99.9944	
   908	-3.0207	-1.2138	-4.2345	-2.6071	-0.7834	-3.3902	-2.3271	-0.8637	-3.1904	61.3224	99.9938	
   909	-2.9523	-1.2039	-4.1562	-2.5486	-0.7892	-3.3375	-2.2898	-0.8769	-3.1663	61.3553	99.9939	
   910	-2.8993	-1.1713	-4.0706	-2.5352	-0.8088	-3.3436	-2.3916	-0.8799	-3.2711	61.1470	99.9946	
   911	-2.9677	-1.1812	-4.1489	-2.6597	-0.8018	-3.4612	-2.4958	-0.9209	-3.4162	61.1358	99.9941	
   912	-3.0285	-1.2024	-4.2309	-2.7361	-0.8489	-3.5848	-2.6007	-0.9746	-3.5749	61.1232	99.9942	
   913	-3.0892	-1.2236	-4.3128	-2.7811	-0.8627	-3.6435	-2.6629	-0.9526	-3.6151	60.9753	99.9945	
   914	-3.0704	-1.1960	-4.2664	-2.8233	-0.8330	-3.6560	-2.6878	-0.9438	-3.6312	60.9307	99.9939	
   915	-3.0594	-1.1569	-4.2163	-2.7707	-0.8145	-3.5849	-2.6532	-0.8977	-3.5505	60.9366	99.9943	
   916	-2.9722	-1.1193	-4.0916	-2.6732	-0.7823	-3.4551	-2.5557	-0.8608	-3.4161	60.9797	99.9944	
   917	-2.9800	-1.1080	-4.0879	-2.6934	-0.7529	-3.4460	-2.5557	-0.8608	-3.4161	61.0170	99.9941	
   918	-3.0484	-1.1178	-4.1663	-2.7613	-0.7808	-3.5417	-2.6210	-0.8896	-3.5102	61.0500	99.9941	
   919	-3.2901	-1.3151	-4.6052	-2.9695	-0.9369	-3.9062	-2.8250	-1.0056	-3.8301	60.9007	99.9944	
   920	-3.5925	-1.5335	-5.1261	-3.2254	-1.1504	-4.3755	-3.0445	-1.1680	-4.2120	60.9022	99.9943	
   921	-3.9182	-1.7179	-5.6360	-3.5151	-1.3148	-4.8296	-3.2449	-1.3306	-4.5751	61.0557	99.9937	
   922	-4.3288	-2.0352	-6.3639	-3.9661	-1.5927	-5.5585	-3.6662	-1.5708	-5.2366	60.8141	99.9929	
   923	-4.7836	-2.2506	-7.0342	-4.3592	-1.7651	-6.1240	-3.9456	-1.6731	-5.6183	60.7561	99.9918	
   924	-5.1878	-2.3380	-7.5257	-4.7058	-1.7835	-6.4889	-4.2473	-1.6184	-5.8653	60.3982	99.9917	
   925	-5.4672	-2.3324	-7.7996	-4.9521	-1.7261	-6.6779	-4.4017	-1.5444	-5.9457	60.3050	99.9909	
   926	-5.4872	-2.2478	-7.7350	-4.9094	-1.6300	-6.5391	-4.3904	-1.4641	-5.8541	60.3115	99.9924	
   927	-5.2267	-2.0229	-7.2496	-4.5874	-1.4177	-6.0047	-4.1036	-1.3449	-5.4482	60.6536	99.9938	
   928	-4.9806	-1.8875	-6.8680	-4.3989	-1.3435	-5.7421	-4.0333	-1.3374	-5.3703	60.6985	99.9945	
   929	-4.9550	-2.0171	-6.9721	-4.5029	-1.4772	-5.9798	-4.1852	-1.4328	-5.6177	60.3347	99.9939	
   930	-5.3679	-2.2389	-7.6068	-4.9103	-1.6445	-6.5545	-4.5012	-1.5092	-6.0101	60.0466	99.9927	
   931	-5.5733	-2.2685	-7.8418	-5.0510	-1.6615	-6.7122	-4.5490	-1.5637	-6.1123	60.3594	99.9924	
   932	-5.5259	-2.1909	-7.7168	-4.9804	-1.5901	-6.5702	-4.4880	-1.5009	-5.9885	60.4015	99.9928	
   933	-5.4387	-2.1533	-7.5920	-4.9354	-1.5763	-6.5114	-4.5055	-1.4753	-5.9804	60.2379	99.9930	
   934	-5.4199	-2.1256	-7.5456	-4.9336	-1.5473	-6.4806	-4.4981	-1.4585	-5.9562	60.2362	99.9928	
   935	-5.4431	-2.0915	-7.5346	-4.9318	-1.5183	-6.4498	-4.5390	-1.3986	-5.9372	60.0873	99.9935	
   936	-5.3372	-2.0263	-7.3634	-4.8324	-1.4571	-6.2892	-4.4321	-1.4170	-5.8486	60.3446	99.9936	
   937	-5.4255	-2.0806	-7.5061	-4.9893	-1.4980	-6.4870	-4.6020	-1.3893	-5.9909	59.9242	99.9929	
   938	-5.5790	-2.0944	-7.6734	-5.1233	-1.5248	-6.6478	-4.6878	-1.4433	-6.1308	60.1108	99.9925	
   939	-5.7280	-2.1700	-7.8980	-5.2982	-1.6186	-6.9165	-4.9012	-1.5041	-6.4049	59.9046	99.9925	
   940	-5.7071	-2.1087	-7.8158	-5.2524	-1.5903	-6.8424	-4.8690	-1.4960	-6.3646	60.0526	99.9930	
   941	-5.6674	-2.0197	-7.6871	-5.2069	-1.4508	-6.6574	-4.7917	-1.3742	-6.1655	59.9936	99.9929	
   942	-5.4908	-1.9109	-7.4018	-4.9870	-1.3432	-6.3299	-4.5752	-1.2626	-5.8375	60.0873	99.9933	
   943	-5.4721	-1.8833	-7.3553	-5.0167	-1.3475	-6.3639	-4.6250	-1.2450	-5.8696	59.9633	99.9929	
   944	-5.9513	-1.9523	-7.9036	-5.5781	-1.2751	-6.8530	-5.1021	-1.0440	-6.1458	58.9690	99.9905	
   945	-5.9470	-0.7063	-6.6533	-5.3846	 0.0571	-5.3271	-4.7327	 0.3364	-4.3959	58.4935	99.9903	
   946	-4.9209	 0.3452	-4.5756	-4.2808	 1.0160	-3.2645	-3.6048	 1.2283	-2.3761	58.9844	99.9907	
   947	-4.3832	 0.5310	-3.8522	-3.7390	 1.0987	-2.6400	-2.9824	 1.1186	-1.8634	60.1429	99.9903	
   948	-4.2184	 0.3256	-3.8928	-3.6740	 0.8460	-2.8276	-2.9869	 0.8349	-2.1516	60.2495	99.9901	
   949	-4.1740	 0.0946	-4.0794	-3.8184	 0.5339	-3.2842	-3.1899	 0.5240	-2.6655	60.1556	99.9878	
   950	-4.1496	-0.0518	-4.2014	-3.8122	 0.3983	-3.4136	-3.1389	 0.4217	-2.7168	60.1987	99.9862	
   951	-4.1482	-0.2932	-4.4414	-3.8447	 0.1134	-3.7310	-3.3214	 0.1360	-3.1850	60.1169	99.9882	
   952	-4.3766	-0.5468	-4.9234	-4.0998	-0.0855	-4.1850	-3.5308	-0.0688	-3.5992	60.0716	99.9876	
   953	-4.5786	-0.6551	-5.2337	-4.2891	-0.1743	-4.4631	-3.7493	-0.1084	-3.8572	59.8065	99.9880	
   954	-4.5301	-0.5606	-5.0907	-4.1249	-0.0174	-4.1420	-3.4640	-0.0146	-3.4782	60.2586	99.9887	
   955	-4.3326	-0.3906	-4.7231	-3.9454	 0.1490	-3.7962	-3.3813	 0.1961	-3.1848	59.8911	99.9897	
   956	-4.3823	-0.3727	-4.7550	-4.0659	 0.1026	-3.9630	-3.5764	 0.1224	-3.4537	59.8137	99.9898	
   957	-4.6054	-0.4132	-5.0185	-4.3070	 0.0099	-4.2968	-3.8516	-0.0139	-3.8650	59.8907	99.9902	
   958	-4.7765	-0.4378	-5.2144	-4.5147	-0.0205	-4.5348	-3.9903	-0.1010	-4.0909	60.0656	99.9890	
   959	-4.7313	-0.3938	-5.1251	-4.4841	-0.0016	-4.4854	-4.0179	-0.0329	-4.0504	59.8357	99.9891	
   960	-4.6761	-0.3276	-5.0037	-4.4355	 0.0701	-4.3651	-3.9760	 0.0301	-3.9455	59.8004	99.9893	
   961	-4.5404	-0.1956	-4.7360	-4.2722	 0.2125	-4.0594	-3.7829	 0.1759	-3.6066	59.8608	99.9892	
   962	-4.4510	-0.1244	-4.5754	-4.2043	 0.2404	-3.9636	-3.7829	 0.1759	-3.6066	59.8783	99.9900	
   963	-4.5415	-0.2124	-4.7539	-4.3438	 0.1267	-4.2168	-3.9612	 0.0638	-3.8971	59.7768	99.9898	
   964	-4.6806	-0.2657	-4.9463	-4.4787	 0.0854	-4.3930	-4.0852	 0.0103	-4.0745	59.7713	99.9899	
   965	-4.6795	-0.2489	-4.9284	-4.4787	 0.0854	-4.3930	-4.0852	 0.0103	-4.0745	59.8068	99.9897	
   966	-4.7646	-0.2528	-5.0174	-4.5793	 0.1210	-4.4581	-4.1599	 0.0367	-4.1228	59.6966	99.9895	
   967	-4.7348	-0.1861	-4.9209	-4.5029	 0.1681	-4.3345	-4.1055	 0.0953	-4.0098	59.7413	99.9902	
   968	-4.7447	-0.2083	-4.9531	-4.5555	 0.1496	-4.4056	-4.1027	 0.0360	-4.0664	59.8869	99.9891	
   969	-4.7602	-0.1856	-4.9458	-4.5555	 0.1496	-4.4056	-4.2023	 0.0711	-4.1307	59.6481	99.9905	
   970	-4.8198	-0.1900	-5.0098	-4.6513	 0.1464	-4.5046	-4.2617	 0.0338	-4.2275	59.7155	99.9898	
   971	-4.8453	-0.1895	-5.0347	-4.6800	 0.1565	-4.5232	-4.3290	 0.0770	-4.2516	59.4871	99.9902	
   972	-4.8784	-0.1776	-5.0560	-4.7241	 0.1573	-4.5665	-4.3760	 0.0352	-4.3404	59.5881	99.9904	
   973	-5.0826	-0.3194	-5.4020	-4.9809	-0.0707	-5.0513	-4.7307	-0.2609	-4.9912	59.7108	99.9913	
   974	-5.3453	-0.4489	-5.7942	-5.2709	-0.1238	-5.3944	-4.9029	-0.2714	-5.1739	59.5006	99.9892	
   975	-5.3432	-0.4153	-5.7584	-5.2700	-0.1093	-5.3790	-4.9204	-0.2458	-5.1658	59.4589	99.9893	
   976	-5.3554	-0.3421	-5.6974	-5.2799	-0.0317	-5.3113	-4.9100	-0.1781	-5.0877	59.4647	99.9891	
   977	-5.4018	-0.2738	-5.6756	-5.2780	-0.0027	-5.2805	-4.9325	-0.1313	-5.0634	59.5045	99.9897	
   978	-5.3775	-0.2911	-5.6686	-5.3221	-0.0020	-5.3238	-4.9819	-0.2111	-5.1926	59.5571	99.9897	
   979	-5.5067	-0.3222	-5.8289	-5.4426	-0.0483	-5.4907	-5.1269	-0.1923	-5.3188	59.3254	99.9896	
   980	-5.5134	-0.2940	-5.8074	-5.4475	-0.0095	-5.4568	-5.1164	-0.1247	-5.2407	59.2217	99.9892	
   981	-5.5035	-0.2717	-5.7752	-5.4466	 0.0050	-5.4414	-5.1063	-0.1671	-5.2730	59.4033	99.9894	
   982	-5.5289	-0.2712	-5.8001	-5.4754	 0.0151	-5.4600	-5.1444	-0.1667	-5.3106	59.3614	99.9896	
   983	-5.5543	-0.2707	-5.8250	-5.5195	 0.0159	-5.5033	-5.1444	-0.1667	-5.3106	59.4033	99.9886	
   984	-5.6294	-0.2524	-5.8818	-5.5923	 0.0268	-5.5652	-5.2587	-0.1652	-5.4235	59.3134	99.9894	
   985	-5.6636	-0.2573	-5.9209	-5.6305	 0.0032	-5.6270	-5.3605	-0.1681	-5.5282	59.1448	99.9902	
   986	-5.7144	-0.2563	-5.9707	-5.7042	-0.0004	-5.7043	-5.3958	-0.2270	-5.6224	59.3274	99.9896	
   987	-5.8060	-0.3611	-6.1671	-5.8369	-0.1239	-5.9606	-5.5633	-0.3688	-5.9317	59.2971	99.9897	
   988	-5.9639	-0.4422	-6.4060	-6.0415	-0.2221	-6.2633	-5.7731	-0.4762	-6.2490	59.2321	99.9892	
   989	-6.0677	-0.4738	-6.5414	-6.1400	-0.2688	-6.4086	-5.8956	-0.5043	-6.3995	59.1446	99.9894	
   990	-6.0303	-0.2893	-6.3196	-6.0765	-0.0763	-6.1526	-5.7822	-0.3109	-6.0927	59.1717	99.9890	
   991	-5.9122	-0.1682	-6.0804	-5.9533	 0.0135	-5.9395	-5.6874	-0.2147	-5.9017	59.1738	99.9892	
   992	-5.9122	-0.1682	-6.0804	-6.0023	 0.0531	-5.9489	-5.7123	-0.2059	-5.9178	59.0928	99.9887	
   993	-5.9675	-0.1053	-6.0728	-6.0063	 0.1064	-5.8996	-5.6820	-0.1258	-5.8075	59.1520	99.9885	
   994	-5.9201	-0.0277	-5.9478	-5.9366	 0.1632	-5.7730	-5.6144	-0.0589	-5.6730	59.1985	99.9886	
   995	-5.8837	 0.0109	-5.8728	-5.9253	 0.2260	-5.6991	-5.5916	 0.0043	-5.5868	59.0879	99.9882	
   996	-5.8296	 0.0603	-5.7693	-5.8682	 0.3169	-5.5509	-5.5473	 0.1054	-5.4415	58.9075	99.9887	
   997	-5.8197	 0.0826	-5.7371	-5.8682	 0.3169	-5.5509	-5.5547	 0.0886	-5.4657	58.9754	99.9887	
   998	-5.8727	 0.0499	-5.8227	-5.8718	 0.2589	-5.6126	-5.5943	 0.0636	-5.5303	58.9754	99.9895	
   999	-5.9036	 0.0955	-5.8082	-5.9104	 0.3467	-5.5634	-5.6072	 0.1655	-5.4413	58.7974	99.9891	
  1000	-5.9004	 0.1459	-5.7545	-5.9288	 0.4051	-5.5235	-5.6115	 0.1994	-5.4117	58.7952	99.9889	
  1001	-5.8706	 0.2127	-5.6579	-5.8802	 0.4768	-5.4031	-5.5622	 0.2793	-5.2825	58.7680	99.9891	
  1002	-5.8928	 0.2636	-5.6291	-5.8708	 0.5105	-5.3599	-5.5899	 0.3474	-5.2421	58.6559	99.9897	
  1003	-5.9171	 0.2810	-5.6361	-5.9274	 0.5454	-5.3817	-5.6396	 0.3650	-5.2743	58.5731	99.9895	
  1004	-6.0088	 0.3052	-5.7035	-6.0232	 0.5421	-5.4807	-5.7415	 0.3621	-5.3790	58.5618	99.9893	
  1005	-6.0232	 0.3448	-5.6784	-6.0128	 0.5904	-5.4221	-5.6770	 0.3782	-5.2984	58.7680	99.9891	
  1006	-6.0309	 0.3562	-5.6747	-6.0330	 0.6197	-5.4130	-5.7120	 0.4294	-5.2821	58.5776	99.9891	
  1007	-6.0276	 0.4066	-5.6210	-6.0235	 0.6535	-5.3698	-5.7295	 0.4551	-5.2740	58.5708	99.9896	
  1008	-6.0597	 0.4354	-5.6244	-6.0860	 0.7126	-5.3731	-5.7894	 0.5152	-5.2738	58.3780	99.9894	
  1009	-6.1062	 0.5036	-5.6025	-6.0842	 0.7416	-5.3423	-5.8244	 0.5664	-5.2576	58.3780	99.9902	
  1010	-6.1492	 0.4933	-5.6560	-6.1863	 0.6368	-5.5492	-6.0171	 0.3232	-5.6934	58.7226	99.9913	
  1011	-6.8367	-0.1721	-7.0088	-7.1137	-0.0878	-7.2013	-7.0346	-0.4261	-7.4603	58.3246	99.9897	
  1012	-7.3302	-0.3307	-7.6609	-7.4815	-0.0913	-7.5725	-7.2672	-0.2791	-7.5459	57.8209	99.9890	
  1013	-7.1437	-0.1997	-7.3434	-7.3286	 0.0029	-7.3254	-7.1067	-0.2515	-7.3578	58.0863	99.9887	
  1014	-7.0510	-0.0781	-7.1291	-7.1091	 0.2218	-6.8870	-6.7504	 0.0701	-6.6800	58.0462	99.9877	
  1015	-6.3756	 0.4024	-5.9732	-6.2626	 0.8269	-5.4355	-5.8304	 0.7826	-5.0475	57.9468	99.9887	
  1016	-5.6051	 0.9090	-4.6961	-5.5174	 1.3417	-4.1754	-5.1785	 1.2655	-3.9126	57.8330	99.9902	
  1017	-5.4672	 1.0746	-4.3926	-5.4144	 1.4609	-3.9531	-5.1124	 1.3070	-3.8050	57.9964	99.9906	
  1018	-5.7046	 0.9446	-4.7599	-5.7499	 1.2682	-4.4814	-5.5430	 1.1220	-4.4206	57.6892	99.9905	
  1019	-5.9442	 0.9101	-5.0341	-6.0093	 1.2339	-4.7751	-5.7404	 1.0101	-4.7299	57.8973	99.9898	
  1020	-6.1451	 0.8187	-5.3264	-6.2427	 1.1459	-5.0965	-6.0101	 0.9628	-5.0470	57.5650	99.9898	
  1021	-6.2500	 0.7703	-5.4797	-6.3632	 1.0995	-5.2634	-6.1313	 0.8500	-5.2810	57.6924	99.9900	
  1022	-6.5977	 0.5078	-6.0898	-6.8454	 0.6770	-6.1680	-6.7891	 0.3756	-6.4132	57.6105	99.9907	
  1023	-7.1365	 0.3053	-6.8311	-7.4317	 0.4692	-6.9623	-7.3429	 0.1497	-7.1928	57.4767	99.9898	
  1024	-7.6103	 0.3204	-7.2899	-7.8858	 0.4962	-7.3893	-7.7297	 0.1632	-7.5661	57.3901	99.9891	
  1025	-7.4935	 0.5538	-6.9397	-7.5898	 0.7622	-6.8273	-7.3288	 0.4884	-6.8400	57.6623	99.9895	
  1026	-6.7461	 0.9654	-5.7807	-6.7889	 1.2277	-5.5609	-6.4802	 1.0705	-5.4093	57.5217	99.9886	
  1027	-6.1776	 1.2347	-4.9428	-6.2461	 1.5621	-4.6837	-5.9424	 1.3474	-4.5946	57.5653	99.9892	
  1028	-6.0141	 1.2708	-4.7434	-6.0509	 1.6265	-4.4241	-5.7955	 1.4641	-4.3311	57.3610	99.9902	
  1029	-5.9556	 1.2584	-4.6972	-6.0163	 1.5921	-4.4239	-5.8601	 1.4480	-4.4117	57.1397	99.9912	
  1030	-6.1378	 1.1946	-4.9431	-6.1934	 1.5806	-4.6126	-5.9833	 1.4072	-4.5757	57.1451	99.9909	
  1031	-6.1709	 1.2065	-4.9644	-6.2173	 1.5519	-4.6651	-6.0221	 1.3950	-4.6267	57.1750	99.9910	
  1032	-6.2736	 1.1917	-5.0819	-6.3648	 1.5447	-4.8197	-6.1850	 1.3293	-4.8552	57.1401	99.9910	
  1033	-6.4603	 1.1899	-5.2704	-6.6520	 1.5351	-5.1167	-6.4920	 1.2952	-5.1965	56.8556	99.9903	
  1034	-6.6161	 1.2716	-5.3445	-6.8103	 1.5910	-5.2190	-6.6685	 1.3186	-5.3495	56.8303	99.9906	
  1035	-6.7398	 1.3245	-5.4153	-6.9483	 1.6175	-5.3305	-6.7805	 1.3582	-5.4220	56.7862	99.9899	
  1036	-6.7930	 1.4210	-5.3719	-6.9734	 1.6857	-5.2874	-6.8082	 1.4263	-5.3815	56.8275	99.9901	
  1037	-6.7677	 1.5496	-5.2181	-6.9405	 1.8593	-5.0809	-6.7500	 1.5484	-5.2012	56.8444	99.9902	
  1038	-6.8042	 1.6401	-5.1641	-6.9800	 1.9326	-5.0471	-6.8480	 1.6090	-5.2386	56.7063	99.9910	
  1039	-6.9136	 1.6536	-5.2600	-7.0470	 1.9192	-5.1275	-6.9265	 1.5718	-5.3542	56.8519	99.9916	
  1040	-6.9490	 1.7609	-5.1881	-7.0159	 2.0638	-4.9518	-6.8271	 1.7442	-5.0824	56.8696	99.9914	
  1041	-6.6776	 2.0249	-4.6527	-6.6561	 2.4110	-4.2448	-6.4281	 2.1415	-4.2862	56.7388	99.9918	
  1042	-6.2472	 2.3867	-3.8604	-6.1078	 2.8324	-3.2751	-5.8656	 2.6172	-3.2480	56.6997	99.9926	
  1043	-6.2141	 2.5040	-3.7102	-6.0880	 2.9143	-3.1733	-5.9915	 2.6357	-3.3554	56.5657	99.9935	
  1044	-6.8302	 2.2861	-4.5441	-6.7949	 2.6601	-4.1344	-6.8225	 2.3457	-4.4764	56.0835	99.9938	
  1045	-7.3326	 2.1222	-5.2105	-7.2773	 2.5860	-4.6910	-7.2050	 2.3252	-4.8794	55.7615	99.9933	
  1046	-7.3813	 2.1568	-5.2244	-7.2458	 2.6194	-4.6261	-7.1498	 2.3965	-4.7529	55.8399	99.9938	
  1047	-7.4851	 2.1252	-5.3598	-7.3343	 2.7322	-4.6019	-7.0532	 2.6282	-4.4246	55.5026	99.9925	
  1048	-7.3382	 2.1672	-5.1710	-7.2134	 2.6672	-4.5459	-6.9979	 2.4920	-4.5055	55.8605	99.9929	
  1049	-7.4442	 2.1020	-5.3422	-7.3645	 2.6020	-4.7622	-7.1744	 2.5154	-4.6586	55.4295	99.9929	
  1050	-7.5634	 2.0931	-5.4703	-7.4391	 2.5839	-4.8549	-7.1922	 2.4309	-4.7609	55.8135	99.9927	
  1051	-7.5644	 1.9472	-5.6172	-7.4271	 2.4240	-5.0028	-7.1338	 2.3455	-4.7880	55.8758	99.9921	
  1052	-7.4108	 1.8319	-5.5789	-7.2963	 2.2815	-5.0145	-7.0521	 2.2258	-4.8259	55.8952	99.9923	
  1053	-7.4348	 1.5910	-5.8438	-7.2965	 2.0444	-5.2518	-6.9963	 1.9921	-5.0038	56.2091	99.9917	
  1054	-7.4255	 1.0801	-6.3454	-7.3219	 1.6383	-5.6832	-6.9526	 1.6654	-5.2868	56.1198	99.9903	
  1055	-7.1689	 0.7213	-6.4476	-7.0096	 1.3427	-5.6665	-6.7122	 1.4378	-5.2740	56.1060	99.9919	
  1056	-6.6861	 0.5826	-6.1035	-6.5879	 1.2679	-5.3197	-6.4039	 1.3872	-5.0163	55.8372	99.9928	
  1057	-7.0155	 0.8642	-6.1513	-6.8871	 1.6552	-5.2316	-6.5570	 1.9017	-4.6549	55.1908	99.9909	
  1058	-6.9051	 0.8676	-6.0375	-6.6524	 1.6464	-5.0057	-6.3043	 1.8773	-4.4266	55.6487	99.9921	
  1059	-6.8775	 0.9007	-5.9768	-6.6717	 1.6903	-4.9812	-6.2954	 1.9195	-4.3755	55.5747	99.9912	
  1060	-6.9744	 0.5827	-6.3917	-6.6229	 1.4136	-5.2090	-6.2249	 1.7195	-4.5050	55.7771	99.9923	
  1061	-6.5022	 1.1963	-5.3059	-6.1280	 2.0392	-4.0886	-5.6468	 2.2416	-3.4049	56.1160	99.9920	
  1062	-5.8503	 0.9195	-4.9308	-5.4255	 1.6353	-3.7899	-5.0588	 1.8782	-3.1802	56.7703	99.9931	
  1063	-4.8749	 0.7934	-4.0816	-4.6618	 1.5063	-3.1552	-4.4669	 1.5783	-2.8882	57.0576	99.9936	
  1064	-4.2673	 0.6184	-3.6488	-4.2614	 1.2092	-3.0519	-4.2563	 1.1732	-3.0828	57.3091	99.9937	
  1065	-4.3288	 0.3222	-4.0067	-4.4423	 0.9026	-3.5394	-4.5127	 0.9265	-3.5858	56.9075	99.9935	
  1066	-4.5927	 0.1759	-4.4168	-4.6037	 0.7891	-3.8143	-4.5523	 0.9016	-3.6503	57.0072	99.9928	
  1067	-4.6280	 0.1542	-4.4738	-4.6527	 0.8287	-3.8237	-4.5699	 0.9273	-3.6422	56.9059	99.9925	
  1068	-4.6037	 0.1368	-4.4668	-4.6671	 0.8338	-3.8330	-4.5699	 0.9273	-3.6422	56.8284	99.9920	
  1069	-4.6424	 0.1937	-4.4487	-4.6423	 0.8769	-3.7651	-4.5536	 0.9864	-3.5668	56.8821	99.9927	
  1070	-4.5927	 0.1759	-4.4168	-4.6230	 0.8330	-3.7897	-4.5874	 0.9529	-3.6340	56.7828	99.9929	
  1071	-4.6567	 0.1042	-4.5524	-4.7233	 0.7573	-3.9657	-4.6954	 0.8484	-3.8465	56.7928	99.9928	
  1072	-4.8796	-0.0653	-4.9449	-4.9334	 0.5721	-4.3609	-4.9265	 0.7031	-4.2230	56.6955	99.9930	
  1073	-5.2495	-0.1477	-5.3973	-5.4517	 0.6293	-4.8221	-5.5390	 0.9779	-4.5607	54.9687	99.9920	
  1074	-6.9925	 1.0882	-5.9043	-6.8867	 2.3665	-4.5199	-6.3066	 2.8897	-3.4165	53.4651	99.9873	
  1075	-7.1748	 2.2032	-4.9716	-6.5244	 3.1056	-3.4185	-5.8281	 3.4469	-2.3808	55.5901	99.9916	
  1076	-6.7906	 2.3752	-4.4154	-6.1904	 3.1580	-3.0320	-5.6431	 3.5631	-2.0796	55.4108	99.9917	
  1077	-6.2912	 2.2305	-4.0607	-5.6271	 3.1146	-2.5121	-4.9044	 3.3799	-1.5241	56.3985	99.9916	
  1078	-6.2506	 2.4654	-3.7852	-5.3413	 3.5695	-1.7715	-4.3663	 3.7670	-0.5989	56.8963	99.9915	
  1079	-5.2372	 3.0569	-2.1803	-4.8080	 3.8702	-0.9375	-4.4039	 4.1953	-0.2083	55.2808	99.9926	
  1080	-5.1257	 3.0772	-2.0485	-4.7173	 3.6751	-1.0419	-4.5933	 3.7953	-0.7977	55.8233	99.9957	
  1081	-5.3994	 2.9086	-2.4908	-4.9317	 3.6545	-1.2769	-4.5141	 3.8451	-0.6686	55.9489	99.9933	
  1082	-5.2416	 2.9897	-2.2519	-4.6943	 3.6892	-1.0048	-4.2540	 3.8375	-0.4161	56.4428	99.9937	
  1083	-4.9246	 3.0395	-1.8851	-4.3823	 3.7420	-0.6400	-3.8136	 3.8700	 0.0568	56.8913	99.9921	
  1084	-4.5933	 3.0497	-1.5436	-4.1216	 3.6795	-0.4417	-3.6521	 3.7027	 0.0509	57.1925	99.9928	
  1085	-4.6969	 2.8890	-1.8080	-4.3316	 3.4944	-0.8370	-3.8425	 3.4976	-0.3445	57.1831	99.9915	
  1086	-4.8339	 2.8693	-1.9646	-4.4396	 3.4139	-1.0253	-4.0399	 3.3857	-0.6537	57.2485	99.9929	
  1087	-5.0790	 2.7507	-2.3283	-4.7975	 3.3329	-1.4643	-4.4056	 3.3269	-1.0783	56.7687	99.9920	
  1088	-5.2270	 2.8210	-2.4060	-4.8608	 3.3775	-1.4830	-4.4523	 3.3953	-1.0566	56.8627	99.9924	
  1089	-5.1531	 2.9149	-2.2382	-4.8306	 3.5076	-1.3227	-4.4489	 3.5562	-0.8923	56.5025	99.9923	
  1090	-5.0395	 3.0979	-1.9416	-4.6714	 3.7033	-0.9677	-4.3025	 3.7704	-0.5318	56.4270	99.9929	
  1091	-4.8917	 3.2858	-1.6059	-4.5400	 3.9237	-0.6160	-4.1495	 3.9887	-0.1605	56.3104	99.9926	
  1092	-4.7913	 3.3960	-1.3953	-4.3947	 4.0132	-0.3812	-3.9323	 4.1129	 0.1810	56.5036	99.9918	
  1093	-4.6169	 3.4711	-1.1458	-4.1614	 4.1012	-0.0599	-3.6735	 4.1901	 0.5170	56.7226	99.9922	
  1094	-4.5197	 3.5309	-0.9888	-4.0072	 4.0986	 0.0917	-3.6250	 4.2572	 0.6327	56.6128	99.9934	
  1095	-4.5197	 3.5309	-0.9888	-4.0705	 4.1432	 0.0730	-3.7245	 4.2924	 0.5683	56.3052	99.9935	
  1096	-4.5253	 3.5759	-0.9494	-4.0476	 4.1573	 0.1101	-3.6250	 4.2572	 0.6327	56.7147	99.9930	
  1097	-4.5496	 3.5933	-0.9564	-4.1177	 4.2118	 0.0944	-3.7245	 4.2924	 0.5683	56.4814	99.9931	
  1098	-4.5806	 3.6388	-0.9418	-4.1150	 4.2553	 0.1406	-3.7316	 4.3857	 0.6545	56.3547	99.9934	
  1099	-4.4437	 3.6585	-0.7852	-4.0021	 4.2969	 0.2951	-3.6348	 4.4099	 0.7755	56.3190	99.9935	
  1100	-4.5530	 3.6719	-0.8811	-4.1459	 4.3477	 0.2021	-3.7549	 4.4199	 0.6654	56.2364	99.9931	
  1101	-4.7033	 3.7086	-0.9947	-4.2858	 4.3452	 0.0598	-3.9306	 4.4560	 0.5258	56.0764	99.9934	
  1102	-4.7685	 3.7492	-1.0193	-4.3204	 4.3797	 0.0596	-3.9459	 4.5198	 0.5743	56.0577	99.9933	
  1103	-4.7056	 3.8041	-0.9015	-4.2277	 4.4507	 0.2233	-3.8740	 4.5527	 0.6792	56.1348	99.9941	
  1104	-4.6614	 3.8312	-0.8302	-4.1886	 4.4888	 0.3005	-3.8173	 4.6494	 0.8325	55.9791	99.9936	
  1105	-4.4947	 3.9177	-0.5770	-3.9965	 4.6210	 0.6248	-3.5561	 4.7647	 1.2089	56.1365	99.9932	
  1106	-4.4152	 3.9666	-0.4486	-3.9124	 4.6728	 0.7607	-3.5150	 4.8150	 1.3004	56.0628	99.9938	
  1107	-4.4826	 3.9736	-0.5090	-4.0006	 4.6743	 0.6741	-3.6102	 4.8162	 1.2064	55.9777	99.9937	
  1108	-4.5832	 3.9924	-0.5907	-4.1138	 4.7440	 0.6305	-3.7140	 4.8853	 1.1717	55.7675	99.9936	
  1109	-4.6804	 4.0617	-0.6187	-4.1857	 4.7694	 0.5840	-3.8011	 4.9161	 1.1153	55.7943	99.9939	
  1110	-4.7633	 4.0915	-0.6718	-4.2864	 4.8050	 0.5188	-3.9007	 4.9512	 1.0510	55.6790	99.9938	
  1111	-4.8451	 4.1380	-0.7071	-4.3066	 4.8343	 0.5280	-3.9532	 5.0282	 1.0753	55.5841	99.9945	
  1112	-4.6905	 4.1686	-0.5219	-4.1690	 4.9191	 0.7504	-3.7325	 5.1058	 1.3737	55.6637	99.9935	
  1113	-4.6883	 4.2022	-0.4861	-4.1605	 4.9383	 0.7782	-3.7698	 5.1190	 1.3496	55.6137	99.9941	
  1114	-4.7888	 4.2211	-0.5678	-4.3043	 4.9891	 0.6851	-3.9067	 5.1673	 1.2611	55.3892	99.9938	
  1115	-4.9391	 4.2577	-0.6813	-4.4279	 5.0106	 0.5830	-4.1015	 5.2037	 1.1027	55.1875	99.9947	
  1116	-5.0551	 4.2993	-0.7557	-4.5344	 5.0705	 0.5363	-4.2259	 5.2477	 1.0222	55.0717	99.9950	
  1117	-5.1866	 4.3637	-0.8229	-4.6333	 5.1350	 0.5020	-4.3254	 5.2829	 0.9578	55.1041	99.9952	
  1118	-5.2507	 4.4211	-0.8296	-4.6805	 5.2036	 0.5234	-4.3795	 5.3344	 0.9553	55.0686	99.9953	
  1119	-5.2717	 4.4889	-0.7828	-4.6148	 5.3138	 0.6993	-4.2004	 5.4592	 1.2592	55.2901	99.9949	
  1120	-5.2629	 4.4943	-0.7686	-4.6148	 5.3138	 0.6993	-4.2918	 5.5239	 1.2325	54.9185	99.9957	
  1121	-5.5512	 4.4945	-1.0567	-4.9290	 5.3433	 0.4145	-4.6311	 5.4817	 0.8509	54.7615	99.9954	
  1122	-5.9355	 4.4516	-1.4839	-5.4060	 5.3562	-0.0496	-5.1559	 5.4207	 0.2652	54.3168	99.9944	
  1123	-6.1608	 4.3776	-1.7832	-5.6403	 5.2537	-0.3863	-5.4155	 5.3308	-0.0843	54.2047	99.9948	
  1124	-6.3219	 4.2461	-2.0758	-5.8094	 5.1355	-0.6736	-5.5192	 5.1924	-0.3264	54.3448	99.9943	
  1125	-6.3780	 4.0339	-2.3441	-5.9215	 4.8713	-1.0499	-5.6519	 4.8891	-0.7624	54.5300	99.9942	
  1126	-6.3678	 3.7980	-2.5699	-5.8730	 4.7060	-1.1668	-5.4929	 4.8913	-0.6012	54.3750	99.9943	
  1127	-5.8806	 3.5974	-2.2832	-5.3552	 4.5230	-0.8319	-4.9467	 4.7826	-0.1637	54.6615	99.9942	
  1128	-5.6615	 3.1833	-2.4782	-5.1989	 4.2010	-0.9976	-4.8431	 4.6033	-0.2394	54.1737	99.9941	
  1129	-5.9984	 3.2181	-2.7803	-5.4089	 4.2529	-1.1556	-4.9523	 4.5836	-0.3684	54.6036	99.9943	
  1130	-6.0564	 2.7141	-3.3423	-5.5944	 3.6367	-1.9574	-5.2640	 3.9480	-1.3157	54.7006	99.9944	
  1131	-4.7523	 1.9022	-2.8501	-3.9236	 2.3793	-1.5439	-3.4372	 2.2131	-1.2237	59.6151	99.9947	
  1132	-3.5416	 0.5647	-2.9769	-3.4750	 1.2056	-2.2692	-3.6509	 1.5169	-2.1336	56.3602	99.9952	
  1133	-3.9845	 0.5342	-3.4502	-3.8095	 1.2645	-2.5447	-3.5833	 1.5838	-1.9991	56.9714	99.9913	
  1134	-4.3667	 0.6541	-3.7126	-4.0880	 1.7482	-2.3395	-3.5657	 2.4011	-1.1641	55.6256	99.9867	
  1135	-4.2998	 1.1635	-3.1363	-3.6736	 2.3800	-1.2933	-3.0429	 3.0594	 0.0169	55.8971	99.9908	
  1136	-4.1323	 1.5250	-2.6073	-3.4419	 2.6761	-0.7655	-2.7842	 3.3442	 0.5603	56.1469	99.9907	
  1137	-3.8807	 1.7445	-2.1362	-3.1262	 2.7869	-0.3391	-2.4996	 3.2176	 0.7185	57.1252	99.9932	
  1138	-3.2950	 1.3624	-1.9326	-2.7795	 2.2197	-0.5595	-2.4629	 2.9842	 0.5217	56.1493	99.9890	
  1139	-3.2932	 1.7833	-1.5099	-2.9785	 2.4456	-0.5326	-2.8640	 2.8665	 0.0030	56.4791	99.9930	
  1140	-3.8009	 1.4061	-2.3947	-3.3136	 2.1416	-1.1717	-2.9549	 2.3086	-0.6459	57.8355	99.9939	
  1141	-3.4792	 1.1359	-2.3433	-2.9545	 1.8888	-1.0655	-2.6340	 2.0460	-0.5876	58.1674	99.9945	
  1142	-3.3165	 0.7678	-2.5486	-3.0387	 1.5998	-1.4386	-2.8570	 1.9303	-0.9263	56.9926	99.9936	
  1143	-4.4080	 1.0647	-3.3433	-4.2005	 2.4179	-1.7823	-3.8425	 3.4976	-0.3445	53.0129	99.9846	
  1144	-5.2393	 2.8942	-2.3450	-4.4033	 3.9940	-0.4090	-3.5738	 4.4726	 0.8992	55.9723	99.9916	
  1145	-4.5685	 2.5160	-2.0525	-3.8367	 3.2973	-0.5392	-3.2692	 3.6257	 0.3570	57.0637	99.9932	
  1146	-4.3405	 2.1073	-2.2332	-3.3423	 3.2115	-0.1304	-2.4987	 3.5480	 1.0498	57.6719	99.9934	
  1147	-3.6684	 1.4877	-2.1807	-3.1472	 2.2162	-0.9307	-2.8388	 2.4426	-0.3958	57.6727	99.9945	
  1148	-4.1108	 0.9409	-3.1699	-3.5746	 1.7299	-1.8444	-3.1681	 2.0402	-1.1275	57.6393	99.9933	
  1149	-3.8873	 0.5940	-3.2933	-3.4268	 1.3886	-2.0379	-3.0606	 1.7169	-1.3433	57.6849	99.9929	
  1150	-4.3974	 0.4414	-3.9560	-3.9412	 1.3925	-2.5484	-3.4288	 1.8275	-1.6009	57.0847	99.9909	
  1151	-4.2678	 1.1348	-3.1330	-3.6854	 2.1914	-1.4936	-3.1266	 2.7259	-0.4003	56.5035	99.9916	
  1152	-3.7697	 2.2811	-1.4886	-3.0846	 3.2168	 0.1325	-2.6607	 3.4951	 0.8347	56.9682	99.9948	
  1153	-3.6982	 2.5996	-1.0986	-2.9740	 3.3408	 0.3671	-2.6122	 3.5622	 0.9504	57.4293	99.9956	
  1154	-3.1186	 2.9080	-0.2107	-2.6167	 3.8815	 1.2651	-1.9535	 3.8418	 1.8887	57.7738	99.9906	
  1155	-3.8137	 2.1248	-1.6889	-3.4512	 2.8795	-0.5715	-3.0335	 3.0043	-0.0289	57.2716	99.9922	
  1156	-4.4941	 1.0439	-3.4502	-4.0597	 1.6123	-2.4472	-3.6860	 1.5682	-2.1173	58.6887	99.9934	
  1157	-4.6237	 0.2214	-4.4022	-4.1173	 0.8100	-3.3070	-3.8085	 0.6972	-3.1109	59.3427	99.9940	
  1158	-4.1730	 0.2405	-3.9325	-3.8152	 0.7032	-3.1117	-3.6366	 0.5976	-3.0387	59.3292	99.9945	
  1159	-3.7842	 0.2215	-3.5627	-3.6737	 0.4976	-3.1758	-3.7208	 0.3614	-3.3590	59.1806	99.9948	
  1160	-4.2739	-0.5321	-4.8059	-4.8555	-0.0631	-4.9183	-5.0502	 0.2345	-4.8153	55.7275	99.9847	
  1161	-6.9526	-0.2596	-7.2122	-6.4516	 0.6268	-5.8245	-5.7071	 1.1410	-4.5656	56.7054	99.9858	
  1162	-6.2919	 0.6477	-5.6442	-5.4305	 1.6741	-3.7560	-4.5467	 2.1512	-2.3951	57.2323	99.9906	
  1163	-5.3430	 1.6839	-3.6591	-4.4993	 2.6939	-1.8051	-3.6417	 3.2451	-0.3962	56.8147	99.9896	
  1164	-3.0138	 2.9564	-0.0574	-1.7261	 3.9004	 2.1746	-0.8219	 3.9543	 3.1327	59.6602	99.9937	
  1165	-3.1322	 2.0439	-1.0883	-2.5576	 3.4160	 0.8587	-1.1087	 3.3099	 2.2015	59.1522	99.9810	
  1166	-3.0743	 1.6274	-1.4469	-2.4999	 1.9875	-0.5121	-2.4323	 2.1239	-0.3080	58.7835	99.9965	
  1167	-3.3542	 0.9706	-2.3836	-3.0482	 1.5661	-1.4818	-2.9113	 1.6641	-1.2467	58.1092	99.9945	
  1168	-4.4038	 0.2114	-4.1924	-4.0048	 0.9629	-3.0416	-3.7423	 1.0564	-2.6855	58.0932	99.9942	
  1169	-4.5980	-0.0373	-4.6353	-4.2091	 0.5163	-3.6925	-4.0572	 0.5776	-3.4793	58.5577	99.9951	
  1170	-4.9268	-0.4011	-5.3279	-4.6369	 0.1413	-4.4953	-4.4368	 0.2902	-4.1462	58.3019	99.9934	
  1171	-5.0924	-0.4708	-5.5632	-4.7151	 0.0652	-4.6497	-4.5281	 0.1473	-4.3803	58.6299	99.9947	
  1172	-5.0846	-0.4822	-5.5668	-4.7483	 0.2399	-4.5081	-4.4006	 0.6794	-3.7208	57.3500	99.9899	
  1173	-5.1819	-0.4129	-5.5948	-4.7037	 0.3650	-4.3384	-4.3261	 0.8606	-3.4651	57.3035	99.9913	
  1174	-5.8330	 0.1390	-5.6940	-5.0140	 1.1638	-3.8498	-4.1466	 1.6208	-2.5255	57.7493	99.9904	
  1175	-5.4203	 0.4899	-4.9303	-4.5503	 1.4076	-3.1424	-3.7841	 1.8363	-1.9474	58.0009	99.9920	
  1176	-4.9225	 0.8448	-4.0777	-3.9886	 1.8095	-2.1788	-3.0773	 2.2805	-0.7964	58.2110	99.9903	
  1177	-3.9240	 0.8136	-3.1103	-2.9375	 1.6901	-1.2472	-2.1555	 2.0780	-0.0771	59.0563	99.9929	
  1178	-3.5766	 0.2847	-3.2919	-2.8069	 1.3104	-1.4962	-1.8332	 1.5232	-0.3096	59.6045	99.9895	
  1179	-3.7243	-0.0323	-3.7566	-3.1314	 0.7062	-2.4249	-2.7945	 0.9679	-1.8262	58.7524	99.9946	
  1180	-3.8645	-0.1024	-3.9670	-3.4075	 0.5221	-2.8851	-3.1749	 0.6679	-2.5066	58.8734	99.9947	
  1181	-4.3161	-0.2674	-4.5835	-3.9260	 0.3422	-3.5835	-3.6291	 0.4069	-3.2219	59.0117	99.9937	
  1182	-4.4574	-0.3544	-4.8118	-4.0843	 0.1610	-3.9230	-3.8588	 0.2870	-3.5714	58.9032	99.9938	
  1183	-4.4154	-0.3608	-4.7763	-4.0133	 0.1211	-3.8919	-3.7542	 0.2306	-3.5232	59.2068	99.9936	
  1184	-4.4099	-0.4059	-4.8157	-4.0848	 0.0352	-4.0494	-3.8870	 0.1348	-3.7518	59.0948	99.9935	
  1185	-4.4816	-0.4662	-4.9478	-4.1537	-0.0072	-4.1606	-3.9142	 0.1055	-3.8083	59.1028	99.9929	
  1186	-4.3976	-0.4791	-4.8767	-3.9135	 0.0710	-3.8422	-3.5766	 0.3299	-3.2463	59.0114	99.9926	
  1187	-4.4251	-0.6413	-5.0664	-3.8160	 0.1032	-3.7124	-3.1165	 0.5824	-2.5337	58.9504	99.9865	
  1188	-4.4371	-0.8263	-5.2633	-3.7783	 0.0010	-3.7770	-3.1303	 0.3538	-2.7761	59.1871	99.9911	
  1189	-4.7286	-0.8766	-5.6052	-3.8844	-0.0505	-3.9346	-3.0732	 0.3531	-2.7197	59.6381	99.9902	
  1190	-4.4282	-0.8208	-5.2491	-3.7104	 0.0289	-3.6812	-3.0581	 0.4969	-2.5608	58.9346	99.9907	
  1191	-4.3614	-0.3114	-4.6728	-3.2726	 0.5634	-2.7089	-2.2678	 0.9569	-1.3105	60.2098	99.9907	
  1192	-2.7139	 0.1215	-2.5923	-1.5730	 0.9412	-0.6315	-0.5934	 1.3251	 0.7321	60.9721	99.9911	
  1193	-0.9867	 0.3452	-0.6414	 0.0545	 1.1072	 1.1621	 0.8440	 1.5565	 2.4009	61.0996	99.9912	
  1194	-0.1328	 0.3057	 0.1729	 0.6956	 1.0141	 1.7100	 1.2185	 1.3398	 2.5587	61.1142	99.9934	
  1195	-0.1580	 0.0480	-0.1100	 0.6851	 0.7288	 1.4142	 1.2689	 1.0173	 2.2865	61.5961	99.9929	
  1196	 0.6727	-0.0864	 0.5863	 0.9025	 0.4445	 1.3473	 0.9458	 1.0341	 1.9804	59.4271	99.9871	
  1197	-1.5236	-0.6151	-2.1387	-0.6631	 0.0935	-0.5693	-0.2627	 0.3847	 0.1224	60.9579	99.9956	
  1198	-2.8589	-0.6782	-3.5371	-2.2983	-0.0773	-2.3753	-1.9010	 0.0881	-1.8125	60.3691	99.9934	
  1199	-3.3160	-0.7982	-4.1142	-2.7907	-0.3109	-3.1013	-2.4680	-0.1461	-2.6136	60.3147	99.9934	
  1200	-3.6274	-0.8930	-4.5204	-3.2525	-0.5257	-3.7779	-2.9801	-0.4190	-3.3987	60.3165	99.9921	
  1201	-3.7941	-0.9794	-4.7735	-3.5107	-0.6568	-4.1672	-3.2027	-0.6322	-3.8345	60.5421	99.9909	
  1202	-3.9199	-1.0892	-5.0091	-3.6825	-0.8184	-4.5006	-3.4522	-0.7645	-4.2163	60.3605	99.9908	
  1203	-4.0160	-1.1322	-5.1481	-3.8048	-0.8938	-4.6983	-3.5442	-0.9201	-4.4639	60.6802	99.9906	
  1204	-3.6680	-1.1279	-4.7959	-3.3990	-1.1039	-4.5025	-3.2362	-1.0808	-4.3166	61.2715	99.9899	
  1205	-5.1033	-1.6886	-6.7919	-4.5621	-1.2488	-5.8105	-3.7735	-0.9298	-4.7030	60.6733	99.9813	
  1206	-3.0724	-1.4878	-4.5602	-1.8568	-0.8928	-2.7493	-0.8968	-0.5391	-1.4354	62.6820	99.9905	
  1207	-2.6928	-1.1249	-3.8177	-1.6510	-0.3060	-1.9567	-0.6011	 0.1476	-0.4531	61.5673	99.9873	
  1208	-0.6698	-0.6546	-1.3244	 0.9760	-0.0261	 0.9502	 2.0962	 0.3034	 2.4001	64.3081	99.9934	
  1209	 0.8964	-0.6915	 0.2049	 2.2124	-0.0035	 2.2092	 3.0233	 0.3974	 3.4211	63.5591	99.9936	
  1210	 1.1792	-0.7757	 0.4035	 2.1795	-0.1771	 2.0026	 2.7592	 0.0238	 2.7835	63.5503	99.9944	
  1211	 1.0934	-1.0546	 0.0387	 2.0332	-0.5182	 1.5152	 2.5860	-0.1095	 2.4769	63.1329	99.9914	
  1212	-0.3852	-1.3675	-1.7527	 0.0426	-0.9636	-0.9207	 0.0589	-0.7081	-0.6489	61.4035	99.9946	
  1213	-1.3171	-1.7474	-3.0644	-0.6484	-1.0826	-1.7307	-0.4336	-0.7611	-1.1943	61.1305	99.9956	
  1214	-2.1775	-1.6797	-3.8572	-1.4549	-1.0496	-2.5043	-0.9370	-0.7842	-1.7209	61.6081	99.9927	
  1215	-2.3952	-1.6360	-4.0312	-1.6073	-1.0180	-2.6251	-0.9992	-0.7622	-1.7611	61.8338	99.9921	
  1216	-2.4160	-1.8264	-4.2424	-1.2199	-1.1697	-2.3893	-0.3522	-0.9909	-1.3427	63.3392	99.9937	
  1217	-1.8239	-1.8495	-3.6734	-0.3455	-1.1748	-1.5200	 0.7481	-0.7636	-0.0151	63.8743	99.9915	
  1218	-0.3033	-1.5431	-1.8465	 0.8124	-0.8799	-0.0672	 1.6125	-0.5502	 1.0627	63.4451	99.9923	
  1219	 0.5216	-1.3744	-0.8528	 1.8492	-0.7571	 1.0924	 2.7110	-0.4585	 2.2529	64.4269	99.9935	
