OxySoft export of:	C:\Users\TO3 TechSupport\Documents\Train2Adapt\Post_tests\T2A_63_POST_NIRS
Export date:	2022/12/22 11:01:35
Start of measurement:	2022-12-22 10:01:42.844

Datafile sample rate:	10.00	Hz
Datafile duration:	3569.900	s
Datafile total number of samples:	35699

Description:	

Optode-template:	PortaMon TSI Fit Factor
Optode distance (mm):	 35.00
Optode gradients (mm):	 5.00
DPF:	6.20

Device id:	334
# Receivers:	1
# Light sources:	6
# ADC:	2

Light source wavelengths:
device	index	wavelength
1	1	849	nm
1	2	759	nm
1	3	846	nm
1	4	757	nm
1	5	848	nm
1	6	757	nm

Export sample rate:	10.00	Hz
Selected time span:	0	3569.900
Selected time span (sample numbers):	0	35699


Legend:
Column	Trace (Measurement)
1	(Sample number)
2	Rx1-Tx1 O2Hb (T2A_63_POST_NIRS)
3	Rx1-Tx1 HHb (T2A_63_POST_NIRS)
4	Rx1-Tx1 tHb (T2A_63_POST_NIRS)
5	Rx1-Tx2 O2Hb (T2A_63_POST_NIRS)
6	Rx1-Tx2 HHb (T2A_63_POST_NIRS)
7	Rx1-Tx2 tHb (T2A_63_POST_NIRS)
8	Rx1-Tx3 O2Hb (T2A_63_POST_NIRS)
9	Rx1-Tx3 HHb (T2A_63_POST_NIRS)
10	Rx1-Tx3 tHb (T2A_63_POST_NIRS)
11	Rx1-Tx1,Tx2,Tx3 TSI% (T2A_63_POST_NIRS)
12	Rx1-Tx1,Tx2,Tx3 TSI Fit Factor (T2A_63_POST_NIRS)
13	(Event)


1	2	3	4	5	6	7	8	9	10	11	12	13
     0	119.9240	55.6621	175.5860	93.6392	42.9957	136.6348	73.0951	36.5814	109.6760	11.5652	98.7634	
     1	-1.6272	-0.1917	-1.8190	-1.9627	-0.2635	-2.2264	-2.0980	-0.3311	-2.4295	56.3649	99.9838	
     2	-1.4528	-0.1743	-1.6272	-1.7698	-0.2353	-2.0052	-1.9291	-0.2703	-2.1997	56.3185	99.9841	
     3	-1.3872	-0.1339	-1.5211	-1.6783	-0.1919	-1.8703	-1.7991	-0.2680	-2.0675	56.5708	99.9847	
     4	-1.3092	-0.1459	-1.4551	-1.5956	-0.1798	-1.7755	-1.6806	-0.2617	-1.9427	56.6577	99.9844	
     5	-1.2456	-0.1367	-1.3824	-1.5074	-0.1903	-1.6978	-1.5867	-0.2708	-1.8579	56.8010	99.9844	
     6	-1.2137	-0.1321	-1.3460	-1.4327	-0.1961	-1.6288	-1.5430	-0.2320	-1.7754	56.7466	99.9847	
     7	-1.1419	-0.1179	-1.2600	-1.3491	-0.1705	-1.5197	-1.4116	-0.2061	-1.6181	56.8707	99.9839	
     8	-0.9593	-0.0955	-1.0549	-1.1749	-0.1150	-1.2900	-1.2148	-0.1732	-1.3884	56.9563	99.9843	
     9	-0.8557	-0.0767	-0.9325	-1.0254	-0.1265	-1.1520	-1.0732	-0.1751	-1.2487	57.1361	99.9846	
    10	-0.7921	-0.0676	-0.8597	-0.9160	-0.1239	-1.0400	-0.9934	-0.1249	-1.1188	57.0863	99.9849	
    11	-0.7213	-0.0690	-0.7903	-0.8466	-0.1071	-0.9538	-0.8995	-0.1340	-1.0339	57.1947	99.9852	
    12	-0.6577	-0.0598	-0.7176	-0.7639	-0.0950	-0.8590	-0.8342	-0.1270	-0.9615	57.2323	99.9861	
    13	-0.6177	-0.0502	-0.6679	-0.7418	-0.0684	-0.8103	-0.7851	-0.0961	-0.8816	57.2085	99.9854	
    14	-0.5232	-0.0521	-0.5754	-0.5923	-0.0799	-0.6723	-0.6475	-0.0664	-0.7143	57.2643	99.9855	
    15	-0.3642	-0.0292	-0.3935	-0.4055	-0.0426	-0.4482	-0.4406	-0.0612	-0.5022	57.4815	99.9865	
    16	-0.2606	-0.0104	-0.2711	-0.2748	-0.0268	-0.3017	-0.3044	-0.0551	-0.3599	57.6258	99.9870	
    17	-0.1816	-0.0068	-0.1885	-0.2000	-0.0326	-0.2327	-0.2261	-0.0286	-0.2550	57.6017	99.9859	
    18	-0.1262	-0.0026	-0.1289	-0.1307	-0.0158	-0.1466	-0.1708	 0.0061	-0.1651	57.5450	99.9863	
    19	-0.0698	 0.0171	-0.0528	-0.0480	-0.0037	-0.0518	-0.0654	-0.0070	-0.0728	57.7518	99.9867	
    20	 0.0000	 0.0000	-0.0000	 0.0000	 0.0000	-0.0000	-0.0000	 0.0000	-0.0004	57.7255	99.9862	
    21	 0.0492	 0.0303	 0.0795	 0.0640	 0.0394	 0.1033	 0.0913	 0.0461	 0.1370	57.7751	99.9858	
    22	 0.2391	 0.0422	 0.2812	 0.2908	 0.0625	 0.3532	 0.2827	 0.0869	 0.3692	57.7920	99.9870	
    23	 0.3735	 0.0499	 0.4233	 0.4295	 0.0962	 0.5255	 0.4304	 0.0889	 0.5189	57.8998	99.9879	
    24	 0.4371	 0.0591	 0.4961	 0.5176	 0.0857	 0.6032	 0.5073	 0.0919	 0.5988	57.9708	99.9880	
    25	 0.4781	 0.0844	 0.5624	 0.5869	 0.1025	 0.6893	 0.5354	 0.1663	 0.7013	57.8171	99.9880	
    26	 0.5561	 0.0724	 0.6284	 0.6429	 0.1240	 0.7668	 0.6279	 0.1336	 0.7611	57.9508	99.9885	
    27	 0.5653	 0.0930	 0.6583	 0.6579	 0.1462	 0.8041	 0.6756	 0.1409	 0.8160	58.0560	99.9882	
    28	 0.6207	 0.0971	 0.7178	 0.7461	 0.1358	 0.8817	 0.7254	 0.1835	 0.9085	57.9671	99.9882	
    29	 0.7407	 0.1260	 0.8667	 0.8714	 0.1741	 1.0454	 0.8922	 0.2089	 1.1007	58.1144	99.9878	
    30	 0.8516	 0.1343	 0.9857	 0.9825	 0.2037	 1.1861	 1.0168	 0.2191	 1.2355	58.1887	99.9882	
    31	 0.8998	 0.1489	 1.0486	 1.0573	 0.1979	 1.2551	 1.0721	 0.2538	 1.3255	58.1645	99.9879	
    32	 0.9654	 0.1893	 1.1546	 1.1158	 0.2599	 1.3756	 1.1837	 0.2445	 1.4277	58.3972	99.9884	
    33	 1.0146	 0.2196	 1.2342	 1.1638	 0.2636	 1.4273	 1.1988	 0.2994	 1.4978	58.2687	99.9877	
    34	 1.0392	 0.2348	 1.2739	 1.2056	 0.2764	 1.4818	 1.1988	 0.2994	 1.4978	58.2629	99.9890	
    35	 1.0392	 0.2348	 1.2739	 1.2056	 0.2764	 1.4818	 1.2606	 0.2474	 1.5076	58.5257	99.9888	
    36	 1.0885	 0.2651	 1.3535	 1.2574	 0.2305	 1.4878	 1.3148	 0.1680	 1.4824	58.8362	99.9882	
    37	 1.2086	 0.1740	 1.3826	 1.2990	 0.0230	 1.3219	 1.3562	-0.1237	 1.2321	59.3452	99.9867	
    38	 1.0301	 0.0942	 1.1242	 1.0362	-0.1389	 0.8972	 1.0007	-0.4379	 0.5624	59.5968	99.9890	
    39	 1.0621	-0.0212	 1.0408	 1.0821	-0.2790	 0.8030	 1.0377	-0.6076	 0.4297	59.8515	99.9896	
    40	 1.1902	 0.1327	 1.3228	 1.3706	-0.3603	 1.0102	 1.2807	-1.0790	 0.2013	61.7954	99.9942	
    41	 0.7939	-0.7563	 0.0376	 0.6237	-1.4941	-0.8705	 0.3961	-2.4292	-2.0335	62.5918	99.9926	
    42	-0.1153	-1.6611	-1.7765	-0.7561	-2.5901	-3.3463	-1.2932	-3.6156	-4.9092	62.0206	99.9914	
    43	-1.3480	-2.4499	-3.7980	-2.2371	-3.2304	-5.4676	-2.5966	-4.0829	-6.6798	60.7891	99.9830	
    44	-1.1994	-2.2234	-3.4229	-1.7198	-2.8211	-4.5410	-1.7213	-3.3740	-5.0957	60.7961	99.9774	
    45	 0.1559	-1.9741	-1.8184	-0.1676	-2.6810	-2.8487	-0.2588	-3.2039	-3.4631	61.7923	99.9809	
    46	 0.9594	-2.0945	-1.1352	 0.5770	-2.8959	-2.3190	 0.2727	-3.4941	-3.2218	62.2509	99.9851	
    47	 0.8856	-2.1399	-1.2545	 0.5644	-2.8777	-2.3133	 0.4438	-3.3979	-2.9545	62.3199	99.9808	
    48	 1.1780	-2.1249	-0.9470	 0.8944	-2.8428	-1.9485	 0.7085	-3.4131	-2.7050	62.4942	99.9849	
    49	 1.1063	-2.2591	-1.1528	 0.8183	-2.9674	-2.1491	 0.7375	-3.5198	-2.7827	62.6732	99.9818	
    50	 1.2479	-2.2619	-1.0141	 1.0009	-2.9974	-1.9967	 0.8715	-3.5490	-2.6779	62.8108	99.9834	
    51	 1.3373	-2.3419	-1.0047	 1.0722	-3.0571	-1.9849	 0.9619	-3.6171	-2.6557	62.8807	99.9831	
    52	 1.4245	-2.3332	-0.9088	 1.1737	-3.0723	-1.8987	 1.0543	-3.6498	-2.5958	63.0516	99.9836	
    53	 1.4440	-2.3962	-0.9522	 1.1962	-3.1491	-1.9530	 1.0670	-3.7326	-2.6660	63.1521	99.9837	
    54	 1.4328	-2.4481	-1.0154	 1.1678	-3.1666	-1.9989	 1.0486	-3.7442	-2.6959	63.0502	99.9837	
    55	 1.4626	-2.4748	-1.0123	 1.1912	-3.2299	-2.0388	 1.0797	-3.8154	-2.7361	63.2191	99.9828	
    56	 1.3437	-2.6080	-1.2644	 1.0011	-3.3211	-2.3201	 0.8161	-3.8789	-3.0632	62.7603	99.9834	
    57	 0.6570	-2.3857	-1.7288	 0.0996	-2.7754	-2.6759	-0.2112	-3.0038	-3.2155	59.6301	99.9805	
    58	-0.0151	-1.3293	-1.3445	-0.1914	-1.7500	-1.9415	-0.1836	-2.3509	-2.5349	61.1365	99.9879	
    59	 0.2516	-1.2252	-0.9737	 0.2973	-1.7987	-1.5015	 0.4559	-2.7094	-2.2539	63.2841	99.9901	
    60	 0.1395	-1.9842	-1.8449	-0.2141	-2.8780	-3.0922	-0.5859	-3.8293	-4.4156	63.0026	99.9919	
    61	-0.8368	-2.5853	-3.4222	-1.4942	-3.4723	-4.9665	-1.9462	-4.4572	-6.4038	62.2113	99.9898	
    62	-1.4941	-3.0049	-4.4992	-2.2210	-3.7387	-5.9599	-2.4858	-4.3991	-6.8853	60.9445	99.9803	
    63	-0.9155	-2.9487	-3.8643	-1.4901	-3.6252	-5.1154	-1.6318	-4.2370	-5.8692	61.4815	99.9800	
    64	-0.3850	-2.9072	-3.2923	-1.0260	-3.5206	-4.5467	-1.2131	-3.9511	-5.1646	60.7722	99.9757	
    65	-0.1834	-2.3480	-2.5315	-0.6188	-2.9071	-3.5261	-0.7628	-3.3391	-4.1023	60.8404	99.9807	
    66	-0.0091	-2.2107	-2.2199	-0.4546	-2.7930	-3.2478	-0.6000	-3.2822	-3.8826	61.0477	99.9815	
    67	-0.0121	-2.2576	-2.2698	-0.4509	-2.8425	-3.2935	-0.6646	-3.2774	-3.9424	60.8003	99.9820	
    68	-0.0450	-2.2778	-2.3228	-0.4020	-2.8254	-3.2275	-0.5802	-3.2470	-3.8276	60.8913	99.9832	
    69	 0.1099	-2.1974	-2.0876	-0.2040	-2.7163	-2.9204	-0.3722	-3.1277	-3.5003	60.9115	99.9841	
    70	 0.2515	-2.2003	-1.9489	-0.0215	-2.7464	-2.7680	-0.2035	-3.1692	-3.3731	61.1566	99.9850	
    71	 0.3879	-2.1613	-1.7734	 0.1314	-2.7040	-2.5727	 0.0070	-3.1050	-3.0985	61.2779	99.9834	
    72	 0.5962	-2.1081	-1.5120	 0.3545	-2.6314	-2.2770	 0.3045	-3.0656	-2.7614	61.5691	99.9829	
    73	 0.4740	-2.0483	-1.5744	 0.1586	-2.5966	-2.4381	-0.0458	-3.0020	-3.0483	60.9893	99.9842	
    74	-0.1787	-1.9101	-2.0889	-0.6040	-2.5612	-3.1654	-0.7040	-3.2454	-3.9498	61.6562	99.9841	
    75	-0.3066	-2.3038	-2.6105	-0.5897	-3.0964	-3.6862	-0.7584	-3.9491	-4.7079	62.9542	99.9891	
    76	-0.6198	-3.1267	-3.7466	-1.2071	-4.1245	-5.3317	-1.6499	-5.1222	-6.7725	63.2926	99.9896	
    77	-1.5880	-3.6027	-5.1908	-2.3976	-4.3786	-6.7763	-2.7214	-5.1713	-7.8932	61.5723	99.9825	
    78	-1.5772	-3.0711	-4.6484	-2.2185	-3.6983	-5.9169	-2.3548	-4.2827	-6.6379	60.8510	99.9788	
    79	-0.9517	-2.6560	-3.6077	-1.5066	-3.2338	-4.7405	-1.6506	-3.6700	-5.3211	60.4659	99.9778	
    80	-0.5163	-1.8929	-2.4093	-0.6870	-2.2496	-2.9367	-0.5900	-2.6290	-3.2194	60.6395	99.9827	
    81	 0.2846	-1.4448	-1.1603	 0.2141	-1.9277	-1.7137	 0.1470	-2.4496	-2.3031	61.3868	99.9890	
    82	 0.2774	-1.4343	-1.1569	 0.1339	-1.8994	-1.7655	 0.0545	-2.4170	-2.3629	61.1403	99.9883	
    83	 0.1799	-1.3593	-1.1795	 0.0713	-1.8084	-1.7372	 0.0710	-2.3385	-2.2678	61.2565	99.9876	
    84	 0.0393	-1.3409	-1.3017	-0.0878	-1.8417	-1.9296	-0.1767	-2.3353	-2.5124	60.9983	99.9879	
    85	 0.0393	-1.3409	-1.3017	-0.0711	-1.7925	-1.8637	-0.0792	-2.2854	-2.3650	61.0515	99.9871	
    86	 0.0004	-1.4548	-1.4545	-0.1576	-1.9754	-2.1331	-0.3090	-2.6681	-2.9775	61.5050	99.9912	
    87	-0.0718	-2.0843	-2.1562	-0.3424	-3.0736	-3.4162	-0.7096	-4.0206	-4.7306	63.4227	99.9921	
    88	-0.8813	-3.2727	-4.1541	-1.4157	-4.2918	-5.7075	-1.9080	-5.3864	-7.2948	63.6432	99.9921	
    89	-1.7413	-4.1472	-5.8886	-2.7493	-5.0874	-7.8368	-3.3193	-5.9782	-9.2979	61.7614	99.9842	
    90	-2.0365	-3.4738	-5.5104	-2.7194	-3.9551	-6.6746	-2.8152	-4.3791	-7.1947	59.9692	99.9753	
    91	-0.8002	-2.2627	-3.0630	-1.3693	-2.7866	-4.1560	-1.5726	-3.2578	-4.8308	60.0545	99.9814	
    92	-0.4600	-1.7533	-2.2134	-0.6105	-2.2285	-2.8391	-0.6351	-2.6914	-3.3269	60.9474	99.9859	
    93	 0.3042	-1.5078	-1.2037	 0.2562	-2.0183	-1.7622	 0.1684	-2.5837	-2.4157	61.6505	99.9901	
    94	 0.1750	-1.5574	-1.3825	 0.0829	-2.0603	-1.9776	-0.0249	-2.5576	-2.5829	61.2708	99.9888	
    95	 0.2005	-1.4067	-1.2063	 0.1038	-1.9438	-1.8401	-0.0845	-2.4703	-2.5552	61.1893	99.9904	
    96	-0.1248	-1.4419	-1.5668	-0.3268	-1.9500	-2.2769	-0.5154	-2.4686	-2.9844	60.7211	99.9891	
    97	-0.0546	-1.8187	-1.8735	-0.3187	-2.4761	-2.7950	-0.5362	-3.1059	-3.6425	61.6030	99.9886	
    98	 0.0228	-2.3261	-2.3034	-0.3795	-2.9022	-3.2818	-0.6137	-3.3135	-3.9276	60.8059	99.9829	
    99	-0.1562	-1.8063	-1.9626	-0.5275	-2.3198	-2.8473	-0.6324	-2.9394	-3.5722	61.0979	99.9861	
   100	-0.0677	-2.1418	-2.2095	-0.4360	-3.0406	-3.4767	-0.6313	-3.9940	-4.6257	63.3615	99.9885	
   101	-0.4281	-2.9637	-3.3918	-0.8633	-3.9774	-4.8409	-1.2094	-5.0609	-6.2707	64.1038	99.9908	
   102	-1.2460	-3.9172	-5.1633	-2.1098	-5.0173	-7.1272	-2.7363	-6.0999	-8.8365	63.1806	99.9892	
   103	-2.2495	-3.9650	-6.2145	-3.1083	-4.7127	-7.8211	-3.4386	-5.3156	-8.7545	60.6778	99.9773	
   104	-1.3918	-2.7619	-4.1538	-1.9970	-3.4323	-5.4294	-2.1360	-4.1793	-6.3157	61.4177	99.9828	
   105	-0.3847	-3.2670	-3.6517	-0.9043	-3.9768	-4.8811	-0.9810	-4.7018	-5.6833	62.6911	99.9814	
   106	 0.5418	-3.1916	-2.6499	 0.0936	-3.8542	-3.7607	-0.0247	-4.7023	-4.7275	63.4118	99.9866	
   107	 0.7983	-3.1237	-2.3255	 0.3881	-3.8412	-3.4532	 0.2924	-4.7300	-4.4381	63.9055	99.9866	
   108	 0.8393	-3.0985	-2.2593	 0.4654	-3.8066	-3.3413	 0.3566	-4.6443	-4.2881	63.7709	99.9869	
   109	 0.9254	-2.9855	-2.0602	 0.6484	-3.7198	-3.0715	 0.5787	-4.5842	-4.0059	64.1607	99.9877	
   110	 1.0762	-2.9676	-1.8915	 0.7240	-3.7121	-2.9882	 0.6270	-4.5651	-3.9385	64.0188	99.9867	
   111	 1.4516	-2.7666	-1.3151	 1.1288	-3.4626	-2.3339	 1.1267	-4.3079	-3.1816	64.1374	99.9855	
   112	 2.1050	-2.5293	-0.4244	 1.7930	-3.3255	-1.5326	 1.6326	-4.2397	-2.6075	64.5136	99.9887	
   113	 2.1134	-2.7641	-0.6508	 1.6099	-3.6326	-2.0228	 1.3720	-4.4488	-3.0772	64.0851	99.9844	
   114	 1.8388	-3.1132	-1.2746	 1.3186	-4.0323	-2.7138	 0.9556	-4.8921	-3.9369	64.2083	99.9872	
   115	 0.9673	-3.7998	-2.8326	 0.2686	-4.7698	-4.5013	-0.3206	-5.5918	-5.9128	63.4857	99.9879	
   116	-0.4825	-3.9273	-4.4099	-1.5316	-4.7259	-6.2576	-2.0575	-5.3215	-7.3795	60.9375	99.9766	
   117	-1.3364	-3.7329	-5.0694	-2.2361	-4.5252	-6.7614	-2.5396	-5.3862	-7.9262	61.9245	99.9812	
   118	-1.9649	-4.3148	-6.2798	-3.0139	-5.4966	-8.5106	-3.7103	-6.5871	-10.2978	62.8247	99.9867	
   119	-3.0024	-5.2535	-8.2560	-4.2173	-6.3933	-10.6107	-4.8420	-7.2415	-12.0839	61.8293	99.9755	
   120	-2.3347	-4.9175	-7.2523	-3.1009	-5.7963	-8.8973	-3.1810	-6.4247	-9.6061	62.5820	99.9683	
   121	-0.5416	-4.3537	-4.8954	-1.2788	-5.2696	-6.5485	-1.4893	-6.0766	-7.5662	63.5882	99.9781	
   122	-0.1971	-4.1415	-4.3387	-1.0209	-4.9683	-5.9893	-1.3491	-5.6140	-6.9635	62.4057	99.9768	
   123	-0.6481	-3.5641	-4.2123	-1.4135	-4.1480	-5.5616	-1.7778	-4.6011	-6.3793	60.4454	99.9796	
   124	-1.0138	-3.1292	-4.1432	-1.6271	-3.6319	-5.2590	-1.7839	-4.1169	-5.9013	60.5457	99.9799	
   125	-0.6171	-2.7200	-3.3372	-1.0188	-3.2960	-4.3148	-1.2161	-3.8055	-5.0220	61.1138	99.9846	
   126	-0.3032	-2.6168	-2.9201	-0.7013	-3.2429	-3.9443	-0.9832	-3.7613	-4.7448	61.2145	99.9859	
   127	-0.1052	-2.5999	-2.7052	-0.5149	-3.1022	-3.6172	-0.6988	-3.5485	-4.2476	60.9082	99.9838	
   128	-0.0775	-2.5379	-2.6155	-0.7517	-3.0667	-3.8186	-1.0187	-3.5680	-4.5871	60.3930	99.9813	
   129	-0.8258	-2.2935	-3.1194	-1.3808	-3.0786	-4.4594	-1.6288	-3.8946	-5.5238	61.8129	99.9859	
   130	-0.9907	-2.6500	-3.6407	-1.6266	-3.5150	-5.1417	-1.9339	-4.4495	-6.3838	62.3028	99.9868	
   131	-1.8495	-3.7487	-5.5983	-2.9241	-4.7159	-7.6401	-3.5456	-5.6211	-9.1671	61.2601	99.9841	
   132	-2.4950	-3.6211	-6.1162	-3.4184	-4.3209	-7.7394	-3.6649	-4.9585	-8.6238	60.2815	99.9753	
   133	-1.7740	-3.3122	-5.0863	-2.4530	-4.0630	-6.5161	-2.5549	-4.7603	-7.3155	61.6331	99.9773	
   134	-0.7508	-3.4474	-4.1983	-1.3747	-4.2925	-5.6673	-1.6400	-4.9570	-6.5974	62.2512	99.9801	
   135	-0.3671	-3.3612	-3.7284	-1.0685	-4.0909	-5.1594	-1.3104	-4.6818	-5.9927	61.7042	99.9780	
   136	-0.1561	-3.0212	-3.1774	-0.6640	-3.7381	-4.4021	-0.8712	-4.3491	-5.2206	62.0639	99.9822	
   137	 0.3343	-2.8694	-2.5352	-0.1209	-3.5719	-3.6929	-0.3093	-4.2343	-4.5440	62.4707	99.9842	
   138	 0.8903	-2.7971	-1.9068	 0.3552	-3.6024	-3.2473	 0.0443	-4.3412	-4.2972	62.8385	99.9854	
   139	 0.8277	-2.7906	-1.9630	 0.3649	-3.5576	-3.1929	 0.1154	-4.2398	-4.1248	62.7858	99.9847	
   140	 0.8811	-2.8177	-1.9367	 0.4078	-3.6348	-3.2270	 0.0996	-4.3065	-4.2073	62.8125	99.9848	
   141	 0.5612	-3.0147	-2.4536	 0.0277	-3.8172	-3.7896	-0.2788	-4.5102	-4.7893	62.6903	99.9844	
   142	-0.3253	-3.0804	-3.4059	-1.1719	-3.7789	-4.9509	-1.6321	-4.3393	-5.9718	60.5592	99.9809	
   143	-1.0810	-2.5856	-3.6667	-1.8637	-3.3761	-5.2400	-2.1648	-4.2655	-6.4307	61.5382	99.9842	
   144	-1.8406	-3.3682	-5.2090	-2.8830	-4.4963	-7.3794	-3.5109	-5.6334	-9.1447	62.2873	99.9868	
   145	-3.0105	-4.2835	-7.2941	-4.1695	-5.3017	-9.4713	-4.7497	-6.1054	-10.8555	60.7436	99.9774	
   146	-2.4528	-3.8201	-6.2730	-3.2565	-4.5709	-7.8275	-3.3880	-5.2611	-8.6496	61.2869	99.9750	
   147	-1.1467	-3.6011	-4.7479	-1.9107	-4.4543	-6.3650	-2.1674	-5.1863	-7.3541	62.1071	99.9784	
   148	-0.6616	-3.4074	-4.0691	-1.4419	-4.1655	-5.6075	-1.7307	-4.7984	-6.5295	61.5269	99.9781	
   149	-0.5676	-2.9296	-3.4973	-1.2516	-3.6337	-4.8854	-1.6018	-4.2295	-5.8317	61.0217	99.9823	
   150	-0.4477	-2.7808	-3.2286	-1.0263	-3.4172	-4.4437	-1.2521	-4.0097	-5.2621	61.2487	99.9824	
   151	 0.1318	-2.5890	-2.4572	-0.3701	-3.2980	-3.6682	-0.6638	-3.9464	-4.6106	61.8237	99.9855	
   152	 0.4161	-2.5790	-2.1630	-0.0702	-3.3075	-3.3778	-0.3821	-3.9736	-4.3561	62.0743	99.9862	
   153	 0.3710	-2.6668	-2.2959	-0.1258	-3.4325	-3.5584	-0.4694	-4.0512	-4.5210	61.9969	99.9851	
   154	-0.4140	-2.6250	-3.0391	-1.2126	-3.3377	-4.5503	-1.7079	-3.9330	-5.6412	60.3509	99.9836	
   155	-1.2640	-2.2482	-3.5123	-2.0172	-2.9914	-5.0087	-2.3455	-3.6414	-5.9873	60.3167	99.9811	
   156	-1.3585	-2.1264	-3.4850	-2.0431	-2.9685	-5.0117	-2.3926	-3.9320	-6.3250	61.5345	99.9877	
   157	-2.2051	-3.1576	-5.3628	-3.3369	-4.2189	-7.5559	-4.0291	-5.2214	-9.2509	60.9193	99.9853	
   158	-2.8954	-3.4775	-6.3730	-3.9233	-4.2045	-8.1279	-4.2349	-4.8173	-9.0526	59.5745	99.9733	
   159	-1.9470	-2.6987	-4.6457	-2.7337	-3.1996	-5.9333	-2.9725	-3.6609	-6.6337	59.0906	99.9779	
   160	-1.4962	-1.9411	-3.4374	-2.1940	-2.3231	-4.5172	-2.4437	-2.7271	-5.1712	58.4501	99.9813	
   161	-1.2188	-1.3053	-2.5242	-1.7914	-1.6735	-3.4650	-2.0234	-2.1226	-4.1464	58.5550	99.9846	
   162	-1.1101	-1.2084	-2.3186	-1.6494	-1.5860	-3.2355	-1.9306	-2.0529	-3.9840	58.5917	99.9866	
   163	-1.0239	-1.2153	-2.2393	-1.4856	-1.5888	-3.0745	-1.7721	-2.0668	-3.8393	58.8193	99.9883	
   164	-0.9376	-1.3422	-2.2799	-1.3462	-1.7620	-3.1083	-1.5990	-2.2304	-3.8298	59.2471	99.9876	
   165	-0.6132	-1.4425	-2.0559	-1.0380	-1.8571	-2.8952	-1.3331	-2.3243	-3.6578	59.3524	99.9882	
   166	-0.4469	-1.5502	-1.9971	-0.9495	-1.9710	-2.9206	-1.2572	-2.4355	-3.6931	59.3380	99.9870	
   167	-0.3637	-1.6040	-1.9678	-0.8426	-2.0087	-2.8515	-1.0939	-2.4691	-3.5634	59.5320	99.9862	
   168	-0.2446	-1.7106	-1.9553	-0.7174	-2.1907	-2.9082	-0.9819	-2.5689	-3.5512	59.6372	99.9835	
   169	-0.5648	-1.6677	-2.2326	-1.1334	-2.0713	-3.2047	-1.3485	-2.4815	-3.8304	59.2052	99.9826	
   170	-0.6638	-1.1287	-1.7926	-1.1458	-1.8328	-2.9787	-1.5305	-2.5618	-4.0927	60.4097	99.9897	
   171	-0.9926	-1.7061	-2.6988	-1.6996	-2.4978	-4.1974	-2.0741	-3.4481	-5.5226	61.1265	99.9881	
   172	-1.8753	-2.5645	-4.4399	-2.9100	-3.3989	-6.3090	-3.5029	-4.2325	-7.7358	59.8470	99.9849	
   173	-2.3710	-2.4347	-4.8058	-3.3793	-3.0403	-6.4197	-3.7244	-3.6000	-7.3248	58.5385	99.9763	
   174	-1.7302	-1.9052	-3.6355	-2.4739	-2.4307	-4.9047	-2.7552	-2.9002	-5.6559	58.7382	99.9799	
   175	-1.1691	-1.7547	-2.9239	-1.8527	-2.2165	-4.0692	-2.1119	-2.6094	-4.7217	58.7113	99.9798	
   176	-0.7692	-1.4186	-2.1879	-1.4139	-1.7518	-3.1658	-1.6994	-2.1346	-3.8345	58.3207	99.9836	
   177	-0.8473	-1.2866	-2.1341	-1.4669	-1.6161	-3.0830	-1.7671	-1.9842	-3.7517	58.1540	99.9842	
   178	-0.7562	-1.0955	-1.8518	-1.2558	-1.4083	-2.6643	-1.5903	-1.7937	-3.3843	58.2570	99.9878	
   179	-0.7408	-1.1011	-1.8419	-1.2157	-1.4225	-2.6383	-1.5079	-1.7987	-3.3070	58.4113	99.9870	
   180	-0.6557	-1.0037	-1.6595	-1.0578	-1.2993	-2.3572	-1.3203	-1.6240	-2.9447	58.3879	99.9870	
   181	-0.4865	-0.9445	-1.4310	-0.9233	-1.3330	-2.2565	-1.3017	-1.8053	-3.1074	58.8081	99.9901	
   182	-1.0598	-1.1625	-2.2224	-1.6506	-1.4961	-3.1468	-1.8661	-1.8649	-3.7314	58.2078	99.9826	
   183	-0.7399	-0.9655	-1.7055	-1.3787	-1.6266	-3.0054	-1.6838	-2.3631	-4.0472	59.9804	99.9861	
   184	-1.2122	-1.6913	-2.9036	-2.1557	-2.5845	-4.7403	-2.8202	-3.4857	-6.3063	60.0060	99.9885	
   185	-2.3834	-2.3823	-4.7658	-3.6086	-3.1039	-6.7126	-4.1523	-3.7441	-7.8967	58.1460	99.9768	
   186	-2.1799	-1.6720	-3.8519	-2.9289	-2.0634	-4.9924	-3.1037	-2.4156	-5.5198	57.8020	99.9764	
   187	-1.3317	-1.2248	-2.5566	-2.0683	-1.6239	-3.6923	-2.4035	-1.9642	-4.3681	57.6289	99.9808	
   188	-1.0819	-0.6510	-1.7330	-1.6840	-0.8302	-2.5143	-1.9191	-1.0811	-3.0006	56.9987	99.9831	
   189	-1.0309	-0.3496	-1.3806	-1.5665	-0.5894	-2.1561	-1.9629	-0.9270	-2.8903	57.0306	99.9888	
   190	-1.2925	-0.3756	-1.6683	-1.7349	-0.5506	-2.2855	-1.9919	-0.8204	-2.8127	57.0328	99.9872	
   191	-1.2177	-0.3146	-1.5323	-1.6112	-0.5392	-2.1505	-1.9258	-0.8016	-2.7278	57.1326	99.9884	
   192	-1.3080	-0.2502	-1.5583	-1.6696	-0.3809	-2.0506	-1.9231	-0.5616	-2.4850	56.7475	99.9875	
   193	-1.3328	-0.1454	-1.4783	-1.6282	-0.2647	-1.8930	-1.8206	-0.4291	-2.2501	56.8594	99.9871	
   194	-1.2375	-0.0117	-1.2493	-1.4615	-0.1102	-1.5717	-1.5650	-0.3025	-1.8679	57.1829	99.9873	
   195	-1.2036	 0.0241	-1.1796	-1.4698	-0.0246	-1.4945	-1.5416	-0.2084	-1.7504	56.9941	99.9864	
   196	-0.9628	 0.3374	-0.6255	-1.0210	 0.3814	-0.6397	-1.0711	 0.3483	-0.7232	56.7360	99.9879	
   197	-0.2082	 0.9220	 0.7137	-0.2684	 0.9486	 0.6801	-0.4347	 0.8163	 0.3812	56.8257	99.9914	
   198	 0.1138	 1.1502	 1.2639	-0.0796	 1.1297	 1.0501	-0.3759	 0.9100	 0.5337	56.6616	99.9924	
   199	 0.2321	 0.9079	 1.1399	-0.2924	 0.6748	 0.3823	-0.4303	 0.2063	-0.2244	57.7950	99.9855	
   200	 0.2805	-0.4123	-0.1318	-0.3345	-0.7631	-1.0977	-0.4881	-1.2373	-1.7257	58.8511	99.9823	
   201	-0.0918	-0.5665	-0.6584	-0.6746	-0.9596	-1.6343	-0.9466	-1.4006	-2.3476	58.5991	99.9846	
   202	-0.0970	-0.5247	-0.6217	-0.6900	-0.8784	-1.5686	-0.8744	-1.3779	-2.2527	58.7861	99.9841	
   203	 0.0179	-0.4540	-0.4362	-0.5705	-0.7141	-1.2847	-0.6976	-1.1873	-1.8853	58.5885	99.9837	
   204	 0.0958	-0.3460	-0.2503	-0.5023	-0.6074	-1.1098	-0.6775	-1.0499	-1.7277	58.3505	99.9840	
   205	 0.0044	-0.2973	-0.2930	-0.5478	-0.5707	-1.1186	-0.7122	-1.0376	-1.7502	58.4905	99.9849	
   206	-0.1003	-0.2117	-0.3122	-0.7077	-0.3971	-1.1049	-0.9739	-0.6801	-1.6543	57.2725	99.9841	
   207	-0.3350	 0.5438	 0.2087	-0.5865	 0.5584	-0.0282	-0.6279	 0.3544	-0.2739	57.0956	99.9870	
   208	 0.1828	 0.8776	 1.0604	 0.2567	 0.3913	 0.6479	 0.0692	-0.3196	-0.2508	60.3167	99.9946	
   209	-0.7978	-0.5211	-1.3190	-0.7708	-1.1873	-1.9582	-0.7431	-2.1351	-2.8787	62.3321	99.9919	
   210	-0.8465	-1.0312	-1.8778	-0.9503	-1.7642	-2.7145	-1.1798	-2.5231	-3.7033	61.5269	99.9923	
   211	-0.8701	-1.0307	-1.9009	-0.8820	-1.4371	-2.3193	-0.7451	-1.8754	-2.6209	60.5678	99.9855	
   212	-0.3148	-0.2387	-0.5536	-0.0455	-0.7275	-0.7731	 0.1299	-1.2688	-1.1394	61.4692	99.9899	
   213	-0.1826	-0.0224	-0.2051	 0.0323	-0.5760	-0.5438	 0.0301	-1.1613	-1.1316	61.2380	99.9922	
   214	-0.1817	 0.1132	-0.0686	-0.0181	-0.3998	-0.4180	-0.0911	-0.9197	-1.0111	60.5999	99.9923	
   215	 0.2071	 0.1576	 0.3646	 0.1402	-0.3800	-0.2399	-0.0708	-0.9750	-1.0462	60.3104	99.9922	
   216	-0.2164	-0.0582	-0.2747	-0.3073	-0.6556	-0.9630	-0.4226	-1.4231	-1.8460	61.0533	99.9917	
   217	-0.6668	-0.2004	-0.8673	-0.7188	-0.7925	-1.5114	-0.7136	-1.5492	-2.2632	61.1943	99.9902	
   218	-0.7899	-0.1562	-0.9463	-0.8303	-0.7187	-1.5491	-0.7227	-1.4074	-2.1305	61.0477	99.9879	
   219	-0.7716	 0.0050	-0.7667	-0.7462	-0.5763	-1.3226	-0.6759	-1.2191	-1.8954	60.9243	99.9888	
   220	-0.6630	 0.1019	-0.5611	-0.7671	-0.4725	-1.2397	-0.7988	-1.1034	-1.9026	60.3897	99.9887	
   221	-0.7009	 0.1236	-0.5775	-0.8339	-0.4489	-1.2829	-0.8913	-1.0707	-1.9624	60.2113	99.9886	
   222	-0.6836	 0.2692	-0.4145	-0.7340	-0.2708	-1.0049	-0.7791	-0.8754	-1.6549	60.1710	99.9898	
   223	-0.5596	 0.3606	-0.1991	-0.6917	-0.1411	-0.8329	-0.7427	-0.7617	-1.5048	59.9300	99.9893	
   224	-0.5699	 0.4442	-0.1258	-0.6938	-0.0647	-0.7585	-0.7731	-0.6787	-1.4522	59.8270	99.9898	
   225	-0.6285	 0.5132	-0.1154	-0.7313	-0.0101	-0.7415	-0.8786	-0.6655	-1.5445	59.8108	99.9917	
   226	-0.7269	 0.4526	-0.2744	-0.9109	-0.0430	-0.9541	-1.1372	-0.6465	-1.7840	59.2403	99.9916	
   227	-0.9794	 0.5671	-0.4124	-1.0495	 0.1436	-0.9060	-1.0679	-0.4781	-1.5465	59.5401	99.9905	
   228	-0.9364	 0.6236	-0.3129	-0.9216	 0.2224	-0.6994	-1.0665	-0.4545	-1.5215	59.5316	99.9939	
   229	-0.8747	 0.4816	-0.3932	-1.0818	-0.0446	-1.1265	-1.4654	-0.7052	-2.1710	59.0126	99.9941	
   230	-0.9978	 0.4059	-0.5920	-1.2313	-0.0331	-1.2645	-1.6041	-0.6562	-2.2607	58.6071	99.9939	
   231	-0.9978	 0.4059	-0.5920	-1.2526	-0.0463	-1.2989	-1.6485	-0.7068	-2.3557	58.6578	99.9941	
   232	-1.1834	 0.3366	-0.8470	-1.4134	-0.1065	-1.5200	-1.8146	-0.7204	-2.5354	58.4861	99.9942	
   233	-1.3301	 0.2613	-1.0689	-1.6950	-0.2411	-1.9362	-2.1229	-0.9368	-3.0601	58.5183	99.9935	
   234	-1.5989	 0.2458	-1.3532	-1.9924	-0.1911	-2.1836	-2.2948	-0.8519	-3.1472	58.2987	99.9915	
   235	-1.5549	 0.3179	-1.2370	-1.9355	-0.1561	-2.0917	-2.2721	-0.7696	-3.0421	58.1972	99.9914	
   236	-1.6216	 0.3818	-1.2399	-1.9271	-0.0214	-1.9486	-2.2322	-0.5969	-2.8295	58.0334	99.9921	
   237	-1.7694	 0.4108	-1.3587	-2.0152	-0.0109	-2.0262	-2.3001	-0.5488	-2.8494	58.0485	99.9920	
   238	-1.9398	 0.4560	-1.4839	-2.1890	 0.0505	-2.1386	-2.4027	-0.4885	-2.8916	58.0250	99.9909	
   239	-1.9850	 0.4882	-1.4969	-2.2984	 0.0478	-2.2506	-2.5948	-0.5411	-3.1363	57.9039	99.9917	
   240	-2.1564	 0.5176	-1.6388	-2.5156	 0.0695	-2.4462	-2.8242	-0.5264	-3.3509	57.7045	99.9914	
   241	-2.2231	 0.5816	-1.6417	-2.6592	 0.1753	-2.4840	-2.9301	-0.4227	-3.3531	57.4233	99.9901	
   242	-2.0878	 0.7249	-1.3630	-2.4987	 0.3389	-2.1599	-2.8294	-0.2233	-3.0531	57.1637	99.9913	
   243	-1.9968	 1.0359	-0.9610	-2.4768	 0.6892	-1.7877	-2.7641	 0.2717	-2.4927	56.4232	99.9877	
   244	-2.1943	 1.5144	-0.6800	-2.5906	 1.1632	-1.4275	-2.6589	 0.6442	-2.0151	56.9429	99.9861	
   245	-2.3885	 1.7998	-0.5887	-2.6923	 1.5021	-1.1904	-2.7498	 0.9956	-1.7545	56.6798	99.9880	
   246	-2.3028	 2.2726	-0.0302	-2.4059	 2.0412	-0.3648	-2.2847	 1.5603	-0.7248	56.9657	99.9880	
   247	-2.0199	 2.6268	 0.6068	-2.1159	 2.3105	 0.1945	-2.0866	 1.8096	-0.2774	56.9918	99.9892	
   248	-1.9851	 2.6782	 0.6931	-2.1063	 2.3553	 0.2489	-2.1249	 1.7629	-0.3624	57.0920	99.9907	
   249	-2.0865	 2.5708	 0.4841	-2.2805	 2.2998	 0.0192	-2.3495	 1.7579	-0.5920	56.5633	99.9905	
   250	-2.3482	 2.5447	 0.1964	-2.6301	 2.2787	-0.3514	-2.7622	 1.6687	-1.0939	56.2845	99.9911	
   251	-2.6918	 2.4681	-0.2238	-3.0382	 2.1957	-0.8426	-3.2537	 1.6436	-1.6105	55.6775	99.9912	
   252	-2.9822	 2.4844	-0.4980	-3.3978	 2.2333	-1.1646	-3.6246	 1.6602	-1.9648	55.3224	99.9909	
   253	-3.2244	 2.5153	-0.7093	-3.6826	 2.2651	-1.4177	-3.8854	 1.6439	-2.2419	55.2531	99.9904	
   254	-3.5128	 2.5628	-0.9502	-3.9737	 2.3059	-1.6679	-4.1487	 1.6827	-2.4664	55.1355	99.9900	
   255	-3.7262	 2.5514	-1.1750	-4.2264	 2.3057	-1.9208	-4.4427	 1.7022	-2.7409	54.7526	99.9901	
   256	-3.8750	 2.5648	-1.3104	-4.3751	 2.3307	-2.0445	-4.5712	 1.7235	-2.8481	54.6807	99.9899	
   257	-3.9110	 2.6176	-1.2935	-4.4323	 2.3991	-2.0333	-4.6432	 1.8032	-2.8404	54.4679	99.9899	
   258	-3.9860	 2.6765	-1.3096	-4.5446	 2.4594	-2.0853	-4.7703	 1.8481	-2.9226	54.3045	99.9898	
   259	-4.0938	 2.7152	-1.3787	-4.7050	 2.5161	-2.1890	-4.9322	 1.9053	-3.0273	54.0400	99.9893	
   260	-4.2231	 2.7855	-1.4377	-4.8574	 2.5906	-2.2669	-5.0824	 1.9584	-3.1245	53.9162	99.9892	
   261	-4.3299	 2.8398	-1.4902	-4.9759	 2.6600	-2.3160	-5.2237	 2.0625	-3.1616	53.5981	99.9892	
   262	-4.4438	 2.9047	-1.5393	-5.0962	 2.7025	-2.3938	-5.3469	 2.0759	-3.2714	53.6085	99.9893	
   263	-4.5116	 2.9529	-1.5588	-5.2353	 2.7723	-2.4630	-5.5228	 2.1923	-3.3310	53.0946	99.9887	
   264	-4.6103	 3.1322	-1.4782	-5.2965	 2.9936	-2.3030	-5.5284	 2.3931	-3.1358	53.0722	99.9888	
   265	-4.6812	 3.2536	-1.4278	-5.3495	 3.1294	-2.2202	-5.6275	 2.5124	-3.1155	52.8884	99.9900	
   266	-4.7674	 3.2605	-1.5070	-5.4715	 3.1449	-2.3266	-5.7275	 2.5176	-3.2103	52.8044	99.9893	
   267	-4.8444	 3.2881	-1.5564	-5.5730	 3.1601	-2.4129	-5.8275	 2.5228	-3.3051	52.7475	99.9890	
   268	-4.8700	 3.2573	-1.6128	-5.6786	 3.1080	-2.5708	-5.9984	 2.5290	-3.4698	52.3084	99.9884	
   269	-5.0066	 3.3383	-1.6684	-5.8402	 3.2546	-2.5857	-6.1205	 2.6565	-3.4644	52.0764	99.9880	
   270	-5.1689	 3.5084	-1.6606	-5.9617	 3.3870	-2.5748	-6.2698	 2.8237	-3.4465	51.9025	99.9886	
   271	-5.2120	 3.5718	-1.6403	-5.9788	 3.4412	-2.5377	-6.2724	 2.8788	-3.3940	51.9531	99.9886	
   272	-5.2326	 3.6192	-1.6135	-5.9996	 3.5450	-2.4547	-6.3075	 2.9816	-3.3263	51.7221	99.9893	
   273	-5.2994	 3.6831	-1.6164	-6.0906	 3.6184	-2.4723	-6.3985	 3.0378	-3.3611	51.6018	99.9892	
   274	-5.3671	 3.7313	-1.6359	-6.1958	 3.6832	-2.5128	-6.5412	 3.1184	-3.4233	51.2603	99.9893	
   275	-5.4575	 3.7957	-1.6619	-6.2948	 3.7388	-2.5561	-6.6493	 3.1867	-3.4630	51.1086	99.9893	
   276	-5.5478	 3.8601	-1.6878	-6.4188	 3.8308	-2.5881	-6.7418	 3.2194	-3.5228	51.0918	99.9888	
   277	-5.5940	 3.8767	-1.7175	-6.4802	 3.8318	-2.6485	-6.8111	 3.2439	-3.5676	50.9746	99.9885	
   278	-5.5478	 3.8601	-1.6878	-6.4722	 3.8497	-2.6227	-6.7960	 3.2988	-3.4976	50.7435	99.9878	
   279	-5.4095	 4.0503	-1.3593	-6.1944	 4.0338	-2.1607	-6.4837	 3.4836	-3.0005	51.1355	99.9891	
   280	-4.9015	 3.9880	-0.9136	-5.8436	 3.9649	-1.8788	-6.3334	 3.4305	-2.9033	50.6042	99.9901	
   281	-4.8245	 3.9604	-0.8643	-5.8072	 4.0003	-1.8071	-6.2876	 3.5047	-2.7833	50.3176	99.9895	
   282	-4.8760	 4.1387	-0.7374	-5.7821	 4.1842	-1.5980	-6.2134	 3.7556	-2.4582	50.2763	99.9892	
   283	-4.9409	 4.3538	-0.5872	-5.8033	 4.3913	-1.4121	-6.2367	 3.9566	-2.2805	50.2338	99.9899	
   284	-4.9912	 4.4278	-0.5635	-5.8721	 4.4914	-1.3808	-6.2638	 3.9963	-2.2679	50.3027	99.9896	
   285	-5.0590	 4.4761	-0.5830	-5.9961	 4.5834	-1.4128	-6.4506	 4.1286	-2.3224	49.7153	99.9899	
   286	-5.2335	 4.5786	-0.6550	-6.1565	 4.6400	-1.5165	-6.6280	 4.2214	-2.4070	49.5589	99.9898	
   287	-5.4779	 4.6982	-0.7797	-6.4471	 4.7978	-1.6494	-6.8748	 4.3387	-2.5365	49.3283	99.9891	
   288	-5.6360	 4.8109	-0.8252	-6.6229	 4.9356	-1.6873	-7.0656	 4.5025	-2.5635	48.9386	99.9891	
   289	-5.7192	 4.8647	-0.8546	-6.7147	 4.9956	-1.7192	-7.1349	 4.5270	-2.6083	48.9636	99.9889	
   290	-5.8249	 4.9346	-0.8904	-6.8137	 5.0513	-1.7625	-7.2715	 4.6114	-2.6605	48.7367	99.9894	
   291	-5.9481	 4.9788	-0.9694	-6.9857	 5.1396	-1.8462	-7.3911	 4.6838	-2.7077	48.5637	99.9882	
   292	-5.9851	 5.0160	-0.9691	-6.9840	 5.1665	-1.8176	-7.4005	 4.7233	-2.6777	48.5784	99.9888	
   293	-6.0457	 5.0537	-0.9920	-7.1080	 5.2585	-1.8496	-7.4970	 4.7875	-2.7099	48.3561	99.9880	
   294	-6.1740	 5.1397	-1.0344	-7.2249	 5.3549	-1.8701	-7.6607	 4.9116	-2.7495	48.0297	99.9888	
   295	-6.3116	 5.2051	-1.1066	-7.3853	 5.4116	-1.9738	-7.8456	 4.9769	-2.8691	47.7810	99.9889	
   296	-6.4655	 5.2603	-1.2054	-7.5323	 5.4635	-2.0689	-8.0190	 5.0382	-2.9812	47.5817	99.9894	
   297	-6.5897	 5.2888	-1.3010	-7.6659	 5.5107	-2.1553	-8.1577	 5.0872	-3.0710	47.3924	99.9895	
   298	-6.6749	 5.3114	-1.3636	-7.7594	 5.5438	-2.2158	-8.2596	 5.1593	-3.1007	47.1494	99.9893	
   299	-6.6801	 5.3532	-1.3270	-7.7749	 5.6249	-2.1500	-8.2499	 5.2222	-3.0282	47.1015	99.9891	
   300	-6.6524	 5.4152	-1.2373	-7.7698	 5.7058	-2.0641	-8.2171	 5.2768	-2.9407	47.1122	99.9886	
   301	-6.6586	 5.4414	-1.2173	-7.8065	 5.7738	-2.0328	-8.2728	 5.3327	-2.9405	46.8882	99.9887	
   302	-6.7336	 5.5003	-1.2334	-7.8788	 5.8200	-2.0589	-8.3692	 5.3969	-2.9728	46.7332	99.9890	
   303	-6.7788	 5.5325	-1.2464	-7.9706	 5.8800	-2.0907	-8.4711	 5.4690	-3.0025	46.4337	99.9887	
   304	-6.8414	 5.5389	-1.3025	-8.0257	 5.8719	-2.1539	-8.5155	 5.4184	-3.0975	46.5851	99.9887	
   305	-6.8886	 5.5399	-1.3488	-8.1005	 5.8777	-2.2229	-8.6080	 5.4511	-3.1573	46.3544	99.9886	
   306	-6.9502	 5.5620	-1.3883	-8.1727	 5.9239	-2.2490	-8.6677	 5.5384	-3.1296	46.1337	99.9882	
   307	-6.9071	 5.6185	-1.2887	-8.1510	 6.0539	-2.0972	-8.6096	 5.6203	-2.9896	46.0982	99.9877	
   308	-6.8939	 5.7016	-1.1923	-8.1459	 6.1347	-2.0113	-8.5999	 5.6832	-2.9171	46.0982	99.9876	
   309	-6.9308	 5.7389	-1.1921	-8.1593	 6.1394	-2.0199	-8.6555	 5.7390	-2.9169	45.9539	99.9883	
   310	-6.9544	 5.7394	-1.2152	-8.2378	 6.1947	-2.0431	-8.7018	 5.7553	-2.9468	45.8385	99.9874	
   311	-7.0222	 5.7876	-1.2347	-8.2895	 6.2405	-2.0491	-8.8246	 5.8710	-2.9540	45.4457	99.9885	
   312	-7.0982	 5.8309	-1.2674	-8.3814	 6.3005	-2.0809	-8.8615	 5.8479	-3.0140	45.6421	99.9877	
   313	-7.1598	 5.8530	-1.3069	-8.4616	 6.3289	-2.1328	-8.9634	 5.9200	-3.0437	45.3529	99.9878	
   314	-7.2193	 5.9063	-1.3131	-8.4653	 6.3784	-2.0870	-8.9862	 6.0305	-2.9561	45.2268	99.9886	
   315	-7.1373	 5.9568	-1.1806	-8.3917	 6.4625	-1.9293	-8.8779	 6.0645	-2.8137	45.3599	99.9882	
   316	-7.1343	 6.0037	-1.1307	-8.4213	 6.5350	-1.8865	-8.8642	 6.0959	-2.7687	45.4003	99.9872	
   317	-7.1651	 6.0147	-1.1504	-8.4614	 6.5491	-1.9124	-8.9661	 6.1680	-2.7985	45.0312	99.9880	
   318	-7.2112	 6.0313	-1.1801	-8.5149	 6.5680	-1.9470	-9.0123	 6.1843	-2.8284	44.9906	99.9878	
   319	-7.2718	 6.0690	-1.2029	-8.5934	 6.6233	-1.9702	-9.1026	 6.2524	-2.8506	44.7712	99.9878	
   320	-7.3334	 6.0911	-1.2424	-8.6602	 6.6469	-2.0134	-9.1626	 6.2374	-2.9255	44.8163	99.9877	
   321	-7.4248	 6.1398	-1.2850	-8.7421	 6.6483	-2.0939	-9.3107	 6.3259	-2.9852	44.4742	99.9886	
   322	-7.4402	 6.1454	-1.2949	-8.7921	 6.7211	-2.0712	-9.2739	 6.3491	-2.9252	44.5516	99.9871	
   323	-7.3982	 6.1862	-1.2120	-8.6952	 6.7419	-1.9534	-9.2234	 6.4035	-2.8203	44.5414	99.9884	
   324	-7.3725	 6.2170	-1.1556	-8.7186	 6.8052	-1.9135	-9.2653	 6.4906	-2.7751	44.2183	99.9881	
   325	-7.4321	 6.2703	-1.1619	-8.7570	 6.8463	-1.9107	-9.3210	 6.5464	-2.7750	44.1492	99.9886	
   326	-7.5081	 6.3136	-1.1946	-8.8472	 6.9333	-1.9140	-9.3672	 6.5628	-2.8049	44.2183	99.9879	
   327	-7.5389	 6.3246	-1.2143	-8.8873	 6.9474	-1.9399	-9.4460	 6.6267	-2.8197	43.9295	99.9883	
   328	-7.6138	 6.3835	-1.2304	-8.9657	 7.0027	-1.9631	-9.5248	 6.6907	-2.8345	43.8196	99.9883	
   329	-7.6826	 6.4161	-1.2666	-9.0354	 7.0893	-1.9462	-9.5573	 6.7384	-2.8194	43.8103	99.9878	
   330	-7.6642	 6.4575	-1.2068	-8.9920	 7.1290	-1.8631	-9.5122	 6.8007	-2.7119	43.8136	99.9881	
   331	-7.6304	 6.4933	-1.1371	-8.9502	 7.1418	-1.8085	-9.4985	 6.8321	-2.6669	43.7729	99.9886	
   332	-7.6683	 6.5149	-1.1535	-8.9886	 7.1829	-1.8058	-9.5448	 6.8484	-2.6968	43.7258	99.9886	
   333	-7.7289	 6.5526	-1.1764	-9.0734	 7.2473	-1.8262	-9.6004	 6.9042	-2.6966	43.6288	99.9880	
   334	-7.7741	 6.5848	-1.1894	-9.1001	 7.2567	-1.8435	-9.7077	 6.9843	-2.7238	43.2931	99.9893	
   335	-7.8049	 6.5959	-1.2091	-9.1920	 7.3167	-1.8753	-9.7160	 6.9450	-2.7714	43.4526	99.9875	
   336	-7.8655	 6.6336	-1.2320	-9.2053	 7.3215	-1.8840	-9.7634	 7.0401	-2.7237	43.2780	99.9886	
   337	-7.8008	 6.6584	-1.1426	-9.0950	 7.3376	-1.7576	-9.6341	 7.0306	-2.6039	43.5636	99.9888	
   338	-7.7146	 6.6514	-1.0633	-9.0846	 7.3958	-1.6888	-9.6237	 7.1052	-2.5189	43.2200	99.9880	
   339	-7.7280	 6.6882	-1.0399	-9.1096	 7.4322	-1.6775	-9.6237	 7.1052	-2.5189	43.3166	99.9875	
   340	-7.7588	 6.6992	-1.0597	-9.1230	 7.4369	-1.6861	-9.6562	 7.1528	-2.5038	43.1921	99.9880	
   341	-7.8040	 6.7314	-1.0727	-9.1747	 7.4828	-1.6921	-9.7520	 7.2288	-2.5235	42.8978	99.9885	
   342	-7.8338	 6.7581	-1.0758	-9.2194	 7.5330	-1.6865	-9.7751	 7.2370	-2.5385	42.9256	99.9880	
   343	-7.8174	 6.7682	-1.0493	-9.1776	 7.5458	-1.6320	-9.7130	 7.2874	-2.4260	42.9501	99.9881	
   344	-7.6820	 6.7916	-0.8905	-9.0202	 7.5521	-1.4682	-9.5292	 7.3007	-2.2289	43.1795	99.9880	
   345	-7.5865	 6.8053	-0.7813	-8.9099	 7.5682	-1.3418	-9.5072	 7.3713	-2.1363	42.8995	99.9893	
   346	-7.5711	 6.7998	-0.7715	-8.8965	 7.5635	-1.3331	-9.4725	 7.3590	-2.1139	42.9809	99.9890	
   347	-7.5701	 6.8154	-0.7548	-8.9278	 7.6090	-1.3190	-9.4494	 7.3509	-2.0989	43.0898	99.9879	
   348	-7.5855	 6.8209	-0.7647	-8.9529	 7.6454	-1.3076	-9.5105	 7.4146	-2.0963	42.8100	99.9883	
   349	-7.6163	 6.8320	-0.7844	-8.9679	 7.6231	-1.3449	-9.5683	 7.4351	-2.1337	42.6878	99.9891	
   350	-7.5989	 6.8577	-0.7413	-8.9245	 7.6629	-1.2617	-9.4423	 7.4688	-1.9738	42.9498	99.9882	
   351	-7.4553	 6.8861	-0.5693	-8.7519	 7.6914	-1.0606	-9.2523	 7.4861	-1.7667	43.1779	99.9883	
   352	-7.3229	 6.8626	-0.4604	-8.6229	 7.6802	-0.9427	-9.1808	 7.4970	-1.6843	43.0355	99.9890	
   353	-7.3075	 6.8571	-0.4505	-8.5962	 7.6708	-0.9255	-9.1346	 7.4806	-1.6544	43.1567	99.9889	
   354	-7.3075	 6.8571	-0.4505	-8.6078	 7.7025	-0.9055	-9.1726	 7.5362	-1.6368	42.9190	99.9891	
   355	-7.3075	 6.8571	-0.4505	-8.5962	 7.6708	-0.9255	-9.1577	 7.4888	-1.6693	43.0759	99.9892	
   356	-7.3239	 6.8470	-0.4770	-8.6229	 7.6802	-0.9427	-9.1808	 7.4970	-1.6843	43.0080	99.9890	
   357	-7.3239	 6.8470	-0.4770	-8.6212	 7.7072	-0.9141	-9.1643	 7.5755	-1.5892	42.8561	99.9889	
   358	-7.1649	 6.8699	-0.2951	-8.3969	 7.6899	-0.7071	-8.9342	 7.5725	-1.3621	43.1974	99.9894	
   359	-7.0099	 6.8303	-0.1797	-8.2946	 7.6882	-0.6065	-8.8071	 7.5276	-1.2799	43.2650	99.9886	
   360	-6.9955	 6.8091	-0.1865	-8.2366	 7.6333	-0.6034	-8.8071	 7.5276	-1.2799	43.1974	99.9897	
   361	-6.9955	 6.8091	-0.1865	-8.2545	 7.6740	-0.5806	-8.7691	 7.4720	-1.2975	43.4341	99.9888	
   362	-6.9811	 6.7880	-0.1932	-8.2633	 7.6427	-0.6207	-8.7922	 7.4801	-1.3125	43.2861	99.9888	
   363	-6.9841	 6.7411	-0.2431	-8.2604	 7.5797	-0.6808	-8.8175	 7.4529	-1.3650	43.2058	99.9892	
   364	-7.0159	 6.7365	-0.2795	-8.3022	 7.5669	-0.7353	-8.8720	 7.4300	-1.4424	43.1739	99.9893	
   365	-7.0006	 6.7310	-0.2696	-8.2337	 7.5703	-0.6635	-8.7366	 7.4243	-1.3126	43.4993	99.9889	
   366	-6.8271	 6.7328	-0.0945	-7.9739	 7.5749	-0.3991	-8.5098	 7.4647	-1.0455	43.6540	99.9902	
   367	-6.6568	 6.6877	 0.0308	-7.8519	 7.5593	-0.2927	-8.3826	 7.4198	-0.9633	43.6814	99.9896	
   368	-6.6260	 6.6766	 0.0505	-7.8118	 7.5452	-0.2668	-8.3364	 7.4034	-0.9334	43.7611	99.9896	
   369	-6.5972	 6.6343	 0.0370	-7.7734	 7.5041	-0.2695	-8.3364	 7.4034	-0.9334	43.6265	99.9902	
   370	-6.5828	 6.6132	 0.0303	-7.7555	 7.4633	-0.2923	-8.3216	 7.3560	-0.9659	43.7151	99.9903	
   371	-6.6002	 6.5875	-0.0129	-7.7793	 7.4097	-0.3697	-8.3298	 7.3168	-1.0135	43.7762	99.9900	
   372	-6.6259	 6.5567	-0.0693	-7.8077	 7.3922	-0.4156	-8.3782	 7.2977	-1.0809	43.6903	99.9902	
   373	-6.6577	 6.5521	-0.1057	-7.8433	 7.3704	-0.4730	-8.3634	 7.2503	-1.1135	43.8987	99.9896	
   374	-6.5325	 6.5392	 0.0066	-7.6323	 7.3578	-0.2746	-8.1713	 7.3029	-0.8688	43.9965	99.9906	
   375	-6.3067	 6.4982	 0.1914	-7.4214	 7.3453	-0.0763	-7.9203	 7.2564	-0.6642	44.2460	99.9900	
   376	-6.1989	 6.4595	 0.2605	-7.3162	 7.2805	-0.0358	-7.8625	 7.2360	-0.6269	44.1670	99.9904	
   377	-6.1619	 6.4223	 0.2602	-7.2448	 7.2209	-0.0240	-7.8014	 7.1722	-0.6295	44.3406	99.9909	
   378	-6.1023	 6.3689	 0.2665	-7.2198	 7.1845	-0.0354	-7.7634	 7.1167	-0.6472	44.3621	99.9904	
   379	-6.1044	 6.3377	 0.2332	-7.1902	 7.1121	-0.0782	-7.7540	 7.0772	-0.6772	44.4292	99.9908	
   380	-6.0920	 6.2853	 0.1932	-7.2186	 7.0946	-0.1241	-7.7359	 6.9864	-0.7498	44.5792	99.9900	
   381	-6.1402	 6.2706	 0.1303	-7.2407	 7.0680	-0.1728	-7.7496	 6.9551	-0.7948	44.6858	99.9902	
   382	-6.0488	 6.2219	 0.1729	-7.1071	 7.0208	-0.0864	-7.6351	 6.9930	-0.6425	44.6166	99.9907	
   383	-5.8292	 6.2070	 0.3777	-6.8694	 6.9988	 0.1292	-7.3819	 6.9819	-0.4005	44.8422	99.9906	
   384	-5.6763	 6.1362	 0.4598	-6.7225	 6.9468	 0.2243	-7.2685	 6.9056	-0.3632	44.8974	99.9910	
   385	-5.6321	 6.0884	 0.4562	-6.6528	 6.8602	 0.2074	-7.2074	 6.8419	-0.3659	45.0368	99.9912	
   386	-5.6115	 6.0410	 0.4294	-6.6294	 6.7969	 0.1674	-7.1926	 6.7945	-0.3985	45.0645	99.9913	
   387	-5.5992	 5.9886	 0.3894	-6.6382	 6.7656	 0.1273	-7.1799	 6.7117	-0.4686	45.1810	99.9910	
   388	-5.6166	 5.9629	 0.3462	-6.6532	 6.7434	 0.0900	-7.2377	 6.7321	-0.5060	44.9687	99.9915	
   389	-5.6350	 5.9216	 0.2864	-6.6654	 6.6582	-0.0073	-7.2101	 6.6019	-0.6086	45.3199	99.9910	
   390	-5.6627	 5.8595	 0.1968	-6.7160	 6.6141	-0.1020	-7.2437	 6.5354	-0.7087	45.3363	99.9906	
   391	-5.6011	 5.8375	 0.2363	-6.5957	 6.5716	-0.0242	-7.0945	 6.5610	-0.5339	45.4882	99.9906	
   392	-5.3589	 5.8065	 0.4476	-6.3163	 6.5623	 0.2460	-6.8067	 6.5376	-0.2694	45.7555	99.9909	
   393	-5.1885	 5.7614	 0.5728	-6.1338	 6.5323	 0.3984	-6.6250	 6.5156	-0.1098	45.8607	99.9911	
   394	-5.0017	 5.7264	 0.7246	-5.9868	 6.4804	 0.4935	-6.5210	 6.4789	-0.0425	45.7999	99.9911	
   395	-4.9422	 5.6731	 0.7308	-5.9171	 6.3938	 0.4766	-6.4505	 6.3756	-0.0752	46.0221	99.9911	
   396	-4.8816	 5.6354	 0.7537	-5.7968	 6.3513	 0.5544	-6.3674	 6.3824	 0.0146	46.0270	99.9920	
   397	-4.6928	 5.6316	 0.9387	-5.7195	 6.3859	 0.6663	-6.2865	 6.3539	 0.0670	45.9444	99.9911	
   398	-4.6814	 5.5636	 0.8821	-5.6870	 6.2505	 0.5634	-6.2589	 6.2236	-0.0357	46.1896	99.9912	
   399	-4.7573	 5.4869	 0.7295	-5.7856	 6.2027	 0.4170	-6.3524	 6.1422	-0.2106	46.1569	99.9911	
   400	-4.9039	 5.4116	 0.5075	-5.9063	 6.1283	 0.2219	-6.3975	 6.0798	-0.3181	46.3286	99.9903	
   401	-4.8742	 5.3849	 0.5107	-5.7577	 6.1033	 0.3456	-6.2335	 6.0580	-0.1759	46.6806	99.9914	
   402	-4.7500	 5.3564	 0.6063	-5.6391	 6.0339	 0.3947	-6.1757	 6.0376	-0.1385	46.5929	99.9918	
   403	-4.7376	 5.3040	 0.5663	-5.6228	 5.9662	 0.3433	-6.1338	 5.9505	-0.1837	46.7927	99.9915	
   404	-4.7652	 5.2420	 0.4766	-5.6262	 5.9123	 0.2860	-6.1211	 5.8677	-0.2538	46.9646	99.9917	
   405	-4.7375	 5.1840	 0.4465	-5.5849	 5.8082	 0.2232	-6.0737	 5.7726	-0.3015	47.1594	99.9915	
   406	-4.7179	 5.1211	 0.4030	-5.5883	 5.7543	 0.1660	-6.1011	 5.7100	-0.3915	47.0950	99.9917	
   407	-4.7743	 5.1013	 0.3269	-5.6317	 5.7146	 0.0828	-6.1115	 5.6354	-0.4765	47.3237	99.9914	
   408	-4.8092	 5.0499	 0.2406	-5.6769	 5.6479	-0.0290	-6.1852	 5.5891	-0.5965	47.2261	99.9916	
   409	-4.8358	 5.0035	 0.1676	-5.6936	 5.5988	-0.0949	-6.1703	 5.5417	-0.6290	47.3418	99.9912	
   410	-4.6788	 4.9951	 0.3162	-5.4597	 5.6263	 0.1665	-5.8341	 5.5374	-0.2971	47.8675	99.9909	
   411	-4.4202	 4.9743	 0.5540	-5.1507	 5.5446	 0.3939	-5.5220	 5.4271	-0.0953	48.3952	99.9912	
   412	-4.2991	 4.8989	 0.5998	-5.0588	 5.4846	 0.4257	-5.3717	 5.3740	 0.0019	48.5281	99.9901	
   413	-4.2857	 4.8621	 0.5764	-5.0471	 5.4530	 0.4057	-5.4894	 5.3794	-0.1104	48.1384	99.9918	
   414	-4.3215	 4.7951	 0.4734	-5.1207	 5.3688	 0.2480	-5.5598	 5.2898	-0.2704	48.1328	99.9912	
   415	-4.3676	 4.6917	 0.3240	-5.1613	 5.2661	 0.1047	-5.6587	 5.2163	-0.4428	47.9651	99.9920	
   416	-4.4086	 4.6664	 0.2577	-5.2181	 5.2311	 0.0129	-5.7071	 5.1973	-0.5102	47.9218	99.9916	
   417	-4.4353	 4.6201	 0.1847	-5.2561	 5.1688	-0.0874	-5.7482	 5.1034	-0.6452	48.0211	99.9916	
   418	-4.4527	 4.5943	 0.1416	-5.2311	 5.1324	-0.0988	-5.6673	 5.0748	-0.5929	48.2705	99.9911	
   419	-4.2649	 4.5749	 0.3100	-4.9738	 5.0966	 0.1227	-5.3971	 5.0516	-0.3459	48.6041	99.9916	
   420	-4.0801	 4.5087	 0.4285	-4.8189	 5.0625	 0.2435	-5.1890	 4.9781	-0.2113	48.8319	99.9908	
   421	-4.0359	 4.4609	 0.4248	-4.8018	 5.0083	 0.2064	-5.1586	 4.8951	-0.2640	48.9463	99.9904	
   422	-4.0934	 4.4255	 0.3320	-4.8085	 4.9005	 0.0919	-5.2669	 4.8611	-0.4063	48.8091	99.9917	
   423	-4.0738	 4.3625	 0.2886	-4.8102	 4.8735	 0.0632	-5.2575	 4.8216	-0.4364	48.7758	99.9915	
   424	-4.0994	 4.3318	 0.2322	-4.8286	 4.7974	-0.0313	-5.2755	 4.7195	-0.5564	48.9814	99.9915	
   425	-4.1487	 4.3015	 0.1527	-4.8721	 4.7577	-0.1145	-5.3470	 4.7086	-0.6388	48.8672	99.9918	
   426	-4.2215	 4.2716	 0.0500	-4.8984	 4.6637	-0.2348	-5.4030	 4.6621	-0.7413	48.9247	99.9919	
   427	-4.0973	 4.2431	 0.1457	-4.7731	 4.7021	-0.0711	-5.2083	 4.6596	-0.5491	49.1185	99.9917	
   428	-3.9423	 4.2035	 0.2611	-4.6261	 4.6502	 0.0239	-5.0465	 4.6024	-0.4444	49.2990	99.9913	
   429	-3.9135	 4.1612	 0.2475	-4.5644	 4.5457	-0.0188	-5.0677	 4.5437	-0.5245	49.2671	99.9921	
   430	-3.9402	 4.1148	 0.1745	-4.6212	 4.5107	-0.1106	-5.1161	 4.5246	-0.5919	49.1577	99.9915	
   431	-3.9658	 4.0840	 0.1181	-4.6191	 4.4342	-0.1850	-5.1435	 4.4620	-0.6819	49.2397	99.9918	
   432	-3.9924	 4.0376	 0.0451	-4.6305	 4.3625	-0.2680	-5.1301	 4.3910	-0.7395	49.4115	99.9913	
   433	-4.0016	 4.0169	 0.0152	-4.6455	 4.3403	-0.3053	-5.1322	 4.3556	-0.7770	49.4739	99.9912	
   434	-3.9544	 4.0160	 0.0614	-4.5102	 4.3200	-0.1903	-4.9683	 4.3338	-0.6348	49.8325	99.9917	
   435	-3.7769	 3.9603	 0.1833	-4.3419	 4.2812	-0.0608	-4.7717	 4.2644	-0.5078	50.0544	99.9916	
   436	-3.7399	 3.9231	 0.1831	-4.3248	 4.2270	-0.0979	-4.7352	 4.1852	-0.5504	50.2082	99.9911	
   437	-3.7193	 3.8757	 0.1563	-4.3014	 4.1636	-0.1379	-4.7605	 4.1580	-0.6029	50.0908	99.9914	
   438	-3.7142	 3.8339	 0.1196	-4.2977	 4.1141	-0.1837	-4.7857	 4.1308	-0.6554	50.0110	99.9915	
   439	-3.7398	 3.8031	 0.0632	-4.3528	 4.1061	-0.2469	-4.8070	 4.0720	-0.7354	50.0983	99.9914	
   440	-3.7654	 3.7723	 0.0068	-4.3374	 4.0249	-0.3126	-4.8051	 4.0051	-0.8005	50.2613	99.9915	
   441	-3.6494	 3.7387	 0.0892	-4.1808	 4.0177	-0.1632	-4.5852	 4.0298	-0.5558	50.4422	99.9908	
   442	-3.4534	 3.7244	 0.2709	-3.9503	 3.9914	 0.0410	-4.3002	 3.9592	-0.3414	50.9203	99.9907	
   443	-3.3702	 3.6706	 0.3002	-3.8851	 3.9408	 0.0556	-4.2731	 3.9195	-0.3540	50.8375	99.9910	
   444	-3.3661	 3.6132	 0.2470	-3.8831	 3.8644	-0.0188	-4.2658	 3.8447	-0.4216	50.9291	99.9906	
   445	-3.3455	 3.5658	 0.2202	-3.8794	 3.8148	-0.0646	-4.2408	 3.7696	-0.4717	51.0542	99.9903	
   446	-3.3711	 3.5350	 0.1638	-3.8426	 3.7468	-0.0959	-4.2274	 3.6986	-0.5293	51.2541	99.9913	
   447	-3.3968	 3.5043	 0.1074	-3.8506	 3.7289	-0.1217	-4.1772	 3.6507	-0.5269	51.4776	99.9910	
   448	-3.1710	 3.4632	 0.2922	-3.5586	 3.7015	 0.1428	-3.8572	 3.6702	-0.1875	51.6918	99.9909	
   449	-2.9206	 3.4374	 0.5167	-3.2818	 3.6519	 0.3700	-3.5607	 3.5955	 0.0344	52.0858	99.9910	
   450	-2.8220	 3.3781	 0.5559	-3.1845	 3.5693	 0.3848	-3.4663	 3.4959	 0.0292	52.2768	99.9909	
   451	-2.7727	 3.2884	 0.5156	-3.1344	 3.4966	 0.3621	-3.4067	 3.4086	 0.0015	52.3797	99.9911	
   452	-2.6987	 3.2139	 0.5151	-3.0388	 3.3871	 0.3481	-3.3199	 3.2815	-0.0388	52.6371	99.9914	
   453	-2.6648	 3.1298	 0.4650	-3.0180	 3.2833	 0.2652	-3.3296	 3.2187	-0.1113	52.5565	99.9910	
   454	-2.6986	 3.0940	 0.3953	-3.0276	 3.2385	 0.2108	-3.3278	 3.1518	-0.1764	52.7222	99.9914	
   455	-2.4594	 3.0162	 0.5567	-2.7257	 3.1525	 0.4267	-2.9597	 3.0880	 0.1279	53.1590	99.9906	
   456	-2.1721	 2.9531	 0.7810	-2.4033	 3.0661	 0.6627	-2.6516	 3.0093	 0.3573	53.4495	99.9909	
   457	-1.9975	 2.8506	 0.8529	-2.2542	 2.9377	 0.6834	-2.5688	 2.9137	 0.3445	53.3932	99.9909	
   458	-1.9564	 2.7559	 0.7994	-2.2522	 2.8613	 0.6090	-2.5399	 2.8071	 0.2669	53.4822	99.9905	
   459	-1.9912	 2.7044	 0.7131	-2.2965	 2.8081	 0.5115	-2.5456	 2.7127	 0.1668	53.6737	99.9903	
   460	-2.0045	 2.6213	 0.6167	-2.2623	 2.6996	 0.4372	-2.5242	 2.5787	 0.0541	53.9315	99.9913	
   461	-2.0393	 2.5698	 0.5304	-2.2949	 2.6147	 0.3197	-2.5530	 2.4925	-0.0609	54.0511	99.9909	
   462	-2.0208	 2.4912	 0.4703	-2.2912	 2.5652	 0.2739	-2.4988	 2.4131	-0.0861	54.1930	99.9905	
   463	-1.7878	 2.4396	 0.6517	-1.9876	 2.5061	 0.5185	-2.1925	 2.4012	 0.2083	54.4108	99.9906	
   464	-1.5938	 2.3941	 0.8001	-1.7604	 2.4259	 0.6654	-1.9403	 2.2760	 0.3353	54.8868	99.9909	
   465	-1.5055	 2.2984	 0.7928	-1.7183	 2.3353	 0.6169	-1.9168	 2.1773	 0.2601	54.8662	99.9907	
   466	-1.4951	 2.2148	 0.7195	-1.6974	 2.2315	 0.5340	-1.9048	 2.0827	 0.1775	54.9593	99.9906	
   467	-1.4838	 2.1468	 0.6629	-1.6962	 2.1416	 0.4452	-1.8758	 1.9761	 0.0999	55.1517	99.9900	
   468	-1.4816	 2.0581	 0.5763	-1.6888	 2.0426	 0.3537	-1.9216	 1.9019	-0.0201	55.0682	99.9905	
   469	-1.5165	 2.0066	 0.4900	-1.6813	 1.9435	 0.2621	-1.9056	 1.7758	-0.1303	55.3935	99.9908	
   470	-1.4887	 1.9487	 0.4599	-1.6625	 1.9162	 0.2536	-1.8478	 1.7553	-0.0929	55.4103	99.9902	
   471	-1.2711	 1.9027	 0.6314	-1.4124	 1.8760	 0.4636	-1.5282	 1.6725	 0.1440	55.8777	99.9901	
   472	-1.1100	 1.8369	 0.7268	-1.2483	 1.7699	 0.5215	-1.4086	 1.6001	 0.1912	55.9383	99.9899	
   473	-1.0986	 1.7688	 0.6701	-1.2525	 1.7025	 0.4499	-1.4544	 1.5260	 0.0712	55.8840	99.9906	
   474	-1.1109	 1.7013	 0.5903	-1.2701	 1.6399	 0.3697	-1.4363	 1.4352	-0.0014	56.0493	99.9903	
   475	-1.1221	 1.6494	 0.5272	-1.2689	 1.5499	 0.2810	-1.4243	 1.3406	-0.0841	56.2425	99.9899	
   476	-1.1498	 1.5874	 0.4375	-1.2944	 1.4695	 0.1750	-1.4986	 1.2825	-0.2165	56.1581	99.9903	
   477	-1.1846	 1.5359	 0.3512	-1.3788	 1.4304	 0.0515	-1.5173	 1.1687	-0.3491	56.3775	99.9896	
   478	-1.1096	 1.4771	 0.3673	-1.2531	 1.3654	 0.1122	-1.3595	 1.1430	-0.2169	56.5427	99.9890	
   479	-0.8972	 1.4728	 0.5755	-0.9683	 1.3336	 0.3652	-1.0940	 1.1396	 0.0452	56.7704	99.9896	
   480	-0.7443	 1.4020	 0.6576	-0.8363	 1.2594	 0.4230	-0.9473	 1.0275	 0.0798	56.9989	99.9896	
   481	-0.7473	 1.3551	 0.6077	-0.8468	 1.2011	 0.3543	-0.9292	 0.9368	 0.0072	57.1924	99.9893	
   482	-0.7431	 1.2977	 0.5544	-0.8243	 1.1243	 0.3000	-0.9443	 0.8819	-0.0629	57.1855	99.9897	
   483	-0.7318	 1.2296	 0.4978	-0.8418	 1.0617	 0.2198	-0.9392	 0.7716	-0.1680	57.3394	99.9896	
   484	-0.7604	 1.1520	 0.3915	-0.8887	 0.9681	 0.0793	-1.0482	 0.7258	-0.3228	57.1198	99.9896	
   485	-0.7881	 1.0900	 0.3018	-0.9338	 0.9014	-0.0325	-1.0955	 0.6280	-0.4678	57.2031	99.9898	
   486	-0.8363	 1.0753	 0.2389	-0.9284	 0.8788	-0.0497	-1.0377	 0.6076	-0.4305	57.4252	99.9895	
   487	-0.6639	 1.0614	 0.3974	-0.7041	 0.8616	 0.1574	-0.7397	 0.5565	-0.1835	57.8905	99.9893	
   488	-0.5017	 1.0113	 0.5094	-0.5383	 0.7823	 0.2439	-0.6125	 0.5116	-0.1013	57.9235	99.9891	
   489	-0.4883	 0.9745	 0.4860	-0.5426	 0.7150	 0.1723	-0.6461	 0.4452	-0.2013	57.9398	99.9890	
   490	-0.5006	 0.9069	 0.4063	-0.5852	 0.6887	 0.1035	-0.6626	 0.3667	-0.2964	57.9997	99.9894	
   491	-0.5046	 0.8444	 0.3397	-0.5902	 0.6079	 0.0176	-0.6846	 0.2961	-0.3889	58.0245	99.9894	
   492	-0.5323	 0.7824	 0.2501	-0.6479	 0.5594	-0.0886	-0.7590	 0.2380	-0.5213	57.9434	99.9896	
   493	-0.5969	 0.7576	 0.1606	-0.6985	 0.5153	-0.1832	-0.8156	 0.1797	-0.6363	58.0348	99.9899	
   494	-0.6543	 0.7223	 0.0679	-0.7624	 0.4759	-0.2865	-0.8593	 0.1409	-0.7187	58.0660	99.9893	
   495	-0.5681	 0.7154	 0.1471	-0.5995	 0.4597	-0.1399	-0.6653	 0.1266	-0.5391	58.3604	99.9897	
   496	-0.3957	 0.7015	 0.3057	-0.4232	 0.4387	 0.0154	-0.4674	 0.0808	-0.3870	58.6023	99.9896	
   497	-0.3587	 0.6642	 0.3054	-0.4312	 0.4209	-0.0104	-0.5035	 0.0695	-0.4344	58.4248	99.9896	
   498	-0.3772	 0.6229	 0.2456	-0.4149	 0.3532	-0.0619	-0.4330	-0.0338	-0.4672	58.7974	99.9893	
   499	-0.1770	 0.5511	 0.3740	-0.2571	 0.2561	-0.0011	-0.2917	-0.1379	-0.4300	58.9209	99.9887	
   500	 0.0066	 0.5892	 0.5957	-0.0653	 0.3743	 0.3088	-0.1835	 0.0890	-0.0950	58.3141	99.9897	
   501	 0.2294	 0.5013	 0.7305	 0.0336	 0.3186	 0.3522	-0.2402	 0.0307	-0.2099	57.8308	99.9912	
   502	 0.2725	 0.4378	 0.7103	-0.0077	 0.4227	 0.4150	-0.1670	 0.1674	 0.0001	57.4079	99.9893	
   503	 0.3307	 0.7287	 1.0593	 0.2047	 0.7608	 0.9654	 0.1690	 0.5488	 0.7173	57.5755	99.9891	
   504	 0.8180	 0.8337	 1.6516	 0.9815	 0.7342	 1.7156	 1.1847	 0.3586	 1.5429	59.6253	99.9896	
   505	 1.2277	 0.5908	 1.8184	 1.5180	 0.2486	 1.7665	 1.6466	-0.2022	 1.4440	60.9682	99.9910	
   506	 1.3130	 0.4483	 1.7612	 1.6156	 0.0626	 1.6782	 1.6326	-0.3358	 1.2964	60.8894	99.9919	
   507	 1.3059	 0.3390	 1.6448	 1.5074	-0.0299	 1.4774	 1.5504	-0.5237	 1.0263	61.0312	99.9916	
   508	 1.2137	 0.2522	 1.4657	 1.4142	-0.1003	 1.3138	 1.4400	-0.5931	 0.8465	60.9595	99.9920	
   509	 1.1090	 0.2178	 1.3267	 1.3327	-0.2023	 1.1303	 1.3252	-0.7333	 0.5915	61.2060	99.9927	
   510	 0.9285	 0.1066	 1.0351	 1.0795	-0.3194	 0.7600	 1.0526	-0.8478	 0.2044	61.0192	99.9920	
   511	 0.6485	 0.0392	 0.6876	 0.8130	-0.4318	 0.3811	 0.7529	-0.9227	-0.1701	60.9047	99.9919	
   512	 0.4905	 0.0320	 0.5223	 0.6288	-0.4287	 0.2000	 0.6085	-0.9680	-0.3599	60.9633	99.9917	
   513	 0.6311	 0.0135	 0.6445	 0.8051	-0.4497	 0.3553	 0.8324	-0.9749	-0.1428	61.1795	99.9911	
   514	 0.7871	-0.0105	 0.7765	 0.9867	-0.4932	 0.4934	 0.9570	-0.9647	-0.0080	61.1171	99.9914	
   515	 0.8096	-0.0266	 0.7830	 0.9788	-0.5110	 0.4677	 0.9495	-0.9921	-0.0431	61.1121	99.9911	
   516	 0.8168	-0.0371	 0.7796	 0.9976	-0.5383	 0.4591	 0.9711	-1.0239	-0.0531	61.2114	99.9911	
   517	 0.8076	-0.0578	 0.7497	 0.9495	-0.5420	 0.4074	 0.9365	-1.0116	-0.0755	61.0778	99.9902	
   518	 0.7984	-0.0785	 0.7198	 0.9362	-0.5373	 0.3988	 0.9018	-0.9994	-0.0980	60.9442	99.9908	
   519	 0.7512	-0.0775	 0.6736	 0.8990	-0.5861	 0.3128	 0.8527	-1.0302	-0.1779	61.0054	99.9902	
   520	 0.6281	-0.1533	 0.4748	 0.7089	-0.6773	 0.0315	 0.6950	-1.1974	-0.5028	61.1847	99.9897	
   521	 0.3656	-0.3149	 0.0506	 0.3847	-0.8382	-0.4536	 0.3162	-1.3106	-0.9947	60.7922	99.9891	
   522	 0.2846	-0.3498	-0.0653	 0.3020	-0.8502	-0.5484	 0.2964	-1.3457	-1.0497	60.8978	99.9885	
   523	 0.2692	-0.3443	-0.0752	 0.2807	-0.8634	-0.5828	 0.2473	-1.3766	-1.1297	60.9221	99.9891	
   524	 0.2928	-0.3447	-0.0520	 0.2807	-0.8634	-0.5828	 0.2473	-1.3766	-1.1297	60.8860	99.9887	
   525	 0.3246	-0.3402	-0.0157	 0.3020	-0.8502	-0.5484	 0.2834	-1.3652	-1.0822	60.8886	99.9883	
   526	 0.3666	-0.2993	 0.0672	 0.3901	-0.8607	-0.4707	 0.3181	-1.3775	-1.0598	61.0187	99.9895	
   527	 0.3348	-0.3039	 0.0309	 0.3287	-0.8597	-0.5311	 0.3124	-1.4719	-1.1599	61.3144	99.9896	
   528	 0.2476	-0.3126	-0.0650	 0.2452	-0.8853	-0.6402	 0.2185	-1.4628	-1.2447	61.2112	99.9891	
   529	 0.2600	-0.3649	-0.1051	 0.2907	-0.9220	-0.6314	 0.2763	-1.4832	-1.2073	61.2533	99.9893	
   530	 0.4098	-0.3627	 0.0470	 0.4410	-0.9200	-0.4791	 0.3976	-1.4297	-1.0325	61.1255	99.9889	
   531	 0.4806	-0.3641	 0.1164	 0.4891	-0.9163	-0.4274	 0.4323	-1.4419	-1.0101	61.1217	99.9892	
   532	 0.4386	-0.4050	 0.0334	 0.4322	-0.9514	-0.5192	 0.3702	-1.4923	-1.1225	61.1155	99.9894	
   533	 0.3986	-0.4146	-0.0162	 0.3788	-0.9325	-0.5538	 0.3471	-1.4841	-1.1375	61.0845	99.9892	
   534	 0.3893	-0.4353	-0.0461	 0.3896	-0.9776	-0.5881	 0.3341	-1.5036	-1.1700	61.0832	99.9892	
   535	 0.3719	-0.4610	-0.0892	 0.3549	-0.9860	-0.6312	 0.3197	-1.5467	-1.2275	61.1478	99.9893	
   536	 0.3719	-0.4610	-0.0892	 0.3683	-0.9907	-0.6225	 0.3211	-1.5231	-1.2025	61.0832	99.9893	
   537	 0.5463	-0.4437	 0.1026	 0.5960	-0.9541	-0.3583	 0.5955	-1.4755	-0.8804	61.2738	99.9892	
   538	 0.7998	-0.4227	 0.3770	 0.8182	-0.8949	-0.0768	 0.8523	-1.4277	-0.5758	61.3190	99.9886	
   539	 0.8696	-0.4397	 0.4298	 0.8825	-0.9590	-0.0766	 0.8595	-1.5025	-0.6434	61.4072	99.9892	
   540	 0.7619	-0.5210	 0.2408	 0.7350	-1.0239	-0.2890	 0.7097	-1.5400	-0.8307	61.1997	99.9884	
   541	 0.7403	-0.4893	 0.2510	 0.7751	-1.0381	-0.2631	 0.7661	-1.5840	-0.8183	61.5373	99.9890	
   542	 0.7219	-0.5306	 0.1912	 0.7183	-1.0731	-0.3549	 0.6809	-1.6262	-0.9457	61.4267	99.9891	
   543	 0.6963	-0.5614	 0.1348	 0.6757	-1.0993	-0.4238	 0.6419	-1.6847	-1.0432	61.4879	99.9894	
   544	 0.6655	-0.5503	 0.1150	 0.6811	-1.1219	-0.4409	 0.6896	-1.6774	-0.9883	61.6309	99.9882	
   545	 0.8563	-0.5229	 0.3333	 0.8874	-1.0984	-0.2111	 0.9496	-1.6729	-0.7237	61.9109	99.9875	
   546	 0.9795	-0.5670	 0.4123	 1.0344	-1.1503	-0.1160	 1.0204	-1.6738	-0.6538	61.7775	99.9884	
   547	 0.9436	-0.6341	 0.3094	 0.9910	-1.1901	-0.1992	 0.9930	-1.7364	-0.7439	61.8098	99.9888	
   548	 0.9744	-0.6452	 0.3292	 1.0177	-1.1995	-0.1819	 1.0508	-1.7569	-0.7065	61.9129	99.9883	
   549	 1.0206	-0.6617	 0.3588	 1.0365	-1.2268	-0.1904	 1.0493	-1.7805	-0.7315	61.8744	99.9880	
   550	 1.0104	-0.6980	 0.3123	 1.0009	-1.2487	-0.2478	 1.0321	-1.8707	-0.8391	62.0354	99.9886	
   551	 0.9622	-0.7127	 0.2494	 0.9771	-1.3022	-0.3252	 0.9646	-1.9132	-0.9490	62.0629	99.9892	
   552	 1.0238	-0.7348	 0.2889	 1.0598	-1.2901	-0.2304	 1.1014	-1.8952	-0.7942	62.1425	99.9888	
   553	 1.2054	-0.7280	 0.4773	 1.2636	-1.3071	-0.0435	 1.2343	-1.8458	-0.6119	62.0119	99.9891	
   554	 1.2742	-0.7607	 0.5134	 1.2824	-1.3344	-0.0520	 1.2647	-1.9288	-0.6645	62.1386	99.9890	
   555	 1.2506	-0.7602	 0.4903	 1.2548	-1.3384	-0.0836	 1.2795	-1.9762	-0.6971	62.3391	99.9888	
   556	 1.2475	-0.8071	 0.4404	 1.2444	-1.3966	-0.1524	 1.2623	-2.0665	-0.8047	62.4676	99.9891	
   557	 1.2055	-0.8479	 0.3575	 1.1876	-1.4317	-0.2442	 1.1948	-2.1090	-0.9146	62.4297	99.9893	
   558	 1.1553	-0.8939	 0.2613	 1.0961	-1.4751	-0.3791	 1.0912	-2.1627	-1.0720	62.3545	99.9891	
   559	 1.0578	-0.9388	 0.1189	 0.9966	-1.5363	-0.5398	 0.9529	-2.2042	-1.2517	62.2461	99.9894	
   560	 1.0476	-0.9751	 0.0724	 1.0091	-1.5545	-0.5455	 1.0107	-2.2246	-1.2144	62.3545	99.9891	
   561	 1.2210	-0.9734	 0.2475	 1.1942	-1.5442	-0.3501	 1.2183	-2.2076	-0.9897	62.4641	99.9888	
   562	 1.3380	-0.9914	 0.3465	 1.3144	-1.5866	-0.2723	 1.3108	-2.2403	-0.9299	62.5303	99.9889	
   563	 1.4160	-1.0034	 0.4126	 1.3633	-1.5695	-0.2063	 1.3783	-2.1979	-0.8200	62.4006	99.9880	
   564	 1.4764	-0.8012	 0.6751	 1.5255	-1.3789	 0.1465	 1.4959	-2.0105	-0.5150	62.4438	99.9903	
   565	 1.4680	-0.6863	 0.7816	 1.5547	-1.3479	 0.2067	 1.4515	-2.0611	-0.6100	62.7658	99.9923	
   566	 1.3995	-0.8935	 0.5059	 1.3633	-1.5695	-0.2063	 1.2997	-2.3267	-1.0275	62.8847	99.9904	
   567	 1.2898	-1.0060	 0.2837	 1.1883	-1.6385	-0.4503	 1.1484	-2.3878	-1.2398	62.6775	99.9894	
   568	 1.2210	-0.9734	 0.2475	 1.1482	-1.6243	-0.4762	 1.0906	-2.3673	-1.2772	62.6766	99.9899	
   569	 1.2272	-0.9996	 0.2275	 1.1937	-1.6610	-0.4674	 1.1484	-2.3878	-1.2398	62.7827	99.9899	
   570	 1.3658	-1.0493	 0.3164	 1.3131	-1.7170	-0.4040	 1.2409	-2.4204	-1.1800	62.7482	99.9897	
   571	 1.3863	-1.0966	 0.2896	 1.3026	-1.7753	-0.4727	 1.2080	-2.4751	-1.2675	62.7088	99.9895	
   572	 1.3361	-1.1425	 0.1935	 1.2191	-1.8008	-0.5818	 1.1188	-2.4858	-1.3673	62.5364	99.9891	
   573	 1.2787	-1.1779	 0.1007	 1.1614	-1.8493	-0.6880	 1.0282	-2.5200	-1.4922	62.4634	99.9894	
   574	 1.1966	-1.2284	-0.0319	 1.0699	-1.8927	-0.8229	 0.9593	-2.5860	-1.6271	62.5285	99.9892	
   575	 1.1248	-1.2426	-0.1179	 0.9943	-1.9004	-0.9062	 0.8831	-2.5772	-1.6945	62.4259	99.9890	
   576	 1.0704	-1.2311	-0.1608	 0.9142	-1.8721	-0.9580	 0.8687	-2.6203	-1.7520	62.6286	99.9886	
   577	 1.0202	-1.2770	-0.2569	 0.8761	-1.9344	-1.0584	 0.7925	-2.6114	-1.8194	62.4241	99.9883	
   578	 1.0838	-1.2679	-0.1842	 0.9730	-1.9135	-0.9406	 0.9048	-2.6089	-1.7046	62.5659	99.9889	
   579	 1.1864	-1.2647	-0.0784	 1.0557	-1.9015	-0.8458	 0.9940	-2.5983	-1.6047	62.5676	99.9886	
   580	 1.2152	-1.3070	-0.0919	 1.0398	-1.9372	-0.8974	 0.9395	-2.6212	-1.6821	62.3911	99.9885	
   581	 1.1670	-1.3217	-0.1548	 1.0123	-1.9412	-0.9290	 0.9265	-2.6407	-1.7146	62.4607	99.9889	
   582	 1.1670	-1.3217	-0.1548	 1.0043	-1.9590	-0.9548	 0.8849	-2.6441	-1.7596	62.3883	99.9891	
   583	 1.1270	-1.3313	-0.2044	 0.9162	-1.9485	-1.0324	 0.8488	-2.6554	-1.8070	62.3874	99.9878	
   584	 1.0644	-1.3248	-0.2606	 0.8941	-1.9751	-1.0812	 0.7957	-2.6548	-1.8594	62.3865	99.9883	
   585	 1.0110	-1.2977	-0.2868	 0.8352	-1.9337	-1.0986	 0.7217	-2.6105	-1.8892	62.2487	99.9887	
   586	 0.9320	-1.3013	-0.3695	 0.7596	-1.9414	-1.1819	 0.6603	-2.6491	-1.9892	62.3479	99.9889	
   587	 0.9700	-1.3230	-0.3531	 0.7997	-1.9556	-1.1560	 0.7181	-2.6695	-1.9518	62.4187	99.9887	
   588	 1.0634	-1.3405	-0.2772	 0.8540	-1.9610	-1.1071	 0.7726	-2.6466	-1.8744	62.2837	99.9878	
   589	 1.0326	-1.3294	-0.2970	 0.8272	-1.9515	-1.1244	 0.7018	-2.6457	-1.9442	62.2099	99.9889	
   590	 0.9997	-1.3496	-0.3500	 0.7784	-1.9687	-1.1904	 0.6256	-2.6368	-2.0116	62.0357	99.9888	
   591	 0.9525	-1.3487	-0.3962	 0.7170	-1.9677	-1.2508	 0.6405	-2.6842	-2.0442	62.2761	99.9878	
   592	 0.9043	-1.3634	-0.4591	 0.6681	-1.9848	-1.3168	 0.5697	-2.6833	-2.1140	62.1710	99.9879	
   593	 0.8407	-1.3725	-0.5319	 0.6058	-1.9973	-1.3915	 0.4704	-2.6663	-2.1963	61.9965	99.9882	
   594	 0.7699	-1.3711	-0.6013	 0.5177	-1.9868	-1.4691	 0.4213	-2.6972	-2.2763	62.0969	99.9879	
   595	 0.7145	-1.3752	-0.6608	 0.4688	-2.0039	-1.5352	 0.3403	-2.6686	-2.3286	61.9241	99.9878	
   596	 0.7699	-1.3711	-0.6013	 0.5257	-1.9689	-1.4434	 0.4357	-2.6541	-2.2188	61.9996	99.9877	
   597	 0.8427	-1.3413	-0.4986	 0.6092	-1.9434	-1.3342	 0.4902	-2.6311	-2.1413	61.9996	99.9885	
   598	 0.8509	-1.3362	-0.4854	 0.5959	-1.9386	-1.3429	 0.4555	-2.6189	-2.1638	61.8931	99.9884	
   599	 0.8109	-1.3459	-0.5350	 0.5478	-1.9423	-1.3946	 0.4194	-2.6302	-2.2112	61.8921	99.9883	
   600	 0.7637	-1.3449	-0.5813	 0.5069	-1.9416	-1.4348	 0.3779	-2.6336	-2.2562	61.8910	99.9885	
   601	 0.7319	-1.3495	-0.6177	 0.4455	-1.9406	-1.4952	 0.3418	-2.6450	-2.3036	61.8889	99.9877	
   602	 0.6837	-1.3642	-0.6805	 0.3975	-1.9443	-1.5469	 0.2609	-2.6164	-2.3559	61.6817	99.9881	
   603	 0.6211	-1.3577	-0.7367	 0.3486	-1.9614	-1.6130	 0.2295	-2.6475	-2.4184	61.8173	99.9879	
   604	 0.5729	-1.3724	-0.7996	 0.2809	-1.9513	-1.6705	 0.1301	-2.6304	-2.5007	61.6065	99.9884	
   605	 0.6037	-1.3834	-0.7798	 0.2951	-1.9426	-1.6475	 0.2063	-2.6393	-2.4334	61.7159	99.9874	
   606	 0.6561	-1.4262	-0.7702	 0.3611	-1.9796	-1.6186	 0.2295	-2.6475	-2.4184	61.6134	99.9881	
   607	 0.6571	-1.4106	-0.7536	 0.3565	-1.9436	-1.5872	 0.2295	-2.6475	-2.4184	61.6464	99.9886	
   608	 0.6427	-1.3894	-0.7468	 0.3565	-1.9436	-1.5872	 0.2262	-2.6041	-2.3784	61.5815	99.9881	
   609	 0.6385	-1.3320	-0.6935	 0.3787	-1.9170	-1.5384	 0.2392	-2.5846	-2.3459	61.6839	99.9884	
   610	 0.6159	-1.3159	-0.7000	 0.3252	-1.8981	-1.5730	 0.1915	-2.5919	-2.4008	61.6783	99.9883	
   611	 0.5923	-1.3154	-0.7232	 0.2584	-1.8745	-1.6162	 0.1120	-2.5397	-2.4281	61.4012	99.9877	
   612	 0.5328	-1.2621	-0.7294	 0.2263	-1.8425	-1.6163	 0.1120	-2.5397	-2.4281	61.6088	99.9877	
   613	 0.4846	-1.2768	-0.7923	 0.1703	-1.8640	-1.6938	 0.0167	-2.5542	-2.5379	61.4980	99.9882	
   614	 0.4702	-1.2556	-0.7855	 0.1862	-1.8283	-1.6422	 0.0726	-2.5077	-2.4355	61.5439	99.9879	
   615	 0.5912	-1.2111	-0.6200	 0.3052	-1.7809	-1.4757	 0.2048	-2.4701	-2.2657	61.6179	99.9877	
   616	 0.5994	-1.2060	-0.6067	 0.3052	-1.7809	-1.4757	 0.1632	-2.4735	-2.3106	61.5427	99.9884	
   617	 0.5348	-1.2308	-0.6961	 0.2538	-1.8385	-1.5847	 0.0957	-2.5159	-2.4205	61.5723	99.9884	
   618	 0.5328	-1.2621	-0.7294	 0.2263	-1.8425	-1.6163	 0.0889	-2.5315	-2.4430	61.5381	99.9880	
   619	 0.5000	-1.2823	-0.7824	 0.1837	-1.8687	-1.6852	 0.0528	-2.5429	-2.4905	61.5027	99.9874	
   620	 0.4866	-1.2455	-0.7590	 0.1862	-1.8283	-1.6422	 0.0509	-2.4759	-2.4254	61.4048	99.9874	
   621	 0.5091	-1.1417	-0.6327	 0.1946	-1.6936	-1.4991	 0.1321	-2.4022	-2.2705	61.5496	99.9870	
   622	 0.4843	-1.0369	-0.5527	 0.1926	-1.6171	-1.4247	 0.0494	-2.3067	-2.2577	61.3718	99.9884	
   623	 0.3622	-0.9771	-0.6150	 0.0936	-1.5615	-1.4680	-0.0778	-2.2618	-2.3400	61.2985	99.9895	
   624	 0.3816	-0.9201	-0.5386	 0.1245	-1.5036	-1.3792	-0.0103	-2.2194	-2.2301	61.4084	99.9892	
   625	 0.4268	-0.9523	-0.5256	 0.1700	-1.5403	-1.3704	-0.0070	-2.2627	-2.2701	61.4024	99.9900	
   626	 0.4371	-1.0359	-0.5989	 0.1437	-1.6343	-1.4907	-0.0181	-2.3491	-2.3677	61.4318	99.9890	
   627	 0.4875	-1.1100	-0.6226	 0.1725	-1.7202	-1.5478	 0.0130	-2.4204	-2.4078	61.4637	99.9882	
   628	 0.4506	-1.1926	-0.7421	 0.0935	-1.7818	-1.6884	-0.0281	-2.5143	-2.5428	61.5276	99.9875	
   629	 0.4086	-1.2335	-0.8250	 0.0045	-1.7848	-1.7804	-0.1220	-2.5052	-2.6276	61.2825	99.9871	
   630	 0.3470	-1.2114	-0.8645	-0.0088	-1.7801	-1.7890	-0.2015	-2.4530	-2.6549	61.1095	99.9883	
   631	 0.3316	-1.2059	-0.8744	-0.0757	-1.7565	-1.8322	-0.2593	-2.4326	-2.6923	60.9668	99.9876	
   632	 0.3028	-1.1636	-0.8609	-0.0669	-1.7251	-1.7921	-0.1586	-2.4260	-2.5850	61.2911	99.9865	
   633	 0.4003	-1.1186	-0.7185	 0.0246	-1.6817	-1.6572	-0.1026	-2.3795	-2.4826	61.2213	99.9871	
   634	 0.4105	-1.0823	-0.6719	 0.0388	-1.6730	-1.6343	-0.0842	-2.3679	-2.4526	61.2899	99.9867	
   635	 0.3869	-1.0819	-0.6951	 0.0113	-1.6770	-1.6659	-0.1420	-2.3475	-2.4899	61.1489	99.9868	
   636	 0.3243	-1.0754	-0.7512	-0.0689	-1.6487	-1.7177	-0.2182	-2.3387	-2.5573	61.0764	99.9870	
   637	 0.2833	-1.1007	-0.8175	-0.1257	-1.6837	-1.8095	-0.2973	-2.3770	-2.6747	61.0329	99.9872	
   638	 0.2269	-1.1204	-0.8936	-0.1880	-1.6961	-1.8842	-0.3966	-2.3600	-2.7570	60.8210	99.9875	
   639	 0.1561	-1.1190	-0.9630	-0.2440	-1.7177	-1.9617	-0.4342	-2.3949	-2.8295	60.9575	99.9873	
   640	 0.1622	-1.1452	-0.9830	-0.2627	-1.6904	-1.9532	-0.3981	-2.3836	-2.7820	60.9311	99.9866	
   641	 0.2505	-1.1209	-0.8705	-0.1337	-1.7015	-1.8353	-0.2959	-2.3534	-2.6497	60.9721	99.9867	
   642	 0.3049	-1.1324	-0.8276	-0.0990	-1.6931	-1.7923	-0.2775	-2.3418	-2.6197	60.8677	99.9870	
   643	 0.2987	-1.1062	-0.8076	-0.1383	-1.6655	-1.8039	-0.2775	-2.3418	-2.6197	60.9351	99.9860	
   644	 0.2895	-1.1269	-0.8375	-0.1391	-1.6790	-1.8182	-0.2959	-2.3534	-2.6497	60.8994	99.9866	
   645	 0.2597	-1.1002	-0.8406	-0.1792	-1.6648	-1.8441	-0.3353	-2.3214	-2.6571	60.8293	99.9859	
   646	 0.2433	-1.1103	-0.8671	-0.1926	-1.6601	-1.8527	-0.3768	-2.3248	-2.7020	60.7563	99.9870	
   647	 0.1807	-1.1038	-0.9233	-0.2406	-1.6638	-1.9045	-0.4129	-2.3362	-2.7495	60.8251	99.9870	
   648	 0.2433	-1.1103	-0.8671	-0.1650	-1.6561	-1.8211	-0.2991	-2.3101	-2.6096	60.8731	99.9862	
   649	 0.3233	-1.0910	-0.7678	-0.0956	-1.6392	-1.7350	-0.1767	-2.3353	-2.5124	61.1185	99.9855	
   650	 0.3315	-1.0860	-0.7546	-0.1082	-1.6210	-1.7293	-0.2215	-2.2953	-2.5173	60.9088	99.9857	
   651	 0.3315	-1.0860	-0.7546	-0.1215	-1.6163	-1.7380	-0.2378	-2.2715	-2.5097	60.8059	99.9852	
   652	 0.2833	-1.1007	-0.8175	-0.1303	-1.6476	-1.7781	-0.2923	-2.2944	-2.5871	60.8018	99.9866	
   653	 0.2289	-1.0891	-0.8604	-0.1650	-1.6561	-1.8211	-0.3154	-2.2863	-2.6021	60.8388	99.9861	
   654	 0.2125	-1.0992	-0.8869	-0.2326	-1.6459	-1.8787	-0.4162	-2.2928	-2.7094	60.6531	99.9865	
   655	 0.1489	-1.1084	-0.9596	-0.2940	-1.6449	-1.9390	-0.4360	-2.3280	-2.7644	60.7921	99.9864	
   656	 0.1489	-1.1084	-0.9596	-0.2727	-1.6318	-1.9046	-0.3699	-2.3092	-2.6795	60.8731	99.9859	
   657	 0.2525	-1.0896	-0.8372	-0.1491	-1.6204	-1.7696	-0.2562	-2.2831	-2.5397	60.9141	99.9861	
   658	 0.2771	-1.0745	-0.7975	-0.1491	-1.6204	-1.7696	-0.2562	-2.2831	-2.5397	60.9101	99.9854	
   659	 0.2607	-1.0846	-0.8240	-0.1892	-1.6062	-1.7955	-0.2923	-2.2944	-2.5871	60.8718	99.9857	
   660	 0.2217	-1.0786	-0.8570	-0.1917	-1.6466	-1.8384	-0.3154	-2.2863	-2.6021	60.8731	99.9853	
   661	 0.1981	-1.0781	-0.8801	-0.2318	-1.6324	-1.8644	-0.3732	-2.2658	-2.6395	60.7317	99.9855	
   662	 0.1581	-1.0877	-0.9297	-0.2995	-1.6223	-1.9219	-0.4509	-2.2806	-2.7318	60.6545	99.9860	
   663	 0.1006	-1.1231	-1.0225	-0.3429	-1.6620	-2.0051	-0.4938	-2.3076	-2.8018	60.6545	99.9859	
   664	 0.0401	-1.0854	-1.0454	-0.4018	-1.6206	-2.0225	-0.5733	-2.2554	-2.8291	60.5141	99.9863	
   665	 0.0237	-1.0955	-1.0719	-0.4097	-1.6384	-2.0483	-0.5353	-2.3110	-2.8467	60.7577	99.9860	
   666	 0.0863	-1.1019	-1.0158	-0.3341	-1.6307	-1.9650	-0.4509	-2.2806	-2.7318	60.7331	99.9858	
   667	 0.1355	-1.0716	-0.9362	-0.3040	-1.5863	-1.8904	-0.4310	-2.2454	-2.6768	60.6630	99.9860	
   668	 0.1181	-1.0974	-0.9794	-0.3341	-1.6307	-1.9650	-0.4577	-2.2962	-2.7543	60.7261	99.9856	
   669	 0.0463	-1.1116	-1.0654	-0.4018	-1.6206	-2.0225	-0.5155	-2.2758	-2.7917	60.6258	99.9856	
   670	 0.0411	-1.0697	-1.0288	-0.3742	-1.6166	-1.9909	-0.5318	-2.2520	-2.7842	60.6230	99.9863	
   671	-0.0215	-1.0633	-1.0849	-0.4552	-1.6017	-2.0570	-0.5747	-2.2790	-2.8541	60.7233	99.9860	
   672	-0.0328	-1.1152	-1.1481	-0.4987	-1.6414	-2.1402	-0.6524	-2.2937	-2.9465	60.5082	99.9859	
   673	-0.1118	-1.1188	-1.2307	-0.5609	-1.6539	-2.2149	-0.7463	-2.2846	-3.0313	60.4004	99.9865	
   674	-0.1898	-1.1068	-1.2967	-0.6499	-1.6569	-2.3069	-0.7961	-2.3273	-3.1238	60.5684	99.9859	
   675	-0.1590	-1.1179	-1.2770	-0.6010	-1.6397	-2.2408	-0.7531	-2.3003	-3.0538	60.5068	99.9866	
   676	-0.1251	-1.0821	-1.2073	-0.5647	-1.6043	-2.1691	-0.7319	-2.2415	-2.9738	60.4064	99.9865	
   677	-0.1313	-1.0559	-1.1873	-0.5914	-1.5949	-2.1864	-0.7333	-2.2651	-2.9988	60.5398	99.9859	
   678	-0.1713	-1.0655	-1.2369	-0.6323	-1.5942	-2.2266	-0.7911	-2.2447	-3.0362	60.4004	99.9861	
   679	-0.2021	-1.0545	-1.2567	-0.6582	-1.5713	-2.2296	-0.8142	-2.2365	-3.0512	60.4004	99.9866	
   680	-0.2555	-1.0273	-1.2829	-0.6858	-1.5753	-2.2612	-0.8720	-2.2161	-3.0885	60.3629	99.9869	
   681	-0.3181	-1.0209	-1.3391	-0.7472	-1.5743	-2.3216	-0.9081	-2.2275	-3.1360	60.4319	99.9865	
   682	-0.3509	-1.0411	-1.3921	-0.8282	-1.5594	-2.3877	-0.9728	-2.2227	-3.1959	60.2894	99.9859	
   683	-0.3909	-1.0507	-1.4417	-0.8762	-1.5631	-2.4395	-1.0157	-2.2497	-3.2658	60.3193	99.9861	
   684	-0.3755	-1.0562	-1.4318	-0.8228	-1.5820	-2.4049	-0.9728	-2.2227	-3.1959	60.2939	99.9861	
   685	-0.3581	-1.0305	-1.3887	-0.8015	-1.5689	-2.3705	-0.9496	-2.2309	-3.1809	60.3959	99.9863	
   686	-0.3817	-1.0300	-1.4118	-0.8495	-1.5726	-2.4222	-0.9796	-2.2384	-3.2184	60.3929	99.9855	
   687	-0.3991	-1.0557	-1.4550	-0.8637	-1.5813	-2.4451	-1.0735	-2.2293	-3.3032	60.1403	99.9873	
   688	-0.4453	-1.0392	-1.4846	-0.9251	-1.5803	-2.5055	-1.0804	-2.2449	-3.3257	60.2802	99.9859	
   689	-0.4761	-1.0281	-1.5043	-0.9464	-1.5934	-2.5399	-1.1382	-2.2245	-3.3631	60.1717	99.9859	
   690	-0.5161	-1.0378	-1.5540	-1.0007	-1.5880	-2.5888	-1.1580	-2.2597	-3.4181	60.2740	99.9858	
   691	-0.5633	-1.0368	-1.6002	-1.0621	-1.5869	-2.6492	-1.2389	-2.2311	-3.4704	60.0962	99.9855	
   692	-0.5797	-1.0469	-1.6268	-1.0755	-1.5822	-2.6578	-1.2389	-2.2311	-3.4704	60.0994	99.9856	
   693	-0.5613	-1.0056	-1.5670	-1.0132	-1.5698	-2.5831	-1.1960	-2.2041	-3.4004	60.1733	99.9861	
   694	-0.5531	-1.0005	-1.5537	-1.0320	-1.5425	-2.5746	-1.1960	-2.2041	-3.4004	60.1717	99.9860	
   695	-0.5921	-0.9945	-1.5867	-1.1122	-1.5142	-2.6265	-1.2205	-2.2195	-3.4404	60.2394	99.9851	
   696	-0.6229	-0.9835	-1.6065	-1.1335	-1.5273	-2.6609	-1.2783	-2.1991	-3.4778	60.1308	99.9852	
   697	-0.6537	-0.9724	-1.6262	-1.1477	-1.5361	-2.6839	-1.3014	-2.1909	-3.4927	60.1308	99.9851	
   698	-0.7009	-0.9715	-1.6725	-1.2145	-1.5124	-2.7271	-1.3661	-2.1862	-3.5526	60.0568	99.9854	
   699	-0.7481	-0.9705	-1.7187	-1.2626	-1.5161	-2.7788	-1.4022	-2.1975	-3.6001	60.0898	99.9852	
   700	-0.7625	-0.9494	-1.7120	-1.2538	-1.4848	-2.7387	-1.3592	-2.1705	-3.5301	60.1702	99.9850	
   701	-0.6835	-0.9458	-1.6293	-1.1711	-1.4727	-2.6439	-1.2931	-2.1517	-3.4452	60.1387	99.9855	
   702	-0.6661	-0.9200	-1.5862	-1.1569	-1.4640	-2.6209	-1.2802	-2.1322	-3.4127	60.1387	99.9850	
   703	-0.6969	-0.9090	-1.6059	-1.1969	-1.4498	-2.6469	-1.3380	-2.1117	-3.4501	60.0301	99.9852	
   704	-0.7205	-0.9085	-1.6291	-1.2370	-1.4356	-2.6728	-1.3380	-2.1117	-3.4501	60.0679	99.9844	
   705	-0.7512	-0.8975	-1.6488	-1.2379	-1.4491	-2.6871	-1.3842	-2.0954	-3.4800	59.9955	99.9851	
   706	-0.7759	-0.9126	-1.6886	-1.3181	-1.4208	-2.7389	-1.4040	-2.1306	-3.5350	60.0616	99.9845	
   707	-0.8221	-0.8961	-1.7182	-1.3314	-1.4161	-2.7476	-1.4618	-2.1101	-3.5724	59.9890	99.9857	
   708	-0.7800	-0.8552	-1.6353	-1.2683	-1.3902	-2.6586	-1.3705	-2.0641	-3.4350	60.0711	99.9848	
   709	-0.7020	-0.8672	-1.5693	-1.2069	-1.3912	-2.5982	-1.3127	-2.0845	-3.3976	60.1041	99.9851	
   710	-0.7256	-0.8667	-1.5924	-1.2470	-1.3770	-2.6242	-1.3705	-2.0641	-3.4350	59.9609	99.9853	
   711	-0.7482	-0.8506	-1.5989	-1.2470	-1.3770	-2.6242	-1.3691	-2.0405	-3.4100	59.9658	99.9850	
   712	-0.7626	-0.8295	-1.5922	-1.2729	-1.3541	-2.6271	-1.3922	-2.0323	-3.4249	59.9625	99.9850	
   713	-0.7924	-0.8028	-1.5953	-1.2917	-1.3268	-2.6186	-1.4139	-2.0006	-3.4149	59.9296	99.9853	
   714	-0.8232	-0.7918	-1.6150	-1.3397	-1.3305	-2.6703	-1.4731	-2.0037	-3.4773	59.8867	99.9850	
   715	-0.8468	-0.7913	-1.6382	-1.3531	-1.3258	-2.6790	-1.4731	-2.0037	-3.4773	59.9247	99.9850	
   716	-0.7678	-0.7876	-1.5555	-1.2838	-1.3090	-2.5928	-1.3561	-2.0210	-3.3775	60.1057	99.9845	
   717	-0.7350	-0.7674	-1.5025	-1.2562	-1.3049	-2.5612	-1.3723	-1.9972	-3.3699	59.9955	99.9848	
   718	-0.7575	-0.7513	-1.5090	-1.2963	-1.2908	-2.5872	-1.4287	-1.9532	-3.3823	59.8191	99.9843	
   719	-0.7883	-0.7403	-1.5287	-1.3151	-1.2635	-2.5786	-1.4518	-1.9450	-3.3972	59.8191	99.9852	
   720	-0.8099	-0.7086	-1.5186	-1.3409	-1.2406	-2.5816	-1.4681	-1.9212	-3.3897	59.8191	99.9848	
   721	-0.8407	-0.6975	-1.5384	-1.3810	-1.2264	-2.6075	-1.4981	-1.9287	-3.4271	59.8504	99.9848	
   722	-0.8653	-0.7127	-1.5781	-1.4032	-1.2530	-2.6563	-1.5342	-1.9400	-3.4746	59.8124	99.9848	
   723	-0.8787	-0.6759	-1.5547	-1.3810	-1.2264	-2.6075	-1.4912	-1.9130	-3.4046	59.9263	99.9848	
   724	-0.8079	-0.6773	-1.4853	-1.3384	-1.2002	-2.5387	-1.4483	-1.8860	-3.3347	59.8241	99.9846	
   725	-0.7987	-0.6567	-1.4554	-1.3376	-1.1867	-2.5244	-1.4700	-1.8542	-3.3246	59.7169	99.9846	
   726	-0.8110	-0.6043	-1.4154	-1.3342	-1.1328	-2.4671	-1.4848	-1.8068	-3.2920	59.6823	99.9854	
   727	-0.8264	-0.5988	-1.4253	-1.3563	-1.1594	-2.5158	-1.5061	-1.8656	-3.3721	59.8454	99.9854	
   728	-0.8767	-0.6447	-1.5215	-1.4186	-1.1718	-2.5905	-1.5523	-1.8493	-3.4020	59.6772	99.9848	
   729	-0.8983	-0.6130	-1.5113	-1.4499	-1.1263	-2.5763	-1.5740	-1.8175	-3.3919	59.6425	99.9848	
   730	-0.9096	-0.5449	-1.4547	-1.4465	-1.0725	-2.5191	-1.5657	-1.7782	-3.3444	59.7135	99.9851	
   731	-0.8286	-0.5101	-1.3387	-1.4031	-1.0327	-2.4359	-1.5228	-1.7513	-3.2744	59.6755	99.9846	
   732	-0.8348	-0.4839	-1.3187	-1.3763	-1.0422	-2.4186	-1.5459	-1.7431	-3.2894	59.6703	99.9856	
   733	-0.8532	-0.5252	-1.3785	-1.4198	-1.0819	-2.5018	-1.5820	-1.7544	-3.3368	59.5645	99.9845	
   734	-0.8696	-0.5353	-1.4050	-1.4189	-1.0684	-2.4875	-1.5820	-1.7544	-3.3368	59.5680	99.9854	
   735	-0.8902	-0.4880	-1.3782	-1.4699	-1.0091	-2.4791	-1.6037	-1.7227	-3.3267	59.5663	99.9848	
   736	-0.9210	-0.4769	-1.3980	-1.4778	-1.0270	-2.5049	-1.6268	-1.7145	-3.3417	59.5663	99.9847	
   737	-0.8974	-0.4774	-1.3749	-1.4164	-1.0280	-2.4445	-1.5676	-1.7113	-3.2793	59.6443	99.9854	
   738	-0.8173	-0.4581	-1.2756	-1.3542	-1.0156	-2.3699	-1.5246	-1.6843	-3.2093	59.5733	99.9851	
   739	-0.7937	-0.4586	-1.2525	-1.3533	-1.0021	-2.3555	-1.5409	-1.6605	-3.2018	59.4311	99.9851	
   740	-0.8245	-0.4476	-1.2722	-1.3667	-0.9974	-2.3642	-1.5409	-1.6605	-3.2018	59.5040	99.9851	
   741	-0.8245	-0.4476	-1.2722	-1.3934	-0.9879	-2.3815	-1.5409	-1.6605	-3.2018	59.5040	99.9843	
   742	-0.8553	-0.4365	-1.2920	-1.4068	-0.9832	-2.3901	-1.5824	-1.6639	-3.2467	59.4987	99.9854	
   743	-0.8707	-0.4310	-1.3018	-1.4389	-0.9512	-2.3902	-1.5987	-1.6401	-3.2392	59.4311	99.9852	
   744	-0.8133	-0.3956	-1.2091	-1.3420	-0.9304	-2.2725	-1.5196	-1.6018	-3.1218	59.4746	99.9858	
   745	-0.7405	-0.3658	-1.1064	-1.2798	-0.9179	-2.1978	-1.4821	-1.5668	-3.0493	59.4036	99.9855	
   746	-0.7323	-0.3608	-1.0931	-1.2986	-0.8906	-2.1893	-1.4821	-1.5668	-3.0493	59.4019	99.9854	
   747	-0.7477	-0.3552	-1.1030	-1.3253	-0.8812	-2.2066	-1.5168	-1.5546	-3.0717	59.3290	99.9854	
   748	-0.7713	-0.3548	-1.1261	-1.3387	-0.8765	-2.2152	-1.5182	-1.5782	-3.0968	59.4329	99.9859	
   749	-0.7877	-0.3649	-1.1527	-1.3733	-0.8849	-2.2583	-1.5543	-1.5895	-3.1442	59.3929	99.9856	
   750	-0.8349	-0.3639	-1.1989	-1.3955	-0.9115	-2.3071	-1.6190	-1.5847	-3.2041	59.3181	99.9862	
   751	-0.8523	-0.3897	-1.2421	-1.4168	-0.9246	-2.3415	-1.5626	-1.6287	-3.1917	59.5369	99.9850	
   752	-0.7805	-0.3754	-1.1560	-1.3199	-0.9038	-2.2237	-1.4951	-1.5863	-3.0818	59.4746	99.9859	
   753	-0.7303	-0.3295	-1.0599	-1.2764	-0.8640	-2.1406	-1.4623	-1.5317	-2.9943	59.4072	99.9856	
   754	-0.7323	-0.3608	-1.0931	-1.2798	-0.9179	-2.1978	-1.4951	-1.5863	-3.0818	59.4311	99.9860	
   755	-0.7497	-0.3865	-1.1363	-1.3207	-0.9172	-2.2381	-1.5196	-1.6018	-3.1218	59.3947	99.9858	
   756	-0.7805	-0.3754	-1.1560	-1.3608	-0.9031	-2.2640	-1.5543	-1.5895	-3.1442	59.3582	99.9856	
   757	-0.8021	-0.3437	-1.1459	-1.4001	-0.8754	-2.2756	-1.5413	-1.5700	-3.1117	59.4329	99.9842	
   758	-0.8349	-0.3639	-1.1989	-1.4222	-0.9020	-2.3243	-1.6005	-1.5732	-3.1741	59.3236	99.9847	
   759	-0.8831	-0.3786	-1.2618	-1.4657	-0.9418	-2.4075	-1.6218	-1.6319	-3.2541	59.4934	99.9843	
   760	-0.9169	-0.4144	-1.3315	-1.5404	-0.9360	-2.4765	-1.6865	-1.6271	-3.3140	59.3163	99.9839	
   761	-0.9785	-0.3923	-1.3710	-1.5671	-0.9266	-2.4938	-1.6796	-1.6115	-3.2915	59.4311	99.9835	
   762	-0.9057	-0.3625	-1.2683	-1.4569	-0.9104	-2.3674	-1.6005	-1.5732	-3.1741	59.4383	99.9843	
   763	-0.8421	-0.3534	-1.1955	-1.4143	-0.8842	-2.2985	-1.5977	-1.5260	-3.1241	59.2269	99.9847	
   764	-0.8708	-0.3111	-1.1820	-1.4456	-0.8387	-2.2844	-1.6357	-1.4704	-3.1064	59.1230	99.9847	
   765	-0.9098	-0.3051	-1.2150	-1.4811	-0.8606	-2.3418	-1.6569	-1.5291	-3.1865	59.3236	99.9847	
   766	-0.9129	-0.3519	-1.2649	-1.5157	-0.8690	-2.3848	-1.6652	-1.5684	-3.2340	59.3217	99.9846	
   767	-0.9437	-0.3409	-1.2847	-1.5558	-0.8548	-2.4108	-1.7032	-1.5128	-3.2164	59.1521	99.9837	
   768	-0.9807	-0.3037	-1.2844	-1.5692	-0.8501	-2.4194	-1.7378	-1.5006	-3.2388	59.1830	99.9840	
   769	-1.0207	-0.3133	-1.3340	-1.6039	-0.8585	-2.4625	-1.7624	-1.5160	-3.2788	59.2177	99.9840	
   770	-1.0535	-0.3335	-1.3871	-1.6448	-0.8578	-2.5027	-1.8270	-1.5112	-3.3386	59.0733	99.9847	
   771	-1.1089	-0.3376	-1.4466	-1.7196	-0.8521	-2.5717	-1.8631	-1.5226	-3.3861	59.1081	99.9839	
   772	-1.0689	-0.3280	-1.3969	-1.6840	-0.8302	-2.5143	-1.8039	-1.5194	-3.3237	59.1830	99.9837	
   773	-1.0227	-0.3445	-1.3673	-1.6314	-0.8625	-2.4941	-1.7822	-1.5511	-3.3338	59.2122	99.9843	
   774	-1.0627	-0.3542	-1.4170	-1.6607	-0.8935	-2.5543	-1.8285	-1.5348	-3.3637	59.1081	99.9837	
   775	-1.0905	-0.2963	-1.3868	-1.7162	-0.7982	-2.5145	-1.8419	-1.4638	-3.3061	59.0443	99.9832	
   776	-1.0997	-0.3169	-1.4167	-1.7250	-0.8295	-2.5546	-1.8270	-1.5112	-3.3386	59.1830	99.9828	
   777	-1.1397	-0.3266	-1.4663	-1.7329	-0.8473	-2.5804	-1.8631	-1.5226	-3.3861	59.1812	99.9839	
   778	-1.1756	-0.2737	-1.4494	-1.7642	-0.8019	-2.5662	-1.8664	-1.4792	-3.3460	59.2214	99.9832	
   779	-1.1910	-0.2682	-1.4593	-1.8310	-0.7782	-2.6094	-1.9242	-1.4588	-3.3834	59.0752	99.9823	
   780	-1.2167	-0.2989	-1.5157	-1.8532	-0.8048	-2.6581	-1.9672	-1.4858	-3.4534	59.0349	99.9830	
   781	-1.2013	-0.3045	-1.5058	-1.8185	-0.7964	-2.6151	-1.9079	-1.4826	-3.3910	59.1155	99.9831	
   782	-1.1613	-0.2948	-1.4562	-1.7517	-0.8200	-2.5718	-1.9011	-1.4670	-3.3685	59.0424	99.9838	
   783	-1.1695	-0.2999	-1.4694	-1.7918	-0.8059	-2.5978	-1.9094	-1.5062	-3.4160	59.1409	99.9837	
   784	-1.1941	-0.3150	-1.5092	-1.8344	-0.8321	-2.6666	-1.9686	-1.5094	-3.4784	59.0292	99.9832	
   785	-1.2577	-0.3242	-1.5820	-1.8699	-0.8540	-2.7240	-2.0101	-1.5128	-3.5233	59.0311	99.9833	
   786	-1.2803	-0.3081	-1.5885	-1.9021	-0.8220	-2.7242	-2.0264	-1.4890	-3.5158	58.9982	99.9832	
   787	-1.3121	-0.3127	-1.6249	-1.9509	-0.8392	-2.7902	-2.0925	-1.5078	-3.6007	58.9520	99.9831	
   788	-1.3603	-0.3274	-1.6877	-1.9856	-0.8476	-2.8333	-2.1156	-1.4996	-3.6156	58.9230	99.9828	
   789	-1.3347	-0.2966	-1.6314	-1.9422	-0.8078	-2.7501	-2.0495	-1.4808	-3.5307	59.0368	99.9832	
   790	-1.2936	-0.2713	-1.5651	-1.8799	-0.7954	-2.6754	-2.0120	-1.4459	-3.4583	59.0059	99.9836	
   791	-1.2793	-0.2925	-1.5718	-1.9012	-0.8085	-2.7098	-2.0134	-1.4695	-3.4833	59.0020	99.9827	
   792	-1.3255	-0.2759	-1.6015	-1.9413	-0.7944	-2.7358	-2.0495	-1.4808	-3.5307	59.0677	99.9832	
   793	-1.3429	-0.3016	-1.6446	-1.9910	-0.8250	-2.8161	-2.0993	-1.5234	-3.6232	59.0563	99.9827	
   794	-1.4249	-0.3521	-1.7772	-2.0646	-0.9092	-2.9738	-2.2112	-1.6165	-3.8281	59.1071	99.9835	
   795	-1.5039	-0.3558	-1.8598	-2.1581	-0.8761	-3.0343	-2.2940	-1.5209	-3.8153	58.7681	99.9823	
   796	-1.4855	-0.3144	-1.8000	-2.1272	-0.8182	-2.9455	-2.2048	-1.5103	-3.7155	58.9906	99.9823	
   797	-1.4373	-0.2997	-1.7371	-2.0303	-0.7974	-2.8277	-2.1304	-1.4522	-3.5830	58.9365	99.9832	
   798	-1.3552	-0.2492	-1.6046	-1.9513	-0.7358	-2.6872	-2.0037	-1.4066	-3.4107	59.0557	99.9824	
   799	-1.3368	-0.2079	-1.5448	-1.9166	-0.7273	-2.6441	-2.0254	-1.3749	-3.4007	58.9788	99.9831	
   800	-1.3460	-0.2286	-1.5747	-1.9388	-0.7539	-2.6928	-2.0514	-1.4139	-3.4657	59.0059	99.9831	
   801	-1.3634	-0.2543	-1.6178	-1.9735	-0.7624	-2.7359	-2.0929	-1.4173	-3.5106	58.8979	99.9832	
   802	-1.3870	-0.2538	-1.6410	-2.0269	-0.7435	-2.7705	-2.0958	-1.4645	-3.5606	59.0677	99.9828	
   803	-1.4353	-0.2685	-1.7039	-2.0303	-0.7974	-2.8277	-2.1951	-1.4474	-3.6429	58.8496	99.9842	
   804	-1.4578	-0.2524	-1.7104	-2.0891	-0.7559	-2.8451	-2.2114	-1.4236	-3.6354	58.8167	99.9832	
   805	-1.4404	-0.2267	-1.6672	-2.0457	-0.7162	-2.7620	-2.1160	-1.4091	-3.5255	59.0078	99.9831	
   806	-1.3696	-0.2281	-1.5978	-1.9647	-0.7310	-2.6958	-2.0514	-1.4139	-3.4657	59.0443	99.9833	
   807	-1.3460	-0.2286	-1.5747	-1.9379	-0.7405	-2.6785	-2.0499	-1.3903	-3.4406	58.9403	99.9832	
   808	-1.3440	-0.1973	-1.5414	-1.9354	-0.7001	-2.6356	-2.0254	-1.3749	-3.4007	59.0135	99.9833	
   809	-1.3584	-0.1762	-1.5347	-1.9354	-0.7001	-2.6356	-2.0485	-1.3667	-3.4156	59.0097	99.9836	
   810	-1.3830	-0.1913	-1.5744	-1.9513	-0.7358	-2.6872	-2.0499	-1.3903	-3.4406	59.0809	99.9829	
   811	-1.4066	-0.1909	-1.5976	-1.9789	-0.7398	-2.7188	-2.0861	-1.4016	-3.4881	59.0752	99.9831	
   812	-1.4250	-0.2322	-1.6573	-2.0349	-0.7613	-2.7963	-2.1304	-1.4522	-3.5830	59.0658	99.9830	
   813	-1.4496	-0.2474	-1.6971	-2.0482	-0.7566	-2.8049	-2.1175	-1.4327	-3.5506	59.0424	99.9825	
   814	-1.3614	-0.2230	-1.5846	-1.9300	-0.7226	-2.6527	-2.0037	-1.4066	-3.4107	59.1230	99.9835	
   815	-1.3132	-0.2084	-1.5217	-1.8953	-0.7142	-2.6096	-1.9676	-1.3953	-3.3633	59.1230	99.9831	
   816	-1.3214	-0.2134	-1.5349	-1.9220	-0.7048	-2.6269	-1.9839	-1.3715	-3.3557	59.0211	99.9824	
   817	-1.3122	-0.1927	-1.5050	-1.8820	-0.7189	-2.6010	-1.9824	-1.3479	-3.3307	58.9864	99.9826	
   818	-1.3040	-0.1877	-1.4918	-1.8811	-0.7055	-2.5867	-1.9478	-1.3601	-3.3083	59.0940	99.9823	
   819	-1.3286	-0.2028	-1.5315	-1.9033	-0.7321	-2.6354	-1.9839	-1.3715	-3.3557	59.0557	99.9822	
   820	-1.3676	-0.1969	-1.5646	-1.9300	-0.7226	-2.6527	-2.0254	-1.3749	-3.4007	59.0519	99.9832	
   821	-1.3768	-0.2175	-1.5944	-1.9388	-0.7539	-2.6928	-2.0268	-1.3985	-3.4257	59.0865	99.9827	
   822	-1.3214	-0.2134	-1.5349	-1.8820	-0.7189	-2.6010	-1.9261	-1.3919	-3.3184	59.2033	99.9826	
   823	-1.2506	-0.2148	-1.4655	-1.7876	-0.7385	-2.5262	-1.8668	-1.3887	-3.2560	59.2052	99.9832	
   824	-1.2352	-0.2204	-1.4557	-1.7876	-0.7385	-2.5262	-1.8798	-1.4082	-3.2884	59.1978	99.9837	
   825	-1.2362	-0.2360	-1.4723	-1.8018	-0.7473	-2.5492	-1.8798	-1.4082	-3.2884	59.1651	99.9830	
   826	-1.2362	-0.2360	-1.4723	-1.8018	-0.7473	-2.5492	-1.8798	-1.4082	-3.2884	59.1651	99.9830	
   827	-1.2444	-0.2410	-1.4856	-1.8097	-0.7651	-2.5749	-1.9030	-1.4000	-3.3034	59.0940	99.9827	
   828	-1.2772	-0.2612	-1.5386	-1.8444	-0.7735	-2.6180	-1.9228	-1.4352	-3.3584	59.1614	99.9830	
   829	-1.2782	-0.2769	-1.5552	-1.8452	-0.7870	-2.6323	-1.9228	-1.4352	-3.3584	59.1286	99.9828	
   830	-1.2772	-0.2612	-1.5386	-1.8043	-0.7877	-2.5921	-1.8636	-1.4320	-3.2960	59.2779	99.9827	
   831	-1.1746	-0.2581	-1.4328	-1.7074	-0.7668	-2.4743	-1.7845	-1.3937	-3.1786	59.1799	99.9830	
   832	-1.1192	-0.2540	-1.3733	-1.6539	-0.7857	-2.4398	-1.7383	-1.4100	-3.1487	59.2471	99.9827	
   833	-1.1274	-0.2590	-1.3865	-1.6673	-0.7810	-2.4484	-1.7397	-1.4336	-3.1737	59.3143	99.9830	
   834	-1.1284	-0.2746	-1.4032	-1.6673	-0.7810	-2.4484	-1.7397	-1.4336	-3.1737	59.2816	99.9833	
   835	-1.1438	-0.2691	-1.4130	-1.6815	-0.7898	-2.4714	-1.7628	-1.4255	-3.1887	59.2452	99.9830	
   836	-1.1448	-0.2847	-1.4297	-1.7028	-0.8029	-2.5058	-1.7758	-1.4450	-3.2212	59.2416	99.9825	
   837	-1.1613	-0.2948	-1.4562	-1.7295	-0.7934	-2.5231	-1.7826	-1.4606	-3.2437	59.2761	99.9826	
   838	-1.1705	-0.3155	-1.4861	-1.7383	-0.8248	-2.5632	-1.8419	-1.4638	-3.3061	59.1286	99.9832	
   839	-1.1849	-0.2944	-1.4793	-1.6974	-0.8255	-2.5230	-1.7411	-1.4572	-3.1987	59.3923	99.9823	
   840	-1.0905	-0.2963	-1.3868	-1.6139	-0.7999	-2.4139	-1.6819	-1.4541	-3.1363	59.3560	99.9836	
   841	-1.0515	-0.3022	-1.3538	-1.5746	-0.8275	-2.4022	-1.6588	-1.4622	-3.1214	59.3542	99.9832	
   842	-1.0597	-0.3073	-1.3671	-1.5880	-0.8228	-2.4109	-1.6602	-1.4858	-3.1464	59.4215	99.9835	
   843	-1.0833	-0.3068	-1.3902	-1.5826	-0.8454	-2.4280	-1.6602	-1.4858	-3.1464	59.4595	99.9834	
   844	-1.0843	-0.3224	-1.4068	-1.5905	-0.8632	-2.4538	-1.6786	-1.4974	-3.1764	59.4215	99.9834	
   845	-1.0935	-0.3431	-1.4367	-1.6314	-0.8625	-2.4941	-1.7032	-1.5128	-3.2164	59.3834	99.9830	
   846	-1.1171	-0.3426	-1.4598	-1.6260	-0.8851	-2.5112	-1.7161	-1.5323	-3.2489	59.4507	99.9836	
   847	-1.1109	-0.3688	-1.4798	-1.6527	-0.8757	-2.5285	-1.7161	-1.5323	-3.2489	59.3834	99.9831	
   848	-1.0473	-0.3597	-1.4071	-1.5371	-0.8821	-2.4193	-1.5977	-1.5260	-3.1241	59.5355	99.9835	
   849	-0.9765	-0.3611	-1.3377	-1.4623	-0.8879	-2.3503	-1.5168	-1.5546	-3.0717	59.6750	99.9838	
   850	-0.9765	-0.3611	-1.3377	-1.4757	-0.8832	-2.3589	-1.5399	-1.5464	-3.0867	59.6027	99.9838	
   851	-0.9549	-0.3928	-1.3478	-1.4702	-0.9057	-2.3761	-1.5399	-1.5464	-3.0867	59.4993	99.9833	
   852	-0.9785	-0.3923	-1.3710	-1.4577	-0.9239	-2.3817	-1.5413	-1.5700	-3.1117	59.6027	99.9842	
   853	-0.9867	-0.3974	-1.3842	-1.5245	-0.9003	-2.4249	-1.5543	-1.5895	-3.1442	59.6337	99.9830	
   854	-0.9959	-0.4181	-1.4141	-1.5003	-0.9502	-2.4506	-1.5843	-1.5970	-3.1817	59.5613	99.9837	
   855	-1.0287	-0.4383	-1.4671	-1.5413	-0.9495	-2.4908	-1.5987	-1.6401	-3.2392	59.6631	99.9841	
   856	-1.0595	-0.4272	-1.4869	-1.5358	-0.9720	-2.5080	-1.6218	-1.6319	-3.2541	59.6631	99.9844	
   857	-0.9744	-0.4498	-1.4242	-1.4469	-0.9691	-2.4160	-1.5034	-1.6256	-3.1293	59.7112	99.9840	
   858	-0.8953	-0.4462	-1.3416	-1.3721	-0.9748	-2.3470	-1.4224	-1.6542	-3.0770	59.8490	99.9841	
   859	-0.8882	-0.4567	-1.3450	-1.3667	-0.9974	-2.3642	-1.4802	-1.6337	-3.1144	59.6337	99.9845	
   860	-0.8974	-0.4774	-1.3749	-1.4202	-0.9785	-2.3987	-1.4600	-1.6891	-3.1495	59.8062	99.9839	
   861	-0.9210	-0.4769	-1.3980	-1.4156	-1.0145	-2.4302	-1.4947	-1.6768	-3.1719	59.7355	99.9840	
   862	-0.9302	-0.4976	-1.4279	-1.4164	-1.0280	-2.4445	-1.4784	-1.7007	-3.1794	59.8079	99.9840	
   863	-0.9538	-0.4971	-1.4510	-1.4244	-1.0459	-2.4703	-1.5029	-1.7161	-3.2194	59.8391	99.9844	
   864	-0.9630	-0.5178	-1.4809	-1.4590	-1.0543	-2.5134	-1.5445	-1.7195	-3.2643	59.7305	99.9842	
   865	-1.0102	-0.5169	-1.5272	-1.4946	-1.0761	-2.5708	-1.5589	-1.7626	-3.3219	59.9015	99.9839	
   866	-0.9958	-0.5380	-1.5339	-1.4812	-1.0809	-2.5621	-1.5228	-1.7513	-3.2744	59.8752	99.9833	
   867	-0.9158	-0.5187	-1.4346	-1.3655	-1.0873	-2.4529	-1.4057	-1.7685	-3.1746	60.0886	99.9838	
   868	-0.8614	-0.5303	-1.3918	-1.3630	-1.0469	-2.4100	-1.4057	-1.7685	-3.1746	59.9787	99.9843	
   869	-0.8850	-0.5298	-1.4149	-1.3655	-1.0873	-2.4529	-1.4635	-1.7481	-3.2120	59.8358	99.9843	
   870	-0.8870	-0.5610	-1.4482	-1.3931	-1.0913	-2.4845	-1.4433	-1.8034	-3.2471	59.9739	99.9841	
   871	-0.9178	-0.5500	-1.4679	-1.3876	-1.1139	-2.5017	-1.4780	-1.7912	-3.2695	59.9377	99.9846	
   872	-0.9270	-0.5707	-1.4978	-1.4090	-1.1270	-2.5361	-1.4848	-1.8068	-3.2920	59.9377	99.9842	
   873	-0.9352	-0.5757	-1.5111	-1.4098	-1.1405	-2.5504	-1.5046	-1.8420	-3.3470	60.0004	99.9850	
   874	-0.9598	-0.5909	-1.5508	-1.4712	-1.1395	-2.6108	-1.5292	-1.8574	-3.3870	59.9988	99.9840	
   875	-0.9988	-0.5849	-1.5838	-1.4854	-1.1482	-2.6337	-1.5523	-1.8493	-3.4020	60.0004	99.9842	
   876	-0.9445	-0.5964	-1.5409	-1.4044	-1.1631	-2.5676	-1.4700	-1.8542	-3.3246	60.0775	99.9844	
   877	-0.8890	-0.5923	-1.4814	-1.3563	-1.1594	-2.5158	-1.4468	-1.8624	-3.3097	60.0727	99.9851	
   878	-0.8747	-0.6134	-1.4882	-1.3777	-1.1725	-2.5503	-1.4483	-1.8860	-3.3347	60.0695	99.9842	
   879	-0.9065	-0.6180	-1.5246	-1.3919	-1.1813	-2.5732	-1.5061	-1.8656	-3.3721	59.9279	99.9850	
   880	-0.9075	-0.6336	-1.5412	-1.4132	-1.1944	-2.6077	-1.4912	-1.9130	-3.4046	60.0648	99.9844	
   881	-0.9311	-0.6332	-1.5643	-1.4533	-1.1802	-2.6336	-1.5143	-1.9048	-3.4196	60.0301	99.9840	
   882	-0.9557	-0.6483	-1.6041	-1.4620	-1.2116	-2.6737	-1.5559	-1.9082	-3.4645	59.9576	99.9844	
   883	-0.9947	-0.6423	-1.6371	-1.4754	-1.2068	-2.6823	-1.5573	-1.9318	-3.4895	60.0978	99.9851	
   884	-1.0039	-0.6630	-1.6670	-1.4976	-1.2334	-2.7311	-1.5988	-1.9352	-3.5345	59.9890	99.9848	
   885	-0.9875	-0.6529	-1.6405	-1.4566	-1.2341	-2.6909	-1.5342	-1.9400	-3.4746	60.1356	99.9846	
   886	-0.8941	-0.6704	-1.5646	-1.3810	-1.2264	-2.6075	-1.4518	-1.9450	-3.3972	60.1387	99.9847	
   887	-0.8931	-0.6548	-1.5480	-1.3543	-1.2359	-2.5903	-1.4301	-1.9768	-3.4073	60.3102	99.9853	
   888	-0.8869	-0.6810	-1.5680	-1.3819	-1.2399	-2.6219	-1.4764	-1.9604	-3.4372	60.0978	99.9851	
   889	-0.9177	-0.6699	-1.5877	-1.3898	-1.2577	-2.6476	-1.4948	-1.9720	-3.4672	60.1655	99.9852	
   890	-0.9115	-0.6961	-1.6077	-1.4040	-1.2665	-2.6706	-1.5179	-1.9638	-3.4821	60.0253	99.9850	
   891	-0.9351	-0.6957	-1.6309	-1.4441	-1.2523	-2.6965	-1.5193	-1.9874	-3.5072	60.1293	99.9846	
   892	-0.9587	-0.6952	-1.6540	-1.4466	-1.2927	-2.7395	-1.5555	-1.9988	-3.5546	60.1245	99.9847	
   893	-0.9751	-0.7053	-1.6805	-1.4876	-1.2920	-2.7797	-1.5807	-2.0260	-3.6071	60.1545	99.9846	
   894	-0.9987	-0.7048	-1.7036	-1.4867	-1.2786	-2.7654	-1.5392	-2.0226	-3.5622	60.2694	99.9844	
   895	-0.9043	-0.7067	-1.6111	-1.3907	-1.2712	-2.6620	-1.4731	-2.0037	-3.4773	60.2017	99.9851	
   896	-0.8499	-0.7182	-1.5682	-1.3506	-1.2854	-2.6360	-1.4731	-2.0037	-3.4773	60.0914	99.9854	
   897	-0.8735	-0.7177	-1.5914	-1.3773	-1.2759	-2.6533	-1.4745	-2.0273	-3.5023	60.1954	99.9855	
   898	-0.9043	-0.7067	-1.6111	-1.3665	-1.3211	-2.6876	-1.4977	-2.0192	-3.5172	60.1954	99.9853	
   899	-0.8971	-0.7173	-1.6145	-1.3932	-1.3116	-2.7049	-1.4998	-2.0546	-3.5548	60.2602	99.9852	
   900	-0.9217	-0.7324	-1.6543	-1.4074	-1.3204	-2.7279	-1.5460	-2.0382	-3.5847	60.1198	99.9858	
   901	-0.9299	-0.7375	-1.6675	-1.4554	-1.3241	-2.7796	-1.5821	-2.0496	-3.6321	60.0787	99.9850	
   902	-0.9700	-0.7471	-1.7172	-1.4696	-1.3328	-2.8025	-1.5673	-2.0970	-3.6647	60.2902	99.9854	
   903	-0.9700	-0.7471	-1.7172	-1.4508	-1.3601	-2.8110	-1.5673	-2.0970	-3.6647	60.2902	99.9854	
   904	-0.8992	-0.7485	-1.6478	-1.4074	-1.3204	-2.7279	-1.4781	-2.0863	-3.5648	60.3326	99.9849	
   905	-0.8827	-0.7384	-1.6213	-1.3619	-1.3571	-2.7191	-1.5012	-2.0782	-3.5798	60.2571	99.9855	
   906	-0.8992	-0.7485	-1.6478	-1.4028	-1.3564	-2.7593	-1.5427	-2.0816	-3.6247	60.1829	99.9853	
   907	-0.9002	-0.7641	-1.6644	-1.4162	-1.3517	-2.7680	-1.5427	-2.0816	-3.6247	60.1497	99.9852	
   908	-0.9084	-0.7692	-1.6777	-1.4241	-1.3695	-2.7938	-1.5673	-2.0970	-3.6647	60.1450	99.9853	
   909	-0.9330	-0.7843	-1.7174	-1.4463	-1.3961	-2.8425	-1.6088	-2.1004	-3.7096	60.0722	99.9853	
   910	-0.9720	-0.7784	-1.7504	-1.4730	-1.3867	-2.8598	-1.6103	-2.1240	-3.7346	60.2130	99.9856	
   911	-0.9884	-0.7885	-1.7769	-1.4943	-1.3998	-2.8942	-1.6171	-2.1396	-3.7571	60.2478	99.9851	
   912	-0.9956	-0.7779	-1.7736	-1.5077	-1.3951	-2.9029	-1.6171	-2.1396	-3.7571	60.2825	99.9847	
   913	-0.9330	-0.7843	-1.7174	-1.4383	-1.3783	-2.8167	-1.5871	-2.1321	-3.7197	60.2114	99.9862	
   914	-0.9176	-0.7899	-1.7075	-1.4463	-1.3961	-2.8425	-1.5871	-2.1321	-3.7197	60.1750	99.9851	
   915	-0.9412	-0.7894	-1.7307	-1.4809	-1.4045	-2.8856	-1.6402	-2.1315	-3.7721	60.0991	99.9851	
   916	-0.9730	-0.7940	-1.7671	-1.5219	-1.4039	-2.9258	-1.6185	-2.1632	-3.7822	60.2779	99.9841	
   917	-0.9976	-0.8091	-1.8068	-1.5031	-1.4311	-2.9343	-1.6532	-2.1510	-3.8046	60.1735	99.9853	
   918	-0.9976	-0.8091	-1.8068	-1.5298	-1.4217	-2.9516	-1.6601	-2.1666	-3.8271	60.2051	99.9849	
   919	-1.0284	-0.7981	-1.8266	-1.5440	-1.4305	-2.9746	-1.7193	-2.1698	-3.8895	60.1624	99.9859	
   920	-1.0376	-0.8188	-1.8565	-1.5787	-1.4389	-3.0177	-1.7424	-2.1616	-3.9044	60.0578	99.9850	
   921	-1.0058	-0.8142	-1.8201	-1.5298	-1.4217	-2.9516	-1.6615	-2.1902	-3.8521	60.2733	99.9856	
   922	-0.9740	-0.8096	-1.7837	-1.5031	-1.4311	-2.9343	-1.6615	-2.1902	-3.8521	60.2337	99.9857	
   923	-0.9976	-0.8091	-1.8068	-1.5574	-1.4257	-2.9832	-1.7261	-2.1854	-3.9120	60.1212	99.9855	
   924	-1.0222	-0.8243	-1.8466	-1.5662	-1.4571	-3.0233	-1.7330	-2.2011	-3.9345	60.1577	99.9852	
   925	-1.0304	-0.8293	-1.8598	-1.6063	-1.4429	-3.0493	-1.7460	-2.2206	-3.9670	60.1894	99.9849	
   926	-1.0540	-0.8289	-1.8830	-1.6142	-1.4607	-3.0750	-1.7922	-2.2043	-3.9969	60.0814	99.9852	
   927	-1.1002	-0.8123	-1.9126	-1.6543	-1.4466	-3.1010	-1.8222	-2.2118	-4.0343	60.1497	99.9855	
   928	-1.1094	-0.8330	-1.9425	-1.6952	-1.4459	-3.1412	-1.8222	-2.2118	-4.0343	60.1180	99.9842	
   929	-1.0694	-0.8233	-1.8928	-1.6330	-1.4334	-3.0665	-1.7922	-2.2043	-3.9969	60.1180	99.9855	
   930	-1.0222	-0.8243	-1.8466	-1.6063	-1.4429	-3.0493	-1.7691	-2.2124	-3.9819	60.1148	99.9851	
   931	-1.0612	-0.8183	-1.8796	-1.6142	-1.4607	-3.0750	-1.7991	-2.2199	-4.0194	60.1481	99.9856	
   932	-1.0694	-0.8233	-1.8928	-1.6551	-1.4600	-3.1153	-1.8005	-2.2435	-4.0444	60.2165	99.9846	
   933	-1.0858	-0.8334	-1.9194	-1.6819	-1.4506	-3.1326	-1.8352	-2.2313	-4.0668	60.1100	99.9848	
   934	-1.0940	-0.8385	-1.9326	-1.6898	-1.4684	-3.1584	-1.8651	-2.2388	-4.1043	60.0701	99.9850	
   935	-1.1330	-0.8325	-1.9656	-1.7174	-1.4725	-3.1900	-1.8720	-2.2544	-4.1268	60.1768	99.9848	
   936	-1.1186	-0.8536	-1.9724	-1.7174	-1.4725	-3.1900	-1.8651	-2.2388	-4.1043	60.0750	99.9844	
   937	-1.0704	-0.8390	-1.9095	-1.6551	-1.4600	-3.1153	-1.8352	-2.2313	-4.0668	60.0733	99.9855	
   938	-1.0550	-0.8445	-1.8996	-1.6631	-1.4779	-3.1411	-1.8420	-2.2469	-4.0893	60.0685	99.9848	
   939	-1.0868	-0.8491	-1.9360	-1.7040	-1.4772	-3.1813	-1.8720	-2.2544	-4.1268	60.0669	99.9846	
   940	-1.1176	-0.8380	-1.9557	-1.7307	-1.4678	-3.1986	-1.8850	-2.2739	-4.1593	60.1704	99.9848	
   941	-1.1186	-0.8536	-1.9724	-1.7387	-1.4856	-3.2244	-1.9081	-2.2657	-4.1742	60.0636	99.9846	
   942	-1.1422	-0.8532	-1.9955	-1.7395	-1.4991	-3.2387	-1.9543	-2.2494	-4.2041	59.9552	99.9853	
   943	-1.1730	-0.8421	-2.0153	-1.7796	-1.4849	-3.2646	-1.9149	-2.2814	-4.1967	60.2071	99.9842	
   944	-1.1176	-0.8380	-1.9557	-1.7174	-1.4725	-3.1900	-1.9067	-2.2422	-4.1492	60.0302	99.9852	
   945	-1.0704	-0.8390	-1.9095	-1.6773	-1.4866	-3.1640	-1.8720	-2.2544	-4.1268	60.0636	99.9850	
   946	-1.0786	-0.8440	-1.9227	-1.7040	-1.4772	-3.1813	-1.8850	-2.2739	-4.1593	60.0955	99.9850	
   947	-1.1022	-0.8435	-1.9459	-1.7120	-1.4950	-3.2071	-1.9081	-2.2657	-4.1742	60.0604	99.9849	
   948	-1.0878	-0.8647	-1.9526	-1.7395	-1.4991	-3.2387	-1.9149	-2.2814	-4.1967	60.0221	99.9841	
   949	-1.1340	-0.8481	-1.9823	-1.7608	-1.5122	-3.2731	-1.9164	-2.3050	-4.2218	60.1992	99.9839	
   950	-1.1576	-0.8476	-2.0054	-1.7876	-1.5028	-3.2904	-1.9742	-2.2846	-4.2591	60.0539	99.9845	
   951	-1.1658	-0.8527	-2.0186	-1.7742	-1.5075	-3.2818	-1.9395	-2.2968	-4.2367	60.1656	99.9845	
   952	-1.1022	-0.8435	-1.9459	-1.7120	-1.4950	-3.2071	-1.8918	-2.2896	-4.1818	60.1656	99.9850	
   953	-1.0478	-0.8551	-1.9030	-1.7120	-1.4950	-3.2071	-1.8850	-2.2739	-4.1593	60.0221	99.9836	
   954	-1.0786	-0.8440	-1.9227	-1.7387	-1.4856	-3.2244	-1.9081	-2.2657	-4.1742	60.0221	99.9836	
   955	-1.0786	-0.8440	-1.9227	-1.7395	-1.4991	-3.2387	-1.9312	-2.2576	-4.1892	59.9486	99.9836	
   956	-1.0868	-0.8491	-1.9360	-1.7395	-1.4991	-3.2387	-1.9312	-2.2576	-4.1892	59.9502	99.9838	
   957	-1.0878	-0.8647	-1.9526	-1.7796	-1.4849	-3.2646	-1.9775	-2.2412	-4.2191	59.7696	99.9836	
   958	-1.1114	-0.8642	-1.9758	-1.8143	-1.4933	-3.3077	-1.9959	-2.2528	-4.2491	59.8030	99.9829	
   959	-1.1576	-0.8476	-2.0054	-1.8222	-1.5112	-3.3335	-1.9973	-2.2764	-4.2741	59.9804	99.9831	
   960	-1.1186	-0.8536	-1.9724	-1.7796	-1.4849	-3.2646	-1.9312	-2.2576	-4.1892	59.9902	99.9832	
   961	-1.0550	-0.8445	-1.8996	-1.7120	-1.4950	-3.2071	-1.9298	-2.2340	-4.1642	59.8432	99.9840	
   962	-1.0550	-0.8445	-1.8996	-1.7521	-1.4809	-3.2330	-1.9381	-2.2732	-4.2117	59.9419	99.9836	
   963	-1.0786	-0.8440	-1.9227	-1.7796	-1.4849	-3.2646	-1.9775	-2.2412	-4.2191	59.8013	99.9831	
   964	-1.0868	-0.8491	-1.9360	-1.7796	-1.4849	-3.2646	-1.9612	-2.2651	-4.2266	59.9084	99.9834	
   965	-1.1176	-0.8380	-1.9557	-1.7876	-1.5028	-3.2904	-2.0190	-2.2446	-4.2640	59.7979	99.9839	
   966	-1.1340	-0.8481	-1.9823	-1.8277	-1.4886	-3.3164	-2.0204	-2.2682	-4.2890	59.8682	99.9836	
   967	-1.1658	-0.8527	-2.0186	-1.8623	-1.4970	-3.3594	-2.0504	-2.2757	-4.3265	59.8666	99.9833	
   968	-1.1894	-0.8522	-2.0418	-1.8899	-1.5010	-3.3910	-2.0504	-2.2757	-4.3265	59.9051	99.9824	
   969	-1.1494	-0.8426	-1.9921	-1.8277	-1.4886	-3.3164	-2.0190	-2.2446	-4.2640	59.8381	99.9833	
   970	-1.0786	-0.8440	-1.9227	-1.7930	-1.4802	-3.2733	-1.9959	-2.2528	-4.2491	59.7962	99.9833	
   971	-1.1022	-0.8435	-1.9459	-1.7876	-1.5028	-3.2904	-1.9959	-2.2528	-4.2491	59.8348	99.9833	
   972	-1.1176	-0.8380	-1.9557	-1.8143	-1.4933	-3.3077	-2.0190	-2.2446	-4.2640	59.7979	99.9830	
   973	-1.1330	-0.8325	-1.9656	-1.8222	-1.5112	-3.3335	-2.0421	-2.2365	-4.2790	59.7610	99.9826	
   974	-1.1494	-0.8426	-1.9921	-1.8623	-1.4970	-3.3594	-2.0435	-2.2601	-4.3040	59.8314	99.9824	
   975	-1.1730	-0.8421	-2.0153	-1.8899	-1.5010	-3.3910	-2.0851	-2.2635	-4.3489	59.7911	99.9826	
   976	-1.2048	-0.8467	-2.0516	-1.9246	-1.5094	-3.4341	-2.1082	-2.2553	-4.3639	59.7576	99.9818	
   977	-1.2212	-0.8568	-2.0781	-1.9388	-1.5182	-3.4571	-2.1544	-2.2390	-4.3938	59.6133	99.9822	
   978	-1.2366	-0.8513	-2.0880	-1.9513	-1.5000	-3.4514	-2.1313	-2.2471	-4.3788	59.7241	99.9821	
   979	-1.1576	-0.8476	-2.0054	-1.8623	-1.4970	-3.3594	-2.0652	-2.2283	-4.2939	59.6924	99.9825	
   980	-1.1186	-0.8536	-1.9724	-1.8623	-1.4970	-3.3594	-2.0652	-2.2283	-4.2939	59.6168	99.9818	
   981	-1.1648	-0.8371	-2.0020	-1.9158	-1.4781	-3.3940	-2.0883	-2.2201	-4.3089	59.6537	99.9811	
   982	-1.1730	-0.8421	-2.0153	-1.9158	-1.4781	-3.3940	-2.1230	-2.2079	-4.3313	59.5446	99.9820	
   983	-1.1884	-0.8366	-2.0251	-1.9166	-1.4916	-3.4083	-2.1461	-2.1997	-4.3463	59.5076	99.9821	
   984	-1.2120	-0.8361	-2.0483	-1.9379	-1.5047	-3.4427	-2.1476	-2.2233	-4.3713	59.6133	99.9816	
   985	-1.2428	-0.8251	-2.0680	-1.9914	-1.4858	-3.4773	-2.1938	-2.2070	-4.4012	59.5393	99.9812	
   986	-1.2520	-0.8458	-2.0979	-2.0190	-1.4899	-3.5089	-2.2122	-2.2185	-4.4312	59.5022	99.9810	
   987	-1.2982	-0.8292	-2.1275	-2.0457	-1.4804	-3.5262	-2.2422	-2.2260	-4.4686	59.5710	99.9818	
   988	-1.2428	-0.8251	-2.0680	-1.9701	-1.4727	-3.4429	-2.1693	-2.1915	-4.3612	59.5464	99.9817	
   989	-1.1946	-0.8104	-2.0051	-1.9559	-1.4640	-3.4199	-2.1461	-2.1997	-4.3463	59.5763	99.9810	
   990	-1.1956	-0.8260	-2.0218	-1.9701	-1.4727	-3.4429	-2.1693	-2.1915	-4.3612	59.4688	99.9807	
   991	-1.2192	-0.8256	-2.0449	-1.9701	-1.4727	-3.4429	-2.1476	-2.2233	-4.3713	59.6485	99.9813	
   992	-1.2500	-0.8145	-2.0646	-2.0102	-1.4585	-3.4688	-2.2155	-2.1752	-4.3911	59.4336	99.9812	
   993	-1.2808	-0.8035	-2.0844	-2.0315	-1.4717	-3.5032	-2.1938	-2.2070	-4.4012	59.6485	99.9802	
   994	-1.3044	-0.8030	-2.1075	-2.0457	-1.4804	-3.5262	-2.2353	-2.2104	-4.4461	59.6080	99.9809	
   995	-1.3136	-0.8237	-2.1374	-2.0803	-1.4888	-3.5693	-2.2653	-2.2179	-4.4836	59.5339	99.9804	
   996	-1.3526	-0.8177	-2.1704	-2.1204	-1.4747	-3.5952	-2.3115	-2.2015	-4.5135	59.4616	99.9807	
   997	-1.3680	-0.8122	-2.1803	-2.1392	-1.4474	-3.5867	-2.2653	-2.2179	-4.4836	59.6467	99.9802	
   998	-1.2808	-0.8035	-2.0844	-2.0503	-1.4444	-3.4947	-2.2155	-2.1752	-4.3911	59.5076	99.9803	
   999	-1.2716	-0.7828	-2.0545	-2.0235	-1.4538	-3.4774	-2.2318	-2.1514	-4.3836	59.4336	99.9805	
  1000	-1.2654	-0.8090	-2.0745	-2.0636	-1.4397	-3.5034	-2.2502	-2.1630	-4.4135	59.3594	99.9802	
  1001	-1.2880	-0.7929	-2.0810	-2.0770	-1.4349	-3.5120	-2.2516	-2.1866	-4.4386	59.4987	99.9806	
  1002	-1.2808	-0.8035	-2.0844	-2.0716	-1.4575	-3.5292	-2.2516	-2.1866	-4.4386	59.4634	99.9799	
  1003	-1.3424	-0.7814	-2.1239	-2.1250	-1.4386	-3.5637	-2.2978	-2.1702	-4.4685	59.4634	99.9799	
  1004	-1.3506	-0.7864	-2.1371	-2.1392	-1.4474	-3.5867	-2.3278	-2.1777	-4.5059	59.4227	99.9801	
  1005	-1.3752	-0.8016	-2.1769	-2.1739	-1.4558	-3.6298	-2.3856	-2.1573	-4.5433	59.2425	99.9800	
  1006	-1.3906	-0.7961	-2.1868	-2.1873	-1.4511	-3.6384	-2.3925	-2.1729	-4.5658	59.3113	99.9803	
  1007	-1.4060	-0.7905	-2.1966	-2.2060	-1.4238	-3.6299	-2.3625	-2.1654	-4.5283	59.3910	99.9798	
  1008	-1.3496	-0.7708	-2.1205	-2.0983	-1.4481	-3.5464	-2.2747	-2.1784	-4.4535	59.5727	99.9804	
  1009	-1.3332	-0.7607	-2.0940	-2.1304	-1.4160	-3.5466	-2.2964	-2.1466	-4.4434	59.4281	99.9794	
  1010	-1.3496	-0.7708	-2.1205	-2.1517	-1.4292	-3.5810	-2.3210	-2.1620	-4.4834	59.4245	99.9794	
  1011	-1.3650	-0.7653	-2.1304	-2.1517	-1.4292	-3.5810	-2.3210	-2.1620	-4.4834	59.4616	99.9796	
  1012	-1.3732	-0.7703	-2.1436	-2.1651	-1.4245	-3.5897	-2.3625	-2.1654	-4.5283	59.3837	99.9807	
  1013	-1.4122	-0.7643	-2.1766	-2.2194	-1.4190	-3.6385	-2.3856	-2.1573	-4.5433	59.3856	99.9794	
  1014	-1.4204	-0.7694	-2.1899	-2.2461	-1.4096	-3.6558	-2.4156	-2.1648	-4.5807	59.3447	99.9798	
  1015	-1.4512	-0.7583	-2.2096	-2.2407	-1.4322	-3.6730	-2.4401	-2.1802	-4.6207	59.4117	99.9806	
  1016	-1.4512	-0.7583	-2.2096	-2.2595	-1.4049	-3.6645	-2.4319	-2.1409	-4.5732	59.3131	99.9797	
  1017	-1.3650	-0.7653	-2.1304	-2.1705	-1.4019	-3.5725	-2.3195	-2.1385	-4.4584	59.3947	99.9793	
  1018	-1.3404	-0.7501	-2.0906	-2.1429	-1.3979	-3.5409	-2.3195	-2.1385	-4.4584	59.3892	99.9800	
  1019	-1.3558	-0.7446	-2.1005	-2.1830	-1.3837	-3.5668	-2.3658	-2.1221	-4.4883	59.2778	99.9797	
  1020	-1.3712	-0.7391	-2.1104	-2.1705	-1.4019	-3.5725	-2.3427	-2.1303	-4.4733	59.3892	99.9794	
  1021	-1.3866	-0.7336	-2.1202	-2.1972	-1.3924	-3.5898	-2.3658	-2.1221	-4.4883	59.3521	99.9791	
  1022	-1.3948	-0.7386	-2.1335	-2.2240	-1.3830	-3.6071	-2.3788	-2.1416	-4.5208	59.3837	99.9793	
  1023	-1.4410	-0.7220	-2.1631	-2.2319	-1.4008	-3.6329	-2.4481	-2.1171	-4.5656	59.2722	99.9802	
  1024	-1.4502	-0.7427	-2.1930	-2.2854	-1.3820	-3.6674	-2.4712	-2.1089	-4.5806	59.1662	99.9794	
  1025	-1.4410	-0.7220	-2.1631	-2.2507	-1.3736	-3.6244	-2.4005	-2.1099	-4.5107	59.3539	99.9789	
  1026	-1.3538	-0.7134	-2.0672	-2.1484	-1.3753	-3.5238	-2.3344	-2.0910	-4.4258	59.3205	99.9796	
  1027	-1.3291	-0.6982	-2.0275	-2.1396	-1.3440	-3.4836	-2.3275	-2.0754	-4.4033	59.2834	99.9799	
  1028	-1.3445	-0.6927	-2.0373	-2.1671	-1.3480	-3.5152	-2.3575	-2.0829	-4.4408	59.2778	99.9796	
  1029	-1.3599	-0.6872	-2.0472	-2.1671	-1.3480	-3.5152	-2.3575	-2.0829	-4.4408	59.3150	99.9799	
  1030	-1.3753	-0.6816	-2.0571	-2.1930	-1.3251	-3.5182	-2.3806	-2.0747	-4.4557	59.2778	99.9803	
  1031	-1.3917	-0.6917	-2.0836	-2.2152	-1.3517	-3.5670	-2.4384	-2.0543	-4.4931	59.0955	99.9797	
  1032	-1.4225	-0.6807	-2.1033	-2.2553	-1.3375	-3.5929	-2.4398	-2.0779	-4.5181	59.2369	99.9794	
  1033	-1.4389	-0.6908	-2.1298	-2.2632	-1.3554	-3.6187	-2.4698	-2.0854	-4.5556	59.1978	99.9798	
  1034	-1.4615	-0.6747	-2.1363	-2.2686	-1.3328	-3.6015	-2.4398	-2.0779	-4.5181	59.3131	99.9797	
  1035	-1.3435	-0.6771	-2.0207	-2.1584	-1.3167	-3.4751	-2.3438	-2.0516	-4.3958	59.2481	99.9800	
  1036	-1.3261	-0.6513	-1.9776	-2.1450	-1.3214	-3.4665	-2.3207	-2.0597	-4.3808	59.3521	99.9791	
  1037	-1.3343	-0.6564	-1.9908	-2.1584	-1.3167	-3.4751	-2.3669	-2.0434	-4.4107	59.2053	99.9798	
  1038	-1.3497	-0.6509	-2.0007	-2.1984	-1.3025	-3.5011	-2.3669	-2.0434	-4.4107	59.2425	99.9786	
  1039	-1.3651	-0.6453	-2.0106	-2.1984	-1.3025	-3.5011	-2.3900	-2.0352	-4.4257	59.2053	99.9794	
  1040	-1.3743	-0.6660	-2.0404	-2.2252	-1.2931	-3.5183	-2.3969	-2.0509	-4.4482	59.2053	99.9796	
  1041	-1.4051	-0.6550	-2.0602	-2.2465	-1.3062	-3.5528	-2.4384	-2.0543	-4.4931	59.1996	99.9797	
  1042	-1.4287	-0.6545	-2.0833	-2.2866	-1.2920	-3.5787	-2.4847	-2.0379	-4.5230	59.0898	99.9797	
  1043	-1.4441	-0.6490	-2.0932	-2.2866	-1.2920	-3.5787	-2.4547	-2.0305	-4.4855	59.1700	99.9789	
  1044	-1.3569	-0.6403	-1.9973	-2.1709	-1.2985	-3.4695	-2.3818	-1.9960	-4.3781	59.1051	99.9795	
  1045	-1.3261	-0.6513	-1.9776	-2.1709	-1.2985	-3.4695	-2.3655	-2.0198	-4.3857	59.1366	99.9791	
  1046	-1.3569	-0.6403	-1.9973	-2.2110	-1.2843	-3.4954	-2.4117	-2.0035	-4.4156	59.0621	99.9791	
  1047	-1.3723	-0.6348	-2.0072	-2.2243	-1.2796	-3.5040	-2.4348	-1.9953	-4.4305	59.0249	99.9793	
  1048	-1.4031	-0.6237	-2.0269	-2.2377	-1.2749	-3.5127	-2.4132	-2.0271	-4.4406	59.2406	99.9795	
  1049	-1.4195	-0.6338	-2.0534	-2.2778	-1.2607	-3.5386	-2.4363	-2.0189	-4.4556	59.1700	99.9790	
  1050	-1.4575	-0.6122	-2.0698	-2.3187	-1.2600	-3.5788	-2.4941	-1.9985	-4.4929	59.0936	99.9786	
  1051	-1.4667	-0.6329	-2.0997	-2.3133	-1.2826	-3.5960	-2.5172	-1.9903	-4.5079	58.9876	99.9790	
  1052	-1.4267	-0.6233	-2.0501	-2.2377	-1.2749	-3.5127	-2.4049	-1.9878	-4.3931	59.1813	99.9788	
  1053	-1.3621	-0.5985	-1.9607	-2.1888	-1.2577	-3.4466	-2.3803	-1.9724	-4.3531	59.1404	99.9790	
  1054	-1.3313	-0.6095	-1.9409	-2.2022	-1.2530	-3.4553	-2.4035	-1.9642	-4.3681	58.9915	99.9785	
  1055	-1.3621	-0.5985	-1.9607	-2.2155	-1.2483	-3.4639	-2.4049	-1.9878	-4.3931	59.1328	99.9791	
  1056	-1.3857	-0.5980	-1.9838	-2.2298	-1.2570	-3.4869	-2.4049	-1.9878	-4.3931	59.1719	99.9786	
  1057	-1.3939	-0.6031	-1.9970	-2.2565	-1.2476	-3.5042	-2.4511	-1.9715	-4.4230	59.0249	99.9788	
  1058	-1.4247	-0.5920	-2.0168	-2.3099	-1.2287	-3.5387	-2.4742	-1.9633	-4.4379	59.0249	99.9778	
  1059	-1.4493	-0.6072	-2.0566	-2.3312	-1.2418	-3.5732	-2.5158	-1.9667	-4.4829	58.9503	99.9783	
  1060	-1.4883	-0.6012	-2.0896	-2.3312	-1.2418	-3.5732	-2.4742	-1.9633	-4.4379	59.1070	99.9778	
  1061	-1.3765	-0.5773	-1.9539	-2.2068	-1.2170	-3.4238	-2.3536	-1.9216	-4.2756	59.1185	99.9778	
  1062	-1.3200	-0.5576	-1.8777	-2.1266	-1.2453	-3.3720	-2.3320	-1.9533	-4.2857	59.2128	99.9791	
  1063	-1.3221	-0.5888	-1.9110	-2.1942	-1.2351	-3.4295	-2.3966	-1.9486	-4.3456	58.9915	99.9785	
  1064	-1.3293	-0.5783	-1.9076	-2.2389	-1.1849	-3.4239	-2.3768	-1.9134	-4.2906	58.9659	99.9769	
  1065	-1.3508	-0.5466	-1.8975	-2.1988	-1.1991	-3.3980	-2.3768	-1.9134	-4.2906	59.0717	99.9783	
  1066	-1.4103	-0.6132	-2.0235	-2.2832	-1.2381	-3.5214	-2.4742	-1.9633	-4.4379	58.9542	99.9789	
  1067	-1.4411	-0.6021	-2.0433	-2.3091	-1.2152	-3.5244	-2.4728	-1.9397	-4.4129	58.9620	99.9784	
  1068	-1.4216	-0.5451	-1.9669	-2.2869	-1.1886	-3.4757	-2.4591	-1.9084	-4.3679	58.9954	99.9780	
  1069	-1.3898	-0.5406	-1.9305	-2.2255	-1.1897	-3.4153	-2.3768	-1.9134	-4.2906	59.1480	99.9781	
  1070	-1.3283	-0.5627	-1.8910	-2.1721	-1.2085	-3.3807	-2.3468	-1.9059	-4.2531	59.0423	99.9780	
  1071	-1.3139	-0.5838	-1.8978	-2.1854	-1.2038	-3.3894	-2.3468	-1.9059	-4.2531	58.9718	99.9775	
  1072	-1.3180	-0.5264	-1.8445	-2.1633	-1.1772	-3.3406	-2.3454	-1.8823	-4.2281	59.0403	99.9782	
  1073	-1.3416	-0.5259	-1.8676	-2.1980	-1.1856	-3.3837	-2.3768	-1.9134	-4.2906	59.1032	99.9783	
  1074	-1.3447	-0.5728	-1.9175	-2.2523	-1.1802	-3.4326	-2.4360	-1.9166	-4.3530	58.8836	99.9785	
  1075	-1.3590	-0.5516	-1.9108	-2.2523	-1.1802	-3.4326	-2.4591	-1.9084	-4.3679	58.8796	99.9789	
  1076	-1.4052	-0.5350	-1.9404	-2.2736	-1.1933	-3.4670	-2.4822	-1.9002	-4.3829	58.9169	99.9784	
  1077	-1.4452	-0.5447	-1.9900	-2.3145	-1.1927	-3.5073	-2.5053	-1.8921	-4.3978	58.8855	99.9779	
  1078	-1.3888	-0.5249	-1.9139	-2.2381	-1.1715	-3.4096	-2.4147	-1.8578	-4.2729	58.9346	99.9776	
  1079	-1.2944	-0.5268	-1.8214	-2.1758	-1.1590	-3.3350	-2.3616	-1.8585	-4.2205	58.8954	99.9777	
  1080	-1.3252	-0.5158	-1.8411	-2.2034	-1.1631	-3.3666	-2.3916	-1.8660	-4.2580	58.9268	99.9777	
  1081	-1.3416	-0.5259	-1.8676	-2.2381	-1.1715	-3.4096	-2.4508	-1.8692	-4.3204	58.8109	99.9779	
  1082	-1.3724	-0.5148	-1.8874	-2.2648	-1.1620	-3.4269	-2.4508	-1.8692	-4.3204	58.8855	99.9774	
  1083	-1.4032	-0.5038	-1.9071	-2.2781	-1.1573	-3.4356	-2.4971	-1.8528	-4.3503	58.8109	99.9784	
  1084	-1.4196	-0.5139	-1.9336	-2.3182	-1.1431	-3.4615	-2.5039	-1.8685	-4.3728	58.8463	99.9781	
  1085	-1.4586	-0.5079	-1.9666	-2.3458	-1.1472	-3.4931	-2.5270	-1.8603	-4.3877	58.8482	99.9777	
  1086	-1.3868	-0.4937	-1.8806	-2.2694	-1.1260	-3.3954	-2.4310	-1.8340	-4.2654	58.8954	99.9772	
  1087	-1.3160	-0.4951	-1.8112	-2.1946	-1.1317	-3.3264	-2.3848	-1.8503	-4.2355	58.9268	99.9783	
  1088	-1.3314	-0.4896	-1.8211	-2.2481	-1.1129	-3.3610	-2.4310	-1.8340	-4.2654	58.8149	99.9775	
  1089	-1.3704	-0.4836	-1.8541	-2.2827	-1.1213	-3.4041	-2.4888	-1.8136	-4.3028	58.7049	99.9773	
  1090	-1.3868	-0.4937	-1.8806	-2.2702	-1.1395	-3.4098	-2.4956	-1.8292	-4.3253	58.7403	99.9784	
  1091	-1.4022	-0.4882	-1.8905	-2.2969	-1.1300	-3.4270	-2.5188	-1.8211	-4.3402	58.7029	99.9781	
  1092	-1.4330	-0.4771	-1.9102	-2.3370	-1.1159	-3.4530	-2.5202	-1.8447	-4.3652	58.8443	99.9778	
  1093	-1.4412	-0.4822	-1.9235	-2.3495	-1.0977	-3.4473	-2.5350	-1.7972	-4.3327	58.6737	99.9775	
  1094	-1.3448	-0.4528	-1.7977	-2.2259	-1.0863	-3.3123	-2.4227	-1.7948	-4.2179	58.8209	99.9783	
  1095	-1.2904	-0.4643	-1.7548	-2.2125	-1.0910	-3.3036	-2.4227	-1.7948	-4.2179	58.7070	99.9777	
  1096	-1.3140	-0.4639	-1.7779	-2.2393	-1.0815	-3.3209	-2.4458	-1.7866	-4.2328	58.6716	99.9778	
  1097	-1.3448	-0.4528	-1.7977	-2.2535	-1.0903	-3.3439	-2.4690	-1.7784	-4.2478	58.6716	99.9776	
  1098	-1.3540	-0.4735	-1.8276	-2.2668	-1.0856	-3.3525	-2.4758	-1.7941	-4.2703	58.6716	99.9783	
  1099	-1.3930	-0.4675	-1.8606	-2.3149	-1.0893	-3.4042	-2.5119	-1.8054	-4.3177	58.7029	99.9778	
  1100	-1.4392	-0.4509	-1.8902	-2.3550	-1.0751	-3.4301	-2.5582	-1.7891	-4.3476	58.6655	99.9780	
  1101	-1.4546	-0.4454	-1.9001	-2.3683	-1.0704	-3.4388	-2.5582	-1.7891	-4.3476	58.7029	99.9778	
  1102	-1.3520	-0.4422	-1.7943	-2.2447	-1.0590	-3.3038	-2.4376	-1.7473	-4.1853	58.6839	99.9777	
  1103	-1.3027	-0.4119	-1.7148	-2.1904	-1.0644	-3.2549	-2.4029	-1.7596	-4.1629	58.7836	99.9779	
  1104	-1.3192	-0.4220	-1.7413	-2.2171	-1.0549	-3.2722	-2.4607	-1.7392	-4.2002	58.6010	99.9787	
  1105	-1.3428	-0.4216	-1.7644	-2.2580	-1.0542	-3.3124	-2.4675	-1.7548	-4.2227	58.6716	99.9777	
  1106	-1.3510	-0.4266	-1.7777	-2.2848	-1.0448	-3.3297	-2.4906	-1.7467	-4.2377	58.5990	99.9774	
  1107	-1.3674	-0.4367	-1.8042	-2.3194	-1.0532	-3.3728	-2.4921	-1.7702	-4.2627	58.6696	99.9764	
  1108	-1.4064	-0.4307	-1.8372	-2.3336	-1.0620	-3.3957	-2.5499	-1.7498	-4.3001	58.5595	99.9773	
  1109	-1.4454	-0.4247	-1.8702	-2.3871	-1.0431	-3.4303	-2.5798	-1.7573	-4.3376	58.5928	99.9772	
  1110	-1.4608	-0.4192	-1.8801	-2.3737	-1.0478	-3.4216	-2.5730	-1.7417	-4.3150	58.5990	99.9774	
  1111	-1.3499	-0.4110	-1.7610	-2.2760	-1.0135	-3.2896	-2.4838	-1.7310	-4.2152	58.6010	99.9784	
  1112	-1.3181	-0.4064	-1.7247	-2.2626	-1.0182	-3.2809	-2.4607	-1.7392	-4.2002	58.6343	99.9776	
  1113	-1.3345	-0.4165	-1.7512	-2.2706	-1.0361	-3.3067	-2.4838	-1.7310	-4.2152	58.5636	99.9774	
  1114	-1.3807	-0.4000	-1.7808	-2.3107	-1.0219	-3.3326	-2.5069	-1.7228	-4.2301	58.6010	99.9772	
  1115	-1.3807	-0.4000	-1.7808	-2.3240	-1.0172	-3.3413	-2.5647	-1.7024	-4.2675	58.4139	99.9779	
  1116	-1.4125	-0.4045	-1.8172	-2.3462	-1.0438	-3.3900	-2.5947	-1.7099	-4.3050	58.4118	99.9774	
  1117	-1.4526	-0.4142	-1.8668	-2.3996	-1.0249	-3.4246	-2.6192	-1.7253	-4.3450	58.4472	99.9777	
  1118	-1.4987	-0.3976	-1.8964	-2.4406	-1.0242	-3.4648	-2.6608	-1.7287	-4.3899	58.4783	99.9776	
  1119	-1.5223	-0.3971	-1.9196	-2.4539	-1.0195	-3.4735	-2.6608	-1.7287	-4.3899	58.5179	99.9777	
  1120	-1.4351	-0.3884	-1.8237	-2.3641	-1.0030	-3.3672	-2.5864	-1.6706	-4.2575	58.3871	99.9773	
  1121	-1.3797	-0.3843	-1.7642	-2.3161	-0.9993	-3.3155	-2.5300	-1.7147	-4.2451	58.5595	99.9781	
  1122	-1.4115	-0.3889	-1.8005	-2.3641	-1.0030	-3.3672	-2.5878	-1.6942	-4.2825	58.4139	99.9774	
  1123	-1.4351	-0.3884	-1.8237	-2.4176	-0.9841	-3.4018	-2.6110	-1.6861	-4.2974	58.3786	99.9764	
  1124	-1.4659	-0.3774	-1.8434	-2.3908	-0.9936	-3.3845	-2.6178	-1.7017	-4.3199	58.4846	99.9785	
  1125	-1.4967	-0.3664	-1.8632	-2.4397	-1.0107	-3.4505	-2.6640	-1.6854	-4.3498	58.4097	99.9765	
  1126	-1.5213	-0.3815	-1.9029	-2.4664	-1.0013	-3.4678	-2.7001	-1.6967	-4.3973	58.3700	99.9779	
  1127	-1.5377	-0.3916	-1.9294	-2.5341	-0.9911	-3.5253	-2.7301	-1.7042	-4.4347	58.3303	99.9764	
  1128	-1.5849	-0.3907	-1.9757	-2.5287	-1.0137	-3.5425	-2.7532	-1.6960	-4.4497	58.3346	99.9772	
  1129	-1.5059	-0.3870	-1.8931	-2.4585	-0.9834	-3.4420	-2.6640	-1.6854	-4.3498	58.3786	99.9775	
  1130	-1.4659	-0.3774	-1.8434	-2.4318	-0.9929	-3.4247	-2.6803	-1.6616	-4.3423	58.2285	99.9772	
  1131	-1.5059	-0.3870	-1.8931	-2.4932	-0.9918	-3.4851	-2.7001	-1.6967	-4.3973	58.3325	99.9766	
  1132	-1.5449	-0.3810	-1.9261	-2.5199	-0.9824	-3.5024	-2.7464	-1.6804	-4.4272	58.2595	99.9774	
  1133	-1.5757	-0.3700	-1.9458	-2.5074	-1.0006	-3.5081	-2.7464	-1.6804	-4.4272	58.3346	99.9777	
  1134	-1.5839	-0.3750	-1.9591	-2.5420	-1.0090	-3.5511	-2.7764	-1.6879	-4.4646	58.2928	99.9769	
  1135	-1.6157	-0.3796	-1.9955	-2.5955	-0.9901	-3.5857	-2.8342	-1.6675	-4.5020	58.1467	99.9769	
  1136	-1.6393	-0.3791	-2.0186	-2.6356	-0.9759	-3.6116	-2.8125	-1.6992	-4.5121	58.3282	99.9761	
  1137	-1.5829	-0.3594	-1.9424	-2.5253	-0.9598	-3.4852	-2.7450	-1.6568	-4.4022	58.3035	99.9780	
  1138	-1.5193	-0.3503	-1.8697	-2.4852	-0.9740	-3.4593	-2.7150	-1.6493	-4.3647	58.2638	99.9766	
  1139	-1.5583	-0.3443	-1.9027	-2.5253	-0.9598	-3.4852	-2.7450	-1.6568	-4.4022	58.2971	99.9771	
  1140	-1.5665	-0.3493	-1.9159	-2.5654	-0.9457	-3.5112	-2.7681	-1.6486	-4.4171	58.2241	99.9763	
  1141	-1.5973	-0.3383	-1.9357	-2.5600	-0.9682	-3.5283	-2.7912	-1.6405	-4.4321	58.2241	99.9766	
  1142	-1.6137	-0.3484	-1.9622	-2.5867	-0.9588	-3.5456	-2.8143	-1.6323	-4.4470	58.1533	99.9767	
  1143	-1.6373	-0.3479	-1.9853	-2.6268	-0.9446	-3.5715	-2.8490	-1.6200	-4.4694	58.0802	99.9764	
  1144	-1.6445	-0.3373	-1.9819	-2.5867	-0.9588	-3.5456	-2.7912	-1.6405	-4.4321	58.3035	99.9767	
  1145	-1.5491	-0.3236	-1.8728	-2.5032	-0.9332	-3.4365	-2.7020	-1.6298	-4.3322	58.3432	99.9769	
  1146	-1.5019	-0.3245	-1.8265	-2.4898	-0.9379	-3.4278	-2.7183	-1.6060	-4.3247	58.1577	99.9761	
  1147	-1.5409	-0.3185	-1.8595	-2.4977	-0.9558	-3.4536	-2.7598	-1.6094	-4.3696	58.1533	99.9770	
  1148	-1.5717	-0.3075	-1.8793	-2.5378	-0.9416	-3.4796	-2.7829	-1.6012	-4.3845	58.1533	99.9765	
  1149	-1.5717	-0.3075	-1.8793	-2.5566	-0.9143	-3.4710	-2.7829	-1.6012	-4.3845	58.1533	99.9768	
  1150	-1.5953	-0.3070	-1.9024	-2.5913	-0.9227	-3.5141	-2.8075	-1.6166	-4.4245	58.1843	99.9762	
  1151	-1.6117	-0.3171	-1.9289	-2.6055	-0.9315	-3.5371	-2.8306	-1.6085	-4.4395	58.1135	99.9761	
  1152	-1.6271	-0.3116	-1.9388	-2.6046	-0.9180	-3.5228	-2.8292	-1.5849	-4.4144	58.0847	99.9764	
  1153	-1.5307	-0.2822	-1.8130	-2.4810	-0.9066	-3.3877	-2.7100	-1.5667	-4.2771	58.2018	99.9766	
  1154	-1.4907	-0.2726	-1.7634	-2.4864	-0.8841	-3.3706	-2.6869	-1.5749	-4.2622	58.2328	99.9757	
  1155	-1.4999	-0.2933	-1.7933	-2.5131	-0.8746	-3.3879	-2.7331	-1.5586	-4.2921	58.0515	99.9763	
  1156	-1.5307	-0.2822	-1.8130	-2.5345	-0.8877	-3.4223	-2.7345	-1.5822	-4.3171	58.1931	99.9757	
  1157	-1.5389	-0.2873	-1.8263	-2.5478	-0.8830	-3.4309	-2.7692	-1.5699	-4.3395	58.0825	99.9762	
  1158	-1.5779	-0.2813	-1.8593	-2.5691	-0.8961	-3.4654	-2.7992	-1.5774	-4.3770	58.1157	99.9764	
  1159	-1.5943	-0.2914	-1.8858	-2.6226	-0.8773	-3.4999	-2.8454	-1.5611	-4.4069	57.9695	99.9760	
  1160	-1.6405	-0.2748	-1.9154	-2.6368	-0.8860	-3.5229	-2.8292	-1.5849	-4.4144	58.1887	99.9757	
  1161	-1.5851	-0.2707	-1.8559	-2.5478	-0.8830	-3.4309	-2.7331	-1.5586	-4.2921	58.2415	99.9756	
  1162	-1.4979	-0.2620	-1.7600	-2.4989	-0.8659	-3.3649	-2.7086	-1.5431	-4.2521	58.1267	99.9756	
  1163	-1.5061	-0.2671	-1.7732	-2.5131	-0.8746	-3.3879	-2.7548	-1.5268	-4.2820	57.9785	99.9757	
  1164	-1.5522	-0.2505	-1.8029	-2.5666	-0.8557	-3.4224	-2.7779	-1.5186	-4.2970	58.0161	99.9749	
  1165	-1.5605	-0.2556	-1.8161	-2.5933	-0.8463	-3.4397	-2.7909	-1.5381	-4.3295	58.0471	99.9752	
  1166	-1.6066	-0.2390	-1.8457	-2.6013	-0.8641	-3.4655	-2.8140	-1.5300	-4.3444	58.0847	99.9751	
  1167	-1.6159	-0.2597	-1.8756	-2.6359	-0.8725	-3.5086	-2.8386	-1.5454	-4.3844	58.0448	99.9746	
  1168	-1.6549	-0.2537	-1.9086	-2.6894	-0.8537	-3.5431	-2.9032	-1.5406	-4.4443	57.9650	99.9753	
  1169	-1.6713	-0.2638	-1.9352	-2.6902	-0.8671	-3.5575	-2.9032	-1.5406	-4.4443	57.9695	99.9752	
  1170	-1.6159	-0.2597	-1.8756	-2.6468	-0.8274	-3.4743	-2.8140	-1.5300	-4.3444	58.0537	99.9751	
  1171	-1.5830	-0.2395	-1.8226	-2.6058	-0.8281	-3.4340	-2.8126	-1.5064	-4.3194	57.9785	99.9754	
  1172	-1.6066	-0.2390	-1.8457	-2.6280	-0.8547	-3.4828	-2.8372	-1.5218	-4.3594	58.0094	99.9746	
  1173	-1.6384	-0.2436	-1.8821	-2.6547	-0.8452	-3.5001	-2.8603	-1.5136	-4.3743	57.9763	99.9750	
  1174	-1.6384	-0.2436	-1.8821	-2.7082	-0.8264	-3.5346	-2.8617	-1.5372	-4.3993	58.0426	99.9735	
  1175	-1.6620	-0.2431	-1.9053	-2.7028	-0.8489	-3.5518	-2.8848	-1.5291	-4.4143	58.0072	99.9738	
  1176	-1.7010	-0.2371	-1.9383	-2.7303	-0.8530	-3.5834	-2.9263	-1.5325	-4.4592	58.0027	99.9743	
  1177	-1.7257	-0.2523	-1.9780	-2.7838	-0.8341	-3.6180	-2.9726	-1.5161	-4.4891	57.8586	99.9742	
  1178	-1.7164	-0.2316	-1.9481	-2.7215	-0.8216	-3.5433	-2.9065	-1.4973	-4.4042	57.9808	99.9751	
  1179	-1.6446	-0.2174	-1.8621	-2.6601	-0.8227	-3.4829	-2.8588	-1.4901	-4.3493	57.9785	99.9746	
  1180	-1.6446	-0.2174	-1.8621	-2.6869	-0.8132	-3.5002	-2.9051	-1.4737	-4.3792	57.8278	99.9746	
  1181	-1.6692	-0.2325	-1.9019	-2.7295	-0.8395	-3.5691	-2.9065	-1.4973	-4.4042	57.9009	99.9724	
  1182	-1.6928	-0.2321	-1.9250	-2.7562	-0.8300	-3.5864	-2.9412	-1.4851	-4.4266	57.8278	99.9728	
  1183	-1.7318	-0.2261	-1.9580	-2.7696	-0.8253	-3.5950	-2.9657	-1.5005	-4.4666	57.8964	99.9744	
  1184	-1.7482	-0.2362	-1.9845	-2.8184	-0.8425	-3.6610	-2.9957	-1.5080	-4.5041	57.8564	99.9724	
  1185	-1.7647	-0.2463	-2.0110	-2.8585	-0.8283	-3.6870	-3.0257	-1.5154	-4.5415	57.8163	99.9727	
  1186	-1.7955	-0.2352	-2.0308	-2.8452	-0.8330	-3.6783	-2.9957	-1.5080	-4.5041	57.9363	99.9726	
  1187	-1.7000	-0.2215	-1.9216	-2.7483	-0.8122	-3.5606	-2.9051	-1.4737	-4.3792	57.9100	99.9726	
  1188	-1.6754	-0.2063	-1.8819	-2.7403	-0.7943	-3.5348	-2.9051	-1.4737	-4.3792	57.9032	99.9730	
  1189	-1.6990	-0.2059	-1.9050	-2.7750	-0.8028	-3.5778	-2.9629	-1.4533	-4.4166	57.7546	99.9724	
  1190	-1.7154	-0.2160	-1.9315	-2.8151	-0.7886	-3.6038	-2.9860	-1.4451	-4.4315	57.6838	99.9720	
  1191	-1.7390	-0.2155	-1.9546	-2.8230	-0.8064	-3.6296	-2.9874	-1.4687	-4.4565	57.7901	99.9719	
  1192	-1.7780	-0.2095	-1.9876	-2.8506	-0.8105	-3.6612	-3.0120	-1.4841	-4.4965	57.8586	99.9722	
  1193	-1.7872	-0.2302	-2.0175	-2.8986	-0.8142	-3.7129	-3.0835	-1.4950	-4.5789	57.7005	99.9726	
  1194	-1.8447	-0.2655	-2.1103	-2.9617	-0.8401	-3.8019	-3.1380	-1.5179	-4.6563	57.6627	99.9723	
  1195	-1.8355	-0.2449	-2.0804	-2.9074	-0.8455	-3.7530	-3.0488	-1.5073	-4.5565	57.8609	99.9712	
  1196	-1.7329	-0.2417	-1.9747	-2.8372	-0.8152	-3.6525	-3.0105	-1.4605	-4.4715	57.6460	99.9716	
  1197	-1.7452	-0.1893	-1.9346	-2.8284	-0.7839	-3.6124	-3.0091	-1.4370	-4.4465	57.7169	99.9721	
  1198	-1.7462	-0.2049	-1.9513	-2.8497	-0.7970	-3.6468	-3.0337	-1.4524	-4.4864	57.6744	99.9718	
  1199	-1.7790	-0.2251	-2.0043	-2.8640	-0.8057	-3.6698	-3.0582	-1.4678	-4.5264	57.6744	99.9731	
  1200	-1.8334	-0.2136	-2.0472	-2.9120	-0.8094	-3.7215	-3.0997	-1.4712	-4.5714	57.7075	99.9727	
  1201	-1.8663	-0.2338	-2.1002	-2.9742	-0.8219	-3.7962	-3.1528	-1.4705	-4.6238	57.5964	99.9714	
  1202	-1.8899	-0.2333	-2.1233	-3.0152	-0.8212	-3.8364	-3.1611	-1.5098	-4.6713	57.7337	99.9711	
  1203	-1.8899	-0.2333	-2.1233	-2.9876	-0.8171	-3.8048	-3.1528	-1.4705	-4.6238	57.6366	99.9715	
  1204	-1.7944	-0.2196	-2.0142	-2.8853	-0.8189	-3.7042	-3.0582	-1.4678	-4.5264	57.7122	99.9714	
  1205	-1.7790	-0.2251	-2.0043	-2.8986	-0.8142	-3.7129	-3.0651	-1.4835	-4.5489	57.7052	99.9713	
  1206	-1.8262	-0.2242	-2.0505	-2.9521	-0.7953	-3.7474	-3.1229	-1.4630	-4.5863	57.5964	99.9717	
  1207	-1.8642	-0.2026	-2.0669	-2.9663	-0.8040	-3.7704	-3.1528	-1.4705	-4.6238	57.6627	99.9721	
  1208	-1.8734	-0.2232	-2.0968	-2.9876	-0.8171	-3.8048	-3.1760	-1.4624	-4.6387	57.5561	99.9713	
  1209	-1.8970	-0.2228	-2.1199	-3.0410	-0.7983	-3.8394	-3.1991	-1.4542	-4.6537	57.5206	99.9703	
  1210	-1.9360	-0.2168	-2.1529	-3.0820	-0.7976	-3.8796	-3.2074	-1.4934	-4.7012	57.6959	99.9702	
  1211	-1.9679	-0.2214	-2.1893	-3.1087	-0.7881	-3.8969	-3.2467	-1.4614	-4.7086	57.5561	99.9704	
  1212	-1.8888	-0.2177	-2.1067	-2.9930	-0.7946	-3.7877	-3.1460	-1.4549	-4.6013	57.6389	99.9713	
  1213	-1.8334	-0.2136	-2.0472	-2.9529	-0.8087	-3.7618	-3.1229	-1.4630	-4.5863	57.6319	99.9708	
  1214	-1.8570	-0.2131	-2.0703	-3.0064	-0.7899	-3.7963	-3.1691	-1.4467	-4.6162	57.5206	99.9703	
  1215	-1.8888	-0.2177	-2.1067	-3.0465	-0.7757	-3.8223	-3.1760	-1.4624	-4.6387	57.5940	99.9703	
  1216	-1.9042	-0.2122	-2.1165	-3.0410	-0.7983	-3.8394	-3.1991	-1.4542	-4.6537	57.5561	99.9702	
  1217	-1.9278	-0.2117	-2.1397	-3.0945	-0.7794	-3.8740	-3.2453	-1.4378	-4.6836	57.4447	99.9697	
  1218	-1.9525	-0.2269	-2.1794	-3.1033	-0.8107	-3.9141	-3.2814	-1.4492	-4.7310	57.4043	99.9700	
  1219	-1.9915	-0.2209	-2.2124	-3.1567	-0.7918	-3.9486	-3.3345	-1.4485	-4.7834	57.3615	99.9705	
  1220	-2.0458	-0.2094	-2.2553	-3.1647	-0.8097	-3.9744	-3.3359	-1.4721	-4.8084	57.5442	99.9711	
  1221	-1.9822	-0.2002	-2.1826	-3.0945	-0.7794	-3.8740	-3.2453	-1.4378	-4.6836	57.5609	99.9709	
  1222	-1.9032	-0.1966	-2.0999	-3.0465	-0.7757	-3.8223	-3.1922	-1.4385	-4.6312	57.5585	99.9700	
  1223	-1.9042	-0.2122	-2.1165	-3.0544	-0.7935	-3.8480	-3.2385	-1.4222	-4.6611	57.3737	99.9700	
