OxySoft export of:	C:\Users\TO3 TechSupport\Documents\Train2Adapt\Post_tests\T2A_60_POST_NIRS
Export date:	2022/12/21 05:13:40
Start of measurement:	2022-12-21 04:14:29.368

Datafile sample rate:	10.00	Hz
Datafile duration:	3439.200	s
Datafile total number of samples:	34392

Description:	

Optode-template:	PortaMon TSI Fit Factor
Optode distance (mm):	 35.00
Optode gradients (mm):	 5.00
DPF:	6.00

Device id:	334
# Receivers:	1
# Light sources:	6
# ADC:	2

Light source wavelengths:
device	index	wavelength
1	1	849	nm
1	2	759	nm
1	3	846	nm
1	4	757	nm
1	5	848	nm
1	6	757	nm

Export sample rate:	10.00	Hz
Selected time span:	0	3439.200
Selected time span (sample numbers):	0	34392


Legend:
Column	Trace (Measurement)
1	(Sample number)
2	Rx1-Tx1 O2Hb (T2A_60_POST_NIRS)
3	Rx1-Tx1 HHb (T2A_60_POST_NIRS)
4	Rx1-Tx1 tHb (T2A_60_POST_NIRS)
5	Rx1-Tx2 O2Hb (T2A_60_POST_NIRS)
6	Rx1-Tx2 HHb (T2A_60_POST_NIRS)
7	Rx1-Tx2 tHb (T2A_60_POST_NIRS)
8	Rx1-Tx3 O2Hb (T2A_60_POST_NIRS)
9	Rx1-Tx3 HHb (T2A_60_POST_NIRS)
10	Rx1-Tx3 tHb (T2A_60_POST_NIRS)
11	Rx1-Tx1,Tx2,Tx3 TSI% (T2A_60_POST_NIRS)
12	Rx1-Tx1,Tx2,Tx3 TSI Fit Factor (T2A_60_POST_NIRS)
13	(Event)


1	2	3	4	5	6	7	8	9	10	11	12	13
     0	145.8536	82.9862	228.8398	121.9291	71.5787	193.5078	100.8144	64.8871	165.7016	11.5652	98.7634	
     1	-0.0583	-0.0204	-0.0787	-0.0716	-0.0174	-0.0890	-0.0802	-0.0152	-0.0954	62.0621	99.5707	
     2	-0.0827	-0.0199	-0.1026	-0.0790	-0.0219	-0.1009	-0.0866	-0.0192	-0.1057	62.1203	99.5721	
     3	-0.0742	-0.0147	-0.0889	-0.0643	-0.0129	-0.0772	-0.0620	-0.0154	-0.0774	62.1801	99.5734	
     4	-0.0329	-0.0047	-0.0376	-0.0147	-0.0091	-0.0237	-0.0310	-0.0077	-0.0387	62.1801	99.5758	
     5	-0.0170	-0.0104	-0.0274	-0.0285	-0.0042	-0.0327	-0.0429	-0.0035	-0.0464	62.0639	99.5731	
     6	-0.0329	-0.0047	-0.0376	-0.0220	-0.0136	-0.0356	-0.0373	-0.0117	-0.0490	62.1784	99.5734	
     7	-0.0413	-0.0100	-0.0513	-0.0358	-0.0087	-0.0445	-0.0373	-0.0117	-0.0490	62.1801	99.5734	
     8	-0.0413	-0.0100	-0.0513	-0.0431	-0.0132	-0.0564	-0.0556	-0.0114	-0.0670	62.1203	99.5721	
     9	-0.0573	-0.0042	-0.0615	-0.0570	-0.0084	-0.0653	-0.0620	-0.0154	-0.0774	62.1766	99.5729	
    10	-0.0657	-0.0095	-0.0752	-0.0643	-0.0129	-0.0772	-0.0739	-0.0112	-0.0851	62.1203	99.5721	
    11	-0.0488	 0.0010	-0.0478	-0.0285	-0.0042	-0.0327	-0.0246	-0.0037	-0.0283	62.2399	99.5729	
    12	 0.0000	-0.0000	-0.0000	 0.0000	-0.0000	-0.0000	-0.0000	 0.0000	 0.0000	62.1819	99.5715	
    13	-0.0159	 0.0057	-0.0102	-0.0073	-0.0045	-0.0119	-0.0127	-0.0079	-0.0206	62.2364	99.5724	
    14	-0.0244	 0.0005	-0.0239	-0.0147	-0.0091	-0.0237	-0.0246	-0.0037	-0.0283	62.1801	99.5715	
    15	-0.0170	-0.0104	-0.0274	-0.0220	-0.0136	-0.0356	-0.0310	-0.0077	-0.0387	62.1221	99.5702	
    16	-0.0488	 0.0010	-0.0478	-0.0358	-0.0087	-0.0445	-0.0429	-0.0035	-0.0464	62.1801	99.5715	
    17	-0.0573	-0.0042	-0.0615	-0.0496	-0.0038	-0.0535	-0.0493	-0.0075	-0.0567	62.1801	99.5734	
    18	-0.0732	 0.0015	-0.0717	-0.0634	 0.0010	-0.0624	-0.0429	-0.0035	-0.0464	62.2399	99.5705	
    19	-0.0244	 0.0005	-0.0239	-0.0073	-0.0045	-0.0119	-0.0000	 0.0000	 0.0000	62.2416	99.5710	
    20	 0.0000	-0.0000	-0.0000	 0.0000	-0.0000	-0.0000	-0.0000	 0.0000	 0.0000	62.1819	99.5715	
    21	-0.0159	 0.0057	-0.0102	-0.0073	-0.0045	-0.0119	-0.0064	-0.0039	-0.0103	62.2382	99.5705	
    22	-0.0244	 0.0005	-0.0239	-0.0211	 0.0003	-0.0208	-0.0064	-0.0039	-0.0103	62.2399	99.5705	
    23	-0.0403	 0.0062	-0.0341	-0.0285	-0.0042	-0.0327	-0.0246	-0.0037	-0.0283	62.2382	99.5705	
    24	-0.0488	 0.0010	-0.0478	-0.0423	 0.0007	-0.0416	-0.0366	 0.0005	-0.0361	62.1819	99.5715	
    25	-0.0647	 0.0067	-0.0580	-0.0423	 0.0007	-0.0416	-0.0302	 0.0045	-0.0257	62.2416	99.5710	
    26	-0.0074	 0.0109	 0.0035	 0.0147	 0.0090	 0.0237	 0.0190	 0.0120	 0.0310	62.2434	99.5734	
    27	 0.0095	 0.0214	 0.0309	 0.0358	 0.0087	 0.0445	 0.0373	 0.0118	 0.0491	62.2996	99.5724	
    28	-0.0064	 0.0271	 0.0207	 0.0147	 0.0090	 0.0237	 0.0254	 0.0160	 0.0413	62.2996	99.5681	
    29	-0.0149	 0.0218	 0.0070	 0.0147	 0.0090	 0.0237	 0.0254	 0.0160	 0.0413	62.3013	99.5705	
    30	-0.0149	 0.0218	 0.0070	 0.0009	 0.0139	 0.0148	 0.0190	 0.0120	 0.0310	62.2996	99.5700	
    31	-0.0233	 0.0166	-0.0067	-0.0203	 0.0143	-0.0060	 0.0007	 0.0122	 0.0130	62.2416	99.5686	
    32	-0.0393	 0.0223	-0.0169	-0.0065	 0.0094	 0.0029	 0.0071	 0.0162	 0.0233	62.3013	99.5705	
    33	 0.0106	 0.0375	 0.0481	 0.0579	 0.0222	 0.0801	 0.0627	 0.0277	 0.0904	62.3608	99.5742	
    34	 0.0434	 0.0422	 0.0857	 0.0790	 0.0219	 0.1009	 0.0866	 0.0193	 0.1058	62.4153	99.5727	
    35	 0.0509	 0.0313	 0.0822	 0.0652	 0.0267	 0.0919	 0.0746	 0.0235	 0.0981	62.3013	99.5723	
    36	 0.0350	 0.0370	 0.0720	 0.0514	 0.0316	 0.0830	 0.0746	 0.0235	 0.0981	62.3591	99.5713	
    37	 0.0350	 0.0370	 0.0720	 0.0514	 0.0316	 0.0830	 0.0627	 0.0277	 0.0904	62.3013	99.5723	
    38	 0.0106	 0.0375	 0.0481	 0.0367	 0.0226	 0.0593	 0.0500	 0.0197	 0.0697	62.3574	99.5713	
    39	 0.0106	 0.0375	 0.0481	 0.0302	 0.0320	 0.0622	 0.0507	 0.0319	 0.0826	62.3030	99.5705	
    40	 0.0593	 0.0365	 0.0959	 0.0799	 0.0358	 0.1157	 0.1056	 0.0312	 0.1368	62.3625	99.5718	
    41	 0.0763	 0.0470	 0.1233	 0.1010	 0.0354	 0.1365	 0.1175	 0.0270	 0.1445	62.4169	99.5727	
    42	 0.0678	 0.0417	 0.1096	 0.0799	 0.0358	 0.1157	 0.0992	 0.0272	 0.1265	62.3591	99.5713	
    43	 0.0519	 0.0475	 0.0994	 0.0799	 0.0358	 0.1157	 0.0992	 0.0272	 0.1265	62.4169	99.5727	
    44	 0.0519	 0.0475	 0.0994	 0.0661	 0.0407	 0.1067	 0.0873	 0.0315	 0.1187	62.3591	99.5713	
    45	 0.0519	 0.0475	 0.0994	 0.0661	 0.0407	 0.1067	 0.0809	 0.0275	 0.1084	62.3574	99.5732	
    46	 0.0360	 0.0532	 0.0892	 0.0523	 0.0455	 0.0978	 0.0690	 0.0317	 0.1007	62.3574	99.5732	
    47	 0.0604	 0.0527	 0.1131	 0.0881	 0.0542	 0.1423	 0.1183	 0.0392	 0.1574	62.4202	99.5750	
    48	 0.1102	 0.0678	 0.1780	 0.1451	 0.0626	 0.2076	 0.1619	 0.0549	 0.2168	62.4219	99.5755	
    49	 0.1272	 0.0783	 0.2054	 0.1459	 0.0765	 0.2224	 0.1683	 0.0589	 0.2271	62.4202	99.5750	
    50	 0.1272	 0.0783	 0.2054	 0.1321	 0.0814	 0.2135	 0.1500	 0.0591	 0.2091	62.3608	99.5755	
    51	 0.1187	 0.0731	 0.1917	 0.1248	 0.0768	 0.2016	 0.1373	 0.0511	 0.1884	62.3591	99.5774	
    52	 0.0858	 0.0683	 0.1541	 0.0963	 0.0727	 0.1690	 0.1183	 0.0392	 0.1574	62.4153	99.5782	
    53	 0.0614	 0.0688	 0.1302	 0.0752	 0.0730	 0.1482	 0.1000	 0.0394	 0.1394	62.4153	99.5782	
    54	 0.0530	 0.0636	 0.1166	 0.0678	 0.0685	 0.1363	 0.0817	 0.0397	 0.1213	62.3574	99.5792	
    55	 0.0773	 0.0631	 0.1405	 0.0972	 0.0866	 0.1838	 0.1309	 0.0472	 0.1781	62.4202	99.5828	
    56	 0.1261	 0.0621	 0.1883	 0.1321	 0.0814	 0.2135	 0.1492	 0.0469	 0.1961	62.3608	99.5815	
    57	 0.1261	 0.0621	 0.1883	 0.1248	 0.0768	 0.2016	 0.1429	 0.0429	 0.1858	62.3591	99.5792	
    58	 0.1102	 0.0678	 0.1780	 0.1110	 0.0817	 0.1927	 0.1429	 0.0429	 0.1858	62.4169	99.5782	
    59	 0.1017	 0.0626	 0.1644	 0.1175	 0.0723	 0.1898	 0.1309	 0.0472	 0.1781	62.3608	99.5797	
    60	 0.0858	 0.0683	 0.1541	 0.0963	 0.0727	 0.1690	 0.1183	 0.0392	 0.1574	62.4153	99.5782	
    61	 0.0773	 0.0631	 0.1405	 0.0687	 0.0824	 0.1511	 0.0944	 0.0476	 0.1420	62.3013	99.5779	
    62	 0.0689	 0.0579	 0.1268	 0.0540	 0.0734	 0.1274	 0.0753	 0.0357	 0.1110	62.2979	99.5774	
    63	 0.0370	 0.0693	 0.1063	 0.0475	 0.0828	 0.1303	 0.0817	 0.0397	 0.1213	62.4153	99.5800	
    64	 0.0943	 0.0735	 0.1678	 0.1045	 0.0911	 0.1956	 0.1309	 0.0472	 0.1781	62.4169	99.5823	
    65	 0.1102	 0.0678	 0.1780	 0.1045	 0.0911	 0.1956	 0.1309	 0.0472	 0.1781	62.3591	99.5810	
    66	 0.0858	 0.0683	 0.1541	 0.0769	 0.1009	 0.1778	 0.1127	 0.0474	 0.1600	62.3591	99.5828	
    67	 0.0784	 0.0793	 0.1576	 0.0704	 0.1103	 0.1807	 0.1007	 0.0516	 0.1523	62.3574	99.5846	
    68	 0.0540	 0.0797	 0.1337	 0.0557	 0.1012	 0.1570	 0.0944	 0.0476	 0.1420	62.4153	99.5818	
    69	 0.0455	 0.0745	 0.1200	 0.0281	 0.1110	 0.1391	 0.0761	 0.0479	 0.1239	62.3574	99.5823	
    70	 0.0211	 0.0750	 0.0961	 0.0135	 0.1019	 0.1154	 0.0515	 0.0441	 0.0956	62.3558	99.5823	
    71	-0.0033	 0.0755	 0.0722	-0.0068	 0.1162	 0.1094	 0.0459	 0.0523	 0.0982	62.3591	99.5846	
    72	 0.0381	 0.0854	 0.1235	 0.0428	 0.1200	 0.1628	 0.0888	 0.0558	 0.1446	62.4169	99.5859	
    73	 0.0540	 0.0797	 0.1337	 0.0363	 0.1294	 0.1658	 0.0768	 0.0601	 0.1369	62.3013	99.5874	
    74	 0.0296	 0.0802	 0.1098	 0.0079	 0.1253	 0.1331	 0.0641	 0.0521	 0.1162	62.3574	99.5841	
    75	 0.0211	 0.0750	 0.0961	 0.0079	 0.1253	 0.1331	 0.0522	 0.0563	 0.1085	62.3013	99.5874	
    76	 0.0052	 0.0807	 0.0859	-0.0133	 0.1256	 0.1123	 0.0395	 0.0483	 0.0878	62.3558	99.5859	
    77	-0.0192	 0.0812	 0.0620	-0.0344	 0.1260	 0.0915	 0.0212	 0.0486	 0.0698	62.3558	99.5859	
    78	-0.0436	 0.0817	 0.0381	-0.0483	 0.1309	 0.0826	 0.0093	 0.0528	 0.0621	62.3574	99.5882	
    79	-0.0107	 0.0864	 0.0757	-0.0124	 0.1395	 0.1271	 0.0522	 0.0563	 0.1085	62.4169	99.5895	
    80	 0.0137	 0.0859	 0.0996	 0.0087	 0.1392	 0.1479	 0.0641	 0.0521	 0.1162	62.4153	99.5913	
    81	-0.0107	 0.0864	 0.0757	-0.0262	 0.1444	 0.1182	 0.0339	 0.0565	 0.0904	62.3574	99.5900	
    82	-0.0192	 0.0812	 0.0620	-0.0465	 0.1587	 0.1122	 0.0395	 0.0483	 0.0878	62.4153	99.5924	
    83	-0.0351	 0.0869	 0.0518	-0.0603	 0.1636	 0.1033	 0.0212	 0.0486	 0.0698	62.4136	99.5943	
    84	-0.0436	 0.0817	 0.0381	-0.0815	 0.1639	 0.0825	 0.0029	 0.0488	 0.0517	62.3558	99.5929	
    85	-0.0679	 0.0822	 0.0142	-0.0888	 0.1594	 0.0706	-0.0090	 0.0530	 0.0440	62.3574	99.5935	
    86	-0.0192	 0.0812	 0.0620	-0.0327	 0.1538	 0.1211	 0.0402	 0.0605	 0.1008	62.3608	99.5922	
    87	-0.0022	 0.0916	 0.0894	-0.0116	 0.1535	 0.1419	 0.0522	 0.0563	 0.1085	62.4153	99.5930	
    88	-0.0107	 0.0864	 0.0757	-0.0262	 0.1444	 0.1182	 0.0459	 0.0523	 0.0982	62.4153	99.5889	
    89	-0.0192	 0.0812	 0.0620	-0.0400	 0.1493	 0.1093	 0.0339	 0.0565	 0.0904	62.3591	99.5899	
    90	-0.0351	 0.0869	 0.0518	-0.0538	 0.1542	 0.1003	 0.0156	 0.0568	 0.0724	62.3574	99.5917	
    91	-0.0436	 0.0817	 0.0381	-0.0750	 0.1545	 0.0795	-0.0027	 0.0570	 0.0543	62.2996	99.5904	
    92	-0.0679	 0.0822	 0.0142	-0.0823	 0.1500	 0.0677	-0.0090	 0.0530	 0.0440	62.3574	99.5917	
    93	-0.0351	 0.0869	 0.0518	-0.0392	 0.1632	 0.1241	 0.0466	 0.0645	 0.1111	62.4202	99.5935	
    94	 0.0137	 0.0859	 0.0996	-0.0033	 0.1719	 0.1686	 0.0768	 0.0601	 0.1369	62.4186	99.5970	
    95	 0.0052	 0.0807	 0.0859	-0.0051	 0.1441	 0.1390	 0.0515	 0.0441	 0.0956	62.4136	99.5949	
    96	-0.0287	 0.0598	 0.0312	-0.0344	 0.1260	 0.0915	 0.0205	 0.0364	 0.0569	62.3574	99.5941	
    97	-0.0531	 0.0603	 0.0073	-0.0621	 0.1357	 0.0737	 0.0205	 0.0364	 0.0569	62.4169	99.5930	
    98	-0.0340	 0.1031	 0.0690	-0.0512	 0.1959	 0.1447	 0.0432	 0.1093	 0.1525	62.2555	99.5910	
    99	-0.0691	 0.1900	 0.1209	-0.1250	 0.2576	 0.1326	-0.0684	 0.1799	 0.1114	61.9587	99.5845	
   100	-0.0999	 0.2175	 0.1176	-0.1479	 0.2301	 0.0822	-0.1375	 0.1482	 0.0108	62.0548	99.5831	
   101	-0.0362	 0.1947	 0.1585	-0.0961	 0.1549	 0.0588	-0.1714	 0.0917	-0.0797	61.9759	99.5804	
   102	-0.0394	 0.1463	 0.1069	-0.1251	 0.0300	-0.0952	-0.2870	-0.0044	-0.2914	61.8865	99.5681	
   103	-0.1337	 0.0727	-0.0610	-0.2452	-0.0841	-0.3293	-0.4623	-0.0794	-0.5417	61.6310	99.5553	
   104	-0.2428	 0.0210	-0.2218	-0.3747	-0.1238	-0.4984	-0.6172	-0.1181	-0.7352	61.3833	99.5580	
   105	-0.3255	 0.0011	-0.3244	-0.4584	-0.1084	-0.5668	-0.6474	-0.1136	-0.7610	61.3943	99.5586	
   106	-0.3096	-0.0046	-0.3142	-0.4437	-0.0994	-0.5431	-0.6347	-0.1056	-0.7404	61.3389	99.5621	
   107	-0.3001	 0.0168	-0.2833	-0.4514	 0.0030	-0.4485	-0.5657	-0.0740	-0.6397	61.4712	99.5789	
   108	-0.2259	 0.0315	-0.1944	-0.3569	 0.0478	-0.3091	-0.4489	-0.0592	-0.5081	61.6577	99.5912	
   109	-0.1941	 0.0200	-0.1740	-0.3043	-0.0135	-0.3177	-0.4567	-0.0876	-0.5443	61.6474	99.5872	
   110	-0.2205	-0.0118	-0.2323	-0.3362	-0.0733	-0.4096	-0.5201	-0.1274	-0.6476	61.5776	99.5812	
   111	-0.2873	-0.0374	-0.3247	-0.3949	-0.1095	-0.5044	-0.5962	-0.1753	-0.7715	61.6248	99.5853	
   112	-0.3721	-0.0896	-0.4616	-0.5042	-0.1634	-0.6676	-0.7287	-0.2468	-0.9754	61.5460	99.5881	
   113	-0.5077	-0.1731	-0.6808	-0.5845	-0.3200	-0.9045	-0.8928	-0.3382	-1.2310	61.4687	99.5806	
   114	-0.6423	-0.2404	-0.8827	-0.6955	-0.4017	-1.0972	-1.0006	-0.4059	-1.4065	61.5226	99.5771	
   115	-0.6847	-0.2665	-0.9512	-0.7551	-0.4518	-1.2069	-1.0901	-0.4739	-1.5640	61.5595	99.5778	
   116	-0.7525	-0.3083	-1.0608	-0.7935	-0.5023	-1.2958	-1.1192	-0.5508	-1.6699	61.8498	99.5844	
   117	-0.7991	-0.3989	-1.1980	-0.8272	-0.5900	-1.4172	-1.1624	-0.6600	-1.8224	62.0177	99.5926	
   118	-0.8934	-0.4725	-1.3659	-0.9088	-0.6536	-1.5624	-1.2280	-0.7364	-1.9644	62.1330	99.5962	
   119	-0.9622	-0.5304	-1.4926	-1.0193	-0.6146	-1.6339	-1.2604	-0.7685	-2.0290	62.1386	99.6114	
   120	-0.9527	-0.5090	-1.4617	-1.0887	-0.4833	-1.5721	-1.2414	-0.7566	-1.9980	62.1991	99.6313	
   121	-0.8839	-0.4511	-1.3350	-1.0568	-0.4235	-1.4802	-1.1724	-0.7249	-1.8974	62.3179	99.6263	
   122	-0.8192	-0.4578	-1.2770	-1.0732	-0.4604	-1.5335	-1.1888	-0.7939	-1.9826	62.4141	99.6146	
   123	-0.9135	-0.5314	-1.4448	-1.1971	-0.5233	-1.7204	-1.2966	-0.8616	-2.1582	62.3464	99.6099	
   124	-0.9633	-0.5465	-1.5098	-1.2402	-0.5365	-1.7768	-1.3283	-0.8815	-2.2098	62.4053	99.6107	
   125	-0.9304	-0.5418	-1.4722	-1.2174	-0.5090	-1.7264	-1.2783	-0.8618	-2.1401	62.4124	99.6109	
   126	-0.8488	-0.5380	-1.3868	-1.0819	-0.5996	-1.6815	-1.2305	-0.8787	-2.1092	62.4661	99.5999	
   127	-0.8509	-0.5703	-1.4212	-1.0349	-0.6375	-1.6724	-1.1630	-0.8715	-2.0344	62.5420	99.5936	
   128	-0.8381	-0.6245	-1.4626	-0.9990	-0.6289	-1.6279	-1.1279	-0.8963	-2.0242	62.5487	99.6164	
   129	-1.1137	-0.7321	-1.8458	-1.2213	-0.6855	-1.9068	-1.3517	-0.9666	-2.3184	62.4298	99.6362	
   130	-1.2970	-0.7985	-2.0955	-1.3858	-0.7199	-2.1057	-1.4834	-1.0259	-2.5093	62.4884	99.6441	
   131	-1.4232	-0.8606	-2.2838	-1.4933	-0.7459	-2.2392	-1.5644	-1.0533	-2.6177	62.4350	99.6492	
   132	-1.4899	-0.8862	-2.3762	-1.5723	-0.7678	-2.3401	-1.6278	-1.0932	-2.7210	62.4884	99.6490	
   133	-1.5143	-0.8858	-2.4001	-1.5990	-0.7441	-2.3432	-1.6327	-1.0728	-2.7055	62.4350	99.6501	
   134	-1.4455	-0.8279	-2.2733	-1.5019	-0.6575	-2.1594	-1.4819	-1.0015	-2.4835	62.6318	99.6546	
   135	-1.2187	-0.7192	-1.9379	-1.3430	-0.5998	-1.9428	-1.3503	-0.9422	-2.2925	62.6221	99.6401	
   136	-1.0406	-0.6096	-1.6503	-1.2062	-0.5557	-1.7618	-1.2376	-0.8949	-2.1325	62.7308	99.6257	
   137	-0.8901	-0.5480	-1.4381	-1.1254	-0.5059	-1.6314	-1.1559	-0.8553	-2.0112	62.6659	99.6152	
   138	-0.8562	-0.5271	-1.3833	-1.1025	-0.4785	-1.5810	-1.1178	-0.8314	-1.9492	62.6691	99.6132	
   139	-0.8721	-0.5214	-1.3935	-1.1090	-0.4691	-1.5781	-1.1171	-0.8192	-1.9363	62.6723	99.6137	
   140	-0.8711	-0.5053	-1.3764	-1.1275	-0.4269	-1.5545	-1.1220	-0.7988	-1.9208	62.6139	99.6179	
   141	-0.8955	-0.5048	-1.4003	-1.1552	-0.4172	-1.5723	-1.1276	-0.7906	-1.9182	62.6171	99.6159	
   142	-0.9029	-0.4939	-1.3968	-1.1534	-0.3893	-1.5427	-1.1015	-0.7625	-1.8639	62.6253	99.6167	
   143	-0.7958	-0.4744	-1.2703	-1.0386	-0.3588	-1.3973	-1.0022	-0.7353	-1.7375	62.6302	99.6234	
   144	-0.7609	-0.4374	-1.1983	-0.9734	-0.3320	-1.3054	-0.9339	-0.7158	-1.6498	62.8110	99.6273	
   145	-0.7195	-0.4275	-1.1470	-0.9376	-0.3233	-1.2609	-0.8966	-0.7041	-1.6007	62.8125	99.6255	
   146	-0.7280	-0.4327	-1.1607	-0.9311	-0.3327	-1.2638	-0.9086	-0.6999	-1.6085	62.7545	99.6272	
   147	-0.7439	-0.4270	-1.1709	-0.9587	-0.3229	-1.2817	-0.9213	-0.7079	-1.6291	62.8110	99.6273	
   148	-0.7853	-0.4369	-1.2222	-0.9946	-0.3316	-1.3262	-0.9642	-0.7114	-1.6755	62.7513	99.6283	
   149	-0.8181	-0.4417	-1.2598	-1.0368	-0.3309	-1.3678	-0.9888	-0.7151	-1.7039	62.7513	99.6259	
   150	-0.8256	-0.4307	-1.2563	-1.0148	-0.3173	-1.3322	-0.9571	-0.6952	-1.6523	62.8171	99.6282	
   151	-0.7683	-0.4265	-1.1948	-0.9652	-0.3135	-1.2787	-0.9205	-0.6957	-1.6162	62.8156	99.6299	
   152	-0.7768	-0.4317	-1.2085	-0.9807	-0.3365	-1.3173	-0.9452	-0.6994	-1.6446	62.7545	99.6232	
   153	-0.8266	-0.4469	-1.2735	-1.0377	-0.3448	-1.3826	-0.9951	-0.7191	-1.7142	62.7513	99.6243	
   154	-0.8923	-0.4563	-1.3487	-1.0956	-0.3671	-1.4626	-1.0698	-0.7425	-1.8123	62.7450	99.6258	
   155	-0.9591	-0.4820	-1.4411	-1.1746	-0.3890	-1.5635	-1.1451	-0.7782	-1.9233	62.7387	99.6265	
   156	-1.0344	-0.5128	-1.5471	-1.2406	-0.4297	-1.6703	-1.2141	-0.8098	-2.0239	62.7356	99.6245	
   157	-1.1171	-0.5327	-1.6497	-1.2985	-0.4519	-1.7504	-1.2585	-0.8377	-2.0962	62.8539	99.6266	
   158	-1.0788	-0.5712	-1.6500	-1.2285	-0.4624	-1.6909	-1.1734	-0.8429	-2.0163	62.9242	99.6330	
   159	-1.0406	-0.6096	-1.6503	-1.1733	-0.4819	-1.6552	-1.1447	-0.8717	-2.0164	62.9242	99.6448	
   160	-1.3384	-0.8085	-2.1468	-1.4423	-0.6074	-2.0497	-1.3913	-1.0149	-2.4062	62.8048	99.6606	
   161	-1.6733	-0.9526	-2.6259	-1.6396	-0.7156	-2.3551	-1.5554	-1.1063	-2.6617	62.9955	99.6772	
   162	-1.7411	-0.9944	-2.7355	-1.7268	-0.7559	-2.4827	-1.6427	-1.1377	-2.7804	62.8736	99.6729	
   163	-1.8069	-1.0038	-2.8107	-1.7708	-0.7831	-2.5539	-1.6919	-1.1452	-2.8372	62.8736	99.6699	
   164	-1.7814	-0.9882	-2.7696	-1.7332	-0.7465	-2.4798	-1.6356	-1.1216	-2.7572	62.9390	99.6749	
   165	-1.6543	-0.9099	-2.5642	-1.6085	-0.6697	-2.2781	-1.4842	-1.0381	-2.5223	63.0084	99.6697	
   166	-1.3925	-0.7643	-2.1568	-1.4202	-0.5939	-2.0141	-1.3222	-0.9833	-2.3055	63.1706	99.6559	
   167	-1.2918	-0.7178	-2.0096	-1.3486	-0.5765	-1.9251	-1.2659	-0.9596	-2.2255	63.1665	99.6479	
   168	-1.2166	-0.6870	-1.9035	-1.3404	-0.5581	-1.8984	-1.2596	-0.9556	-2.2152	63.0987	99.6391	
   169	-1.2410	-0.6865	-1.9274	-1.3615	-0.5577	-1.9192	-1.2715	-0.9514	-2.2229	63.1001	99.6374	
   170	-1.2664	-0.7021	-1.9685	-1.3900	-0.5619	-1.9519	-1.3032	-0.9713	-2.2745	63.0973	99.6424	
   171	-1.3353	-0.7600	-2.0953	-1.4552	-0.5886	-2.0438	-1.3793	-1.0191	-2.3984	63.0348	99.6538	
   172	-1.4031	-0.8018	-2.2048	-1.4708	-0.6116	-2.0823	-1.3920	-1.0271	-2.4191	63.0434	99.6612	
   173	-1.4052	-0.8341	-2.2392	-1.4790	-0.6300	-2.1090	-1.3935	-1.0515	-2.4449	63.0434	99.6627	
   174	-1.4455	-0.8279	-2.2733	-1.4790	-0.6300	-2.1090	-1.3927	-1.0393	-2.4320	63.1071	99.6649	
   175	-1.4200	-0.8122	-2.2322	-1.4569	-0.6165	-2.0734	-1.3674	-1.0234	-2.3907	63.1085	99.6633	
   176	-1.4105	-0.7908	-2.2014	-1.4496	-0.6120	-2.0616	-1.3674	-1.0234	-2.3907	63.1638	99.6621	
   177	-1.4105	-0.7908	-2.2014	-1.4772	-0.6022	-2.0794	-1.3793	-1.0191	-2.3984	63.1043	99.6585	
   178	-1.4434	-0.7956	-2.2390	-1.4984	-0.6018	-2.1002	-1.3913	-1.0149	-2.4062	63.1071	99.6589	
   179	-1.3332	-0.7277	-2.0609	-1.3386	-0.5302	-1.8689	-1.2215	-0.9317	-2.1532	63.2391	99.6635	
   180	-1.2081	-0.6817	-1.8898	-1.2514	-0.4899	-1.7413	-1.1271	-0.8841	-2.0113	63.1828	99.6550	
   181	-1.1562	-0.6343	-1.7905	-1.2432	-0.4714	-1.7147	-1.1264	-0.8719	-1.9983	63.1747	99.6461	
   182	-1.1551	-0.6181	-1.7733	-1.2562	-0.4526	-1.7088	-1.1201	-0.8679	-1.9880	63.2325	99.6445	
   183	-1.1880	-0.6229	-1.8109	-1.2480	-0.4342	-1.6821	-1.0996	-0.8316	-1.9312	63.1855	99.6493	
   184	-1.1541	-0.6020	-1.7561	-1.1910	-0.4259	-1.6168	-1.0566	-0.8281	-1.8847	63.3020	99.6536	
   185	-1.1308	-0.6186	-1.7494	-1.1707	-0.4401	-1.6108	-1.0342	-0.8609	-1.8951	63.4159	99.6567	
   186	-1.1498	-0.6613	-1.8111	-1.1724	-0.4680	-1.6404	-1.0596	-0.8769	-1.9365	63.3007	99.6629	
   187	-1.1922	-0.6874	-1.8796	-1.2156	-0.4812	-1.6968	-1.1040	-0.9048	-2.0087	63.2981	99.6677	
   188	-1.2590	-0.7130	-1.9720	-1.2735	-0.5034	-1.7769	-1.1547	-0.9366	-2.0913	63.3545	99.6700	
   189	-1.3353	-0.7600	-2.0953	-1.3248	-0.5351	-1.8599	-1.2174	-0.9643	-2.1817	63.2968	99.6768	
   190	-1.4020	-0.7856	-2.1877	-1.3753	-0.5528	-1.9282	-1.2554	-0.9882	-2.2436	63.3558	99.6795	
   191	-1.4200	-0.8122	-2.2322	-1.3900	-0.5619	-1.9519	-1.2674	-0.9840	-2.2514	63.2431	99.6799	
   192	-1.4126	-0.8231	-2.2357	-1.3697	-0.5761	-1.9459	-1.2562	-1.0004	-2.2566	63.3007	99.6828	
   193	-1.4550	-0.8492	-2.3042	-1.4129	-0.5893	-2.0023	-1.2935	-1.0121	-2.3056	63.2431	99.6836	
   194	-1.4879	-0.8540	-2.3418	-1.4414	-0.5935	-2.0349	-1.3118	-1.0119	-2.3236	63.2444	99.6820	
   195	-1.4953	-0.8430	-2.3383	-1.4341	-0.5890	-2.0230	-1.3054	-1.0079	-2.3133	63.3033	99.6832	
   196	-1.4942	-0.8269	-2.3211	-1.4332	-0.5751	-2.0083	-1.3039	-0.9835	-2.2875	63.2471	99.6809	
   197	-1.4423	-0.7794	-2.2218	-1.3809	-0.5295	-1.9104	-1.2279	-0.9357	-2.1635	63.3110	99.6770	
   198	-1.3257	-0.7387	-2.0644	-1.2735	-0.5034	-1.7769	-1.1342	-0.9003	-2.0345	63.3123	99.6740	
   199	-1.2569	-0.6808	-1.9376	-1.2579	-0.4805	-1.7384	-1.1335	-0.8881	-2.0216	63.3020	99.6649	
   200	-1.3067	-0.6959	-2.0026	-1.3149	-0.4888	-1.8037	-1.1652	-0.9080	-2.0732	63.3596	99.6634	
   201	-1.3067	-0.6959	-2.0026	-1.2635	-0.4572	-1.7207	-1.1003	-0.8438	-1.9441	63.2602	99.6681	
   202	-1.1541	-0.6020	-1.7561	-1.1185	-0.3946	-1.5130	-0.9693	-0.7967	-1.7660	63.4320	99.6672	
   203	-1.1392	-0.6238	-1.7631	-1.1331	-0.4036	-1.5367	-0.9842	-0.8412	-1.8255	63.4832	99.6717	
   204	-1.1901	-0.6552	-1.8452	-1.1616	-0.4078	-1.5694	-1.0081	-0.8328	-1.8409	63.3735	99.6762	
   205	-1.1827	-0.6661	-1.8487	-1.1707	-0.4401	-1.6108	-1.0342	-0.8609	-1.8951	63.3672	99.6720	
   206	-1.1986	-0.6604	-1.8589	-1.1698	-0.4262	-1.5961	-1.0335	-0.8487	-1.8822	63.3697	99.6761	
   207	-1.2569	-0.6808	-1.9376	-1.2057	-0.4349	-1.6406	-1.0454	-0.8445	-1.8899	63.3760	99.6752	
   208	-1.1636	-0.6234	-1.7870	-1.1094	-0.3622	-1.4716	-0.9306	-0.7606	-1.6911	63.3289	99.6738	
   209	-0.9252	-0.4611	-1.3863	-0.8607	-0.2224	-1.0831	-0.6333	-0.5855	-1.2188	63.4634	99.6589	
   210	-0.5988	-0.3221	-0.9209	-0.5585	-0.1300	-0.6885	-0.3657	-0.4995	-0.8652	63.6343	99.6548	
   211	-0.4133	-0.2234	-0.6367	-0.4523	-0.0110	-0.4633	-0.1991	-0.2658	-0.4649	62.9768	99.6167	
   212	-0.3307	-0.0796	-0.4103	-0.3775	 0.1689	-0.2086	-0.0586	-0.0602	-0.1188	62.7761	99.6079	
   213	-0.2683	 0.0054	-0.2629	-0.2657	 0.2646	-0.0011	 0.1268	 0.0797	 0.2066	62.8621	99.5979	
   214	-0.1453	 0.0191	-0.1262	-0.1444	 0.2858	 0.1414	 0.3119	 0.1140	 0.4258	63.0439	99.5868	
   215	-0.0721	 0.0176	-0.0545	-0.0534	 0.2750	 0.2216	 0.4160	 0.1207	 0.5367	63.1615	99.5824	
   216	-0.1038	-0.0949	-0.1987	-0.1760	 0.1191	-0.0569	 0.2586	-0.0602	 0.1984	63.1884	99.5696	
   217	-0.3116	-0.1608	-0.4724	-0.3880	 0.0019	-0.3861	 0.0199	-0.1751	-0.1552	63.2260	99.5617	
   218	-0.3911	-0.1323	-0.5234	-0.4782	 0.0266	-0.4515	-0.0518	-0.1497	-0.2015	63.1690	99.5561	
   219	-0.4368	-0.0829	-0.5196	-0.5463	 0.0649	-0.4814	-0.1544	-0.1322	-0.2866	63.0453	99.5603	
   220	-0.5746	-0.0747	-0.6494	-0.7229	 0.0633	-0.6596	-0.4029	-0.2062	-0.6091	62.9585	99.5784	
   221	-0.7993	-0.1511	-0.9504	-1.0039	-0.0295	-1.0334	-0.7543	-0.3684	-1.1227	62.8609	99.5907	
   222	-1.0398	-0.3456	-1.3855	-1.2349	-0.2254	-1.4603	-1.0792	-0.5960	-1.6752	62.7700	99.6118	
   223	-1.2252	-0.5682	-1.7934	-1.4124	-0.4686	-1.8810	-1.2742	-0.8944	-2.1686	63.2110	99.6213	
   224	-1.3660	-0.7325	-2.0985	-1.4919	-0.6112	-2.1031	-1.3871	-1.0475	-2.4346	63.3236	99.6407	
   225	-1.5494	-0.7988	-2.3482	-1.6352	-0.6460	-2.2812	-1.5378	-1.1188	-2.6566	63.3781	99.6597	
   226	-1.6925	-0.8714	-2.5639	-1.7297	-0.6908	-2.4206	-1.6393	-1.1825	-2.8218	63.4365	99.6754	
   227	-1.7698	-0.9345	-2.7044	-1.7811	-0.7225	-2.5036	-1.7042	-1.2467	-2.9509	63.4925	99.6917	
   228	-1.8472	-0.9977	-2.8448	-1.8645	-0.8140	-2.6785	-1.8452	-1.3588	-3.2039	63.5340	99.6978	
   229	-2.0400	-1.0854	-3.1254	-2.0371	-0.8668	-2.9040	-1.9746	-1.3815	-3.3562	63.3639	99.6942	
   230	-2.0708	-1.0578	-3.1287	-2.0207	-0.8299	-2.8506	-1.8978	-1.3215	-3.2193	63.4986	99.6894	
   231	-1.9521	-0.9848	-2.9369	-1.8813	-0.7440	-2.6253	-1.7210	-1.2221	-2.9431	63.5724	99.6871	
   232	-1.7826	-0.8804	-2.6630	-1.7133	-0.6540	-2.3673	-1.5371	-1.1066	-2.6437	63.5830	99.6782	
   233	-1.5049	-0.7405	-2.2454	-1.4591	-0.5375	-1.9965	-1.2849	-0.9716	-2.2565	63.5911	99.6689	
   234	-1.1785	-0.6015	-1.7800	-1.1340	-0.4175	-1.5515	-0.9350	-0.8337	-1.7687	63.7788	99.6596	
   235	-0.9008	-0.4616	-1.3624	-0.9544	-0.2533	-1.2077	-0.7422	-0.5719	-1.3141	62.9925	99.6303	
   236	-0.7229	-0.2280	-0.9509	-0.7604	 0.0268	-0.7337	-0.4346	-0.2261	-0.6608	62.7567	99.6126	
   237	-0.5746	-0.0747	-0.6494	-0.5597	 0.1906	-0.3691	-0.1717	-0.0140	-0.1857	62.7923	99.6045	
   238	-0.3573	 0.0125	-0.3448	-0.3145	 0.2747	-0.0397	 0.1332	 0.0837	 0.2169	63.0936	99.5971	
   239	-0.2598	 0.0106	-0.2492	-0.2372	 0.2688	 0.0316	 0.2134	 0.0990	 0.3123	63.0413	99.5888	
   240	-0.2778	-0.0160	-0.2938	-0.2610	 0.2274	-0.0336	 0.1992	 0.0666	 0.2658	63.0949	99.5815	
   241	-0.3159	-0.1015	-0.4173	-0.3387	 0.1125	-0.2262	 0.1004	-0.0541	 0.0463	63.1344	99.5736	
   242	-0.5437	-0.2262	-0.7699	-0.6103	-0.0548	-0.6650	-0.2032	-0.2332	-0.4364	63.1066	99.5646	
   243	-0.6900	-0.2233	-0.9133	-0.7739	-0.0752	-0.8491	-0.3749	-0.2472	-0.6221	62.9838	99.5567	
   244	-0.7346	-0.1578	-0.8924	-0.8403	-0.0091	-0.8494	-0.4514	-0.2015	-0.6529	62.8645	99.5595	
   245	-0.8365	-0.0964	-0.9329	-0.9849	 0.0491	-0.9357	-0.6343	-0.1992	-0.8335	62.7295	99.5699	
   246	-1.0146	-0.0821	-1.0968	-1.1825	 0.0478	-1.1347	-0.8876	-0.2528	-1.1405	62.6447	99.5830	
   247	-1.1757	-0.1813	-1.3570	-1.3513	-0.0562	-1.4075	-1.1547	-0.4324	-1.5871	62.6640	99.6109	
   248	-1.4257	-0.3972	-1.8229	-1.6337	-0.2837	-1.9174	-1.5001	-0.6963	-2.1964	62.6237	99.6193	
   249	-1.6175	-0.5927	-2.2102	-1.7883	-0.4994	-2.2877	-1.6443	-0.9629	-2.6072	63.1946	99.6282	
   250	-1.7234	-0.7199	-2.4433	-1.8432	-0.5867	-2.4299	-1.7431	-1.0836	-2.8267	63.2478	99.6554	
   251	-1.9004	-0.8134	-2.7137	-1.9818	-0.6587	-2.6405	-1.9199	-1.1830	-3.1029	63.2383	99.6748	
   252	-2.0678	-0.8855	-2.9533	-2.1048	-0.7077	-2.8125	-2.0699	-1.2420	-3.3119	63.1753	99.6902	
   253	-2.1431	-0.9163	-3.0594	-2.1195	-0.7168	-2.8363	-2.0960	-1.2702	-3.3662	63.2972	99.7068	
   254	-2.1028	-0.9225	-3.0253	-2.0910	-0.7126	-2.8036	-2.0658	-1.2746	-3.3404	63.2972	99.7081	
   255	-2.1452	-0.9486	-3.0937	-2.1130	-0.7262	-2.8392	-2.0665	-1.2868	-3.3533	63.3613	99.7094	
   256	-2.2035	-0.9690	-3.1724	-2.1268	-0.7213	-2.8481	-2.0524	-1.2545	-3.3068	63.3157	99.7106	
   257	-2.2098	-0.9419	-3.1518	-2.1031	-0.6799	-2.7830	-1.9748	-1.1823	-3.1570	63.3327	99.7041	
   258	-2.0891	-0.8366	-2.9256	-1.9692	-0.5707	-2.5399	-1.7775	-1.0465	-2.8240	63.4110	99.6934	
   259	-1.7341	-0.6335	-2.3676	-1.6774	-0.4176	-2.0950	-1.5111	-0.8792	-2.3903	63.3545	99.6789	
   260	-1.4130	-0.4513	-1.8643	-1.4326	-0.2267	-1.6592	-1.2240	-0.5698	-1.7938	62.6908	99.6427	
   261	-1.1726	-0.1328	-1.3054	-1.1535	 0.1728	-0.9808	-0.7922	-0.0873	-0.8796	62.3692	99.6259	
   262	-0.8812	 0.0930	-0.7882	-0.8444	 0.3766	-0.4678	-0.4420	 0.1562	-0.2858	62.4578	99.6122	
   263	-0.6067	 0.1845	-0.4221	-0.5781	 0.4603	-0.1177	-0.1055	 0.2739	 0.1684	62.6518	99.5930	
   264	-0.5346	 0.1669	-0.3676	-0.5310	 0.4224	-0.1087	-0.0401	 0.2446	 0.2044	62.7619	99.5807	
   265	-0.6278	 0.1095	-0.5183	-0.6494	 0.3361	-0.3132	-0.1782	 0.1813	 0.0031	62.6381	99.5692	
   266	-0.7380	 0.0417	-0.6963	-0.8091	 0.2645	-0.5446	-0.3464	 0.1224	-0.2240	62.4007	99.5586	
   267	-0.8302	 0.0004	-0.8298	-0.8907	 0.2008	-0.6898	-0.4423	 0.0505	-0.3918	62.5021	99.5594	
   268	-0.9977	-0.0717	-1.0694	-1.0798	 0.1111	-0.9686	-0.6437	-0.0527	-0.6964	62.4828	99.5564	
   269	-1.1122	-0.0802	-1.1924	-1.2157	 0.0809	-1.1348	-0.8154	-0.0667	-0.8821	62.2416	99.5506	
   270	-1.2002	-0.0568	-1.2571	-1.3482	 0.1064	-1.2419	-0.9561	-0.0730	-1.0291	62.1113	99.5517	
   271	-1.3349	-0.0003	-1.3352	-1.5277	 0.1698	-1.3579	-1.1613	-0.0379	-1.1992	61.8056	99.5559	
   272	-1.4591	 0.0938	-1.3653	-1.6494	 0.2555	-1.3939	-1.3230	 0.0130	-1.3099	61.6739	99.5686	
   273	-1.6128	 0.1077	-1.5052	-1.8186	 0.2583	-1.5603	-1.5215	-0.0414	-1.5628	61.7028	99.5802	
   274	-1.8121	 0.0470	-1.7651	-2.0409	 0.2017	-1.8392	-1.8214	-0.1595	-1.9809	61.5418	99.6015	
   275	-2.0898	-0.0930	-2.1828	-2.3051	 0.0389	-2.2662	-2.1082	-0.3632	-2.4714	61.7410	99.6097	
   276	-2.1511	-0.2857	-2.4368	-2.2897	-0.1657	-2.4554	-2.1245	-0.6314	-2.7558	62.4315	99.6355	
   277	-2.1775	-0.4414	-2.6189	-2.2984	-0.3050	-2.6033	-2.1848	-0.8217	-3.0065	62.6496	99.6580	
   278	-2.3799	-0.5506	-2.9304	-2.4590	-0.3905	-2.8495	-2.3799	-0.9208	-3.3007	62.5807	99.6750	
   279	-2.5749	-0.6706	-3.2454	-2.5764	-0.4628	-3.0393	-2.5257	-1.0125	-3.5382	62.5807	99.7005	
   280	-2.6766	-0.7332	-3.4098	-2.6351	-0.4990	-3.1341	-2.6216	-1.0845	-3.7061	62.6331	99.7215	
   281	-2.8197	-0.8058	-3.6255	-2.7728	-0.5571	-3.3299	-2.7525	-1.1316	-3.8841	62.5114	99.7213	
   282	-2.9098	-0.8148	-3.7245	-2.8069	-0.5379	-3.3448	-2.7384	-1.0992	-3.8376	62.5907	99.7239	
   283	-2.9044	-0.8580	-3.7624	-2.7867	-0.5522	-3.3389	-2.6955	-1.0957	-3.7912	62.5437	99.7240	
   284	-2.9013	-0.8096	-3.7109	-2.7391	-0.4694	-3.2085	-2.5515	-0.9349	-3.4864	62.4112	99.7088	
   285	-2.6238	-0.5457	-3.1694	-2.4429	-0.2468	-2.6897	-2.2323	-0.6991	-2.9314	62.6096	99.7006	
   286	-2.1585	-0.2748	-2.4333	-2.0971	-0.0203	-2.1175	-1.9052	-0.4349	-2.3401	62.2677	99.6747	
   287	-1.9542	-0.0095	-1.9636	-1.9373	 0.2789	-1.6584	-1.6741	-0.0435	-1.7175	61.6251	99.6482	
   288	-1.7063	 0.2981	-1.4082	-1.7049	 0.6095	-1.0954	-1.3938	 0.3555	-1.0382	61.1650	99.6318	
   289	-1.4807	 0.5145	-0.9662	-1.4795	 0.8286	-0.6509	-1.0484	 0.6195	-0.4289	61.2800	99.6068	
   290	-1.2645	 0.5856	-0.6788	-1.2995	 0.8860	-0.4135	-0.8301	 0.6980	-0.1321	61.3525	99.5894	
   291	-1.1924	 0.5680	-0.6243	-1.2378	 0.8571	-0.3807	-0.7633	 0.6930	-0.0703	61.3567	99.5801	
   292	-1.2368	 0.5097	-0.7272	-1.3064	 0.7746	-0.5318	-0.8831	 0.6295	-0.2535	61.1666	99.5756	
   293	-1.4541	 0.4224	-1.0317	-1.5827	 0.6446	-0.9382	-1.1964	 0.4912	-0.7052	61.0054	99.5644	
   294	-1.6089	 0.4201	-1.1888	-1.7683	 0.6105	-1.1578	-1.3998	 0.4573	-0.9425	60.8648	99.5556	
   295	-1.7309	 0.4225	-1.3083	-1.9164	 0.6130	-1.3033	-1.5700	 0.4676	-1.1024	60.5624	99.5531	
   296	-1.9112	 0.5285	-1.3827	-2.1209	 0.7280	-1.3929	-1.7906	 0.5518	-1.2388	60.2552	99.5601	
   297	-2.0502	 0.6444	-1.4058	-2.2887	 0.8655	-1.4232	-1.9515	 0.6148	-1.3367	60.1766	99.5742	
   298	-2.2040	 0.6583	-1.5457	-2.4367	 0.8680	-1.5687	-2.1690	 0.5485	-1.6205	60.1876	99.5977	
   299	-2.4796	 0.5506	-1.9289	-2.7350	 0.7244	-2.0106	-2.5529	 0.3542	-2.1987	60.1099	99.6098	
   300	-2.7614	 0.3461	-2.4153	-3.0166	 0.5108	-2.5057	-2.8553	 0.0938	-2.7616	60.2940	99.6191	
   301	-2.8884	 0.1439	-2.7445	-3.0931	 0.3031	-2.7900	-2.9074	-0.1618	-3.0691	60.9336	99.6300	
   302	-3.0124	-0.0099	-3.0222	-3.1229	 0.1642	-2.9587	-2.9972	-0.3355	-3.3327	61.2189	99.6615	
   303	-3.1850	-0.1627	-3.3477	-3.2430	 0.0501	-3.1928	-3.1348	-0.4923	-3.6271	61.3870	99.6851	
   304	-3.3079	-0.3003	-3.6082	-3.2978	-0.0372	-3.3350	-3.2090	-0.6093	-3.8182	61.5075	99.7098	
   305	-3.4138	-0.4275	-3.8413	-3.3682	-0.1475	-3.5157	-3.3324	-0.7337	-4.0661	61.4921	99.7263	
   306	-3.6406	-0.5361	-4.1767	-3.5133	-0.2101	-3.7234	-3.4436	-0.7567	-4.2003	61.3982	99.7321	
   307	-3.6904	-0.5513	-4.2417	-3.5547	-0.1955	-3.7502	-3.4477	-0.7241	-4.1718	61.2962	99.7295	
   308	-3.7382	-0.5342	-4.2724	-3.5732	-0.1533	-3.7266	-3.4075	-0.6636	-4.0711	61.3234	99.7259	
   309	-3.6651	-0.4117	-4.0768	-3.4743	-0.0389	-3.5132	-3.2952	-0.5227	-3.8180	61.2876	99.7224	
   310	-3.4289	-0.1578	-3.5867	-3.2519	 0.2454	-3.0065	-2.9835	-0.2096	-3.1931	61.1684	99.7092	
   311	-2.9595	 0.1777	-2.7818	-2.8905	 0.4948	-2.3958	-2.6851	 0.0834	-2.6017	60.8158	99.6843	
   312	-2.7361	 0.4857	-2.2504	-2.7345	 0.8452	-1.8894	-2.4982	 0.5527	-1.9454	59.7800	99.6577	
   313	-2.4713	 0.8037	-1.6676	-2.4719	 1.2077	-1.2642	-2.1656	 1.0080	-1.1576	59.2499	99.6395	
   314	-2.1853	 1.0728	-1.1125	-2.1602	 1.4533	-0.7069	-1.7519	 1.2914	-0.4606	59.5575	99.6183	
   315	-1.9511	 1.1705	-0.7805	-1.9931	 1.5295	-0.4637	-1.5217	 1.3657	-0.1561	59.7411	99.5958	
   316	-1.9457	 1.1273	-0.8184	-2.0527	 1.4794	-0.5733	-1.6147	 1.3424	-0.2722	59.3790	99.5842	
   317	-2.0220	 1.0803	-0.9417	-2.1922	 1.3935	-0.7987	-1.8083	 1.2677	-0.5406	59.1003	99.5728	
   318	-2.1938	 1.0676	-1.1262	-2.3851	 1.3549	-1.0302	-2.0307	 1.2217	-0.8089	58.9463	99.5702	
   319	-2.3868	 1.1038	-1.2830	-2.6510	 1.3919	-1.2590	-2.3330	 1.2663	-1.0667	58.3263	99.5627	
   320	-2.5990	 1.2212	-1.3778	-2.8766	 1.5072	-1.3694	-2.5719	 1.3507	-1.2212	58.0662	99.5687	
   321	-2.8111	 1.3386	-1.4726	-3.0949	 1.6271	-1.4679	-2.7932	 1.4227	-1.3705	57.9223	99.5785	
   322	-3.0042	 1.3748	-1.6294	-3.2991	 1.6351	-1.6639	-3.0776	 1.3613	-1.7163	57.8386	99.5978	
   323	-3.2246	 1.2391	-1.9855	-3.5827	 1.5006	-2.0821	-3.4375	 1.1585	-2.2790	57.6084	99.6125	
   324	-3.4746	 1.0231	-2.4515	-3.7740	 1.2623	-2.5118	-3.6205	 0.8559	-2.7646	58.2743	99.6270	
   325	-3.5783	 0.8043	-2.7740	-3.7750	 1.0207	-2.7543	-3.6382	 0.5634	-3.0749	59.0887	99.6494	
   326	-3.6873	 0.6287	-3.0587	-3.8407	 0.8732	-2.9675	-3.7295	 0.3653	-3.3643	59.3644	99.6727	
   327	-3.8929	 0.4711	-3.4218	-3.9901	 0.7410	-3.2491	-3.8981	 0.2007	-3.6974	59.5263	99.6924	
   328	-4.0306	 0.3553	-3.6753	-4.1019	 0.6453	-3.4566	-4.0518	 0.0807	-3.9710	59.5010	99.7088	
   329	-4.1175	 0.2709	-3.8466	-4.1486	 0.5764	-3.5722	-4.1252	-0.0241	-4.1493	59.6673	99.7259	
   330	-4.2827	 0.1071	-4.1756	-4.2907	 0.4487	-3.8419	-4.2647	-0.1117	-4.3764	59.4319	99.7267	
   331	-4.3877	 0.1200	-4.2677	-4.3221	 0.5097	-3.8125	-4.2208	 0.0097	-4.2111	59.3247	99.7231	
   332	-4.3072	 0.2315	-4.0757	-4.2215	 0.6520	-3.5695	-4.0578	 0.1824	-3.8754	59.2652	99.7172	
   333	-4.1452	 0.4708	-3.6745	-4.0669	 0.8677	-3.1992	-3.8807	 0.3876	-3.4931	59.3492	99.7123	
   334	-3.8698	 0.7024	-3.1674	-3.8984	 1.0785	-2.8199	-3.7372	 0.6419	-3.0953	58.7630	99.6920	
   335	-3.6728	 0.9786	-2.6942	-3.7377	 1.3917	-2.3460	-3.5356	 1.0500	-2.4856	58.0269	99.6718	
   336	-3.4537	 1.3460	-2.1077	-3.5774	 1.8117	-1.7656	-3.3434	 1.6046	-1.7388	56.8617	99.6453	
   337	-3.2282	 1.6864	-1.5418	-3.3010	 2.1694	-1.1316	-2.9702	 2.0268	-0.9434	56.8394	99.6312	
   338	-2.9856	 1.9132	-1.0724	-3.0920	 2.3517	-0.7403	-2.7024	 2.2186	-0.4838	57.0525	99.6090	
   339	-2.9337	 1.9607	-0.9730	-3.0838	 2.3701	-0.7136	-2.6755	 2.2589	-0.4167	56.9926	99.5902	
   340	-2.9273	 1.9336	-0.9937	-3.1066	 2.3426	-0.7640	-2.7185	 2.2554	-0.4631	56.7526	99.5839	
   341	-3.0216	 1.8601	-1.1615	-3.2957	 2.2529	-1.0428	-2.9677	 2.1691	-0.7986	56.2640	99.5742	
   342	-3.2167	 1.8640	-1.3527	-3.5568	 2.2527	-1.3041	-3.2476	 2.1808	-1.0667	55.7467	99.5630	
   343	-3.4140	 1.9595	-1.4545	-3.7769	 2.3447	-1.4322	-3.5048	 2.2655	-1.2393	55.2951	99.5662	
   344	-3.6729	 2.1102	-1.5627	-4.0496	 2.4979	-1.5517	-3.7844	 2.3830	-1.4014	54.9639	99.5730	
   345	-3.8617	 2.2109	-1.6508	-4.2347	 2.5847	-1.6500	-4.0023	 2.4102	-1.5922	54.9019	99.5881	
   346	-4.0663	 2.1935	-1.8729	-4.4553	 2.5559	-1.8994	-4.2881	 2.3244	-1.9638	54.7388	99.6045	
   347	-4.2804	 2.0307	-2.2497	-4.6919	 2.3834	-2.3085	-4.5891	 2.0883	-2.5008	54.7270	99.6204	
   348	-4.4827	 1.7977	-2.6850	-4.8409	 2.1443	-2.6966	-4.7229	 1.7932	-2.9297	55.3379	99.6342	
   349	-4.5111	 1.6096	-2.9015	-4.7473	 1.9476	-2.7997	-4.6048	 1.5274	-3.0774	56.4281	99.6589	
   350	-4.5300	 1.4430	-3.0871	-4.7082	 1.7844	-2.9238	-4.6117	 1.3119	-3.2998	56.8731	99.6832	
   351	-4.6698	 1.2949	-3.3750	-4.8243	 1.6191	-3.2052	-4.7593	 1.0902	-3.6691	57.2318	99.6973	
   352	-4.8097	 1.1468	-3.6628	-4.9306	 1.5001	-3.4305	-4.8723	 0.9371	-3.9352	57.3936	99.7124	
   353	-4.8626	 1.0832	-3.7794	-4.9349	 1.4305	-3.5044	-4.9196	 0.8605	-4.0592	57.5004	99.7248	
   354	-4.8891	 1.0514	-3.8377	-4.9708	 1.4218	-3.5489	-4.9498	 0.8649	-4.0849	57.3255	99.7240	
   355	-4.9538	 1.0581	-3.8957	-4.9966	 1.4594	-3.5372	-4.9215	 0.9296	-3.9919	57.3208	99.7217	
   356	-4.9591	 1.1013	-3.8578	-4.9509	 1.5144	-3.4365	-4.8678	 1.0102	-3.8576	57.3036	99.7250	
   357	-4.9349	 1.2247	-3.7101	-4.9542	 1.6863	-3.2679	-4.8229	 1.2496	-3.5733	56.7172	99.7114	
   358	-4.7379	 1.5010	-3.2369	-4.8466	 1.9400	-2.9066	-4.7137	 1.5410	-3.1728	56.1995	99.6905	
   359	-4.6046	 1.8001	-2.8045	-4.7394	 2.3006	-2.4388	-4.6055	 2.0194	-2.5861	55.0759	99.6777	
   360	-4.4363	 2.1362	-2.3001	-4.6287	 2.7168	-1.9119	-4.4268	 2.5539	-1.8729	54.0135	99.6535	
   361	-4.2914	 2.4889	-1.8025	-4.4589	 3.0623	-1.3966	-4.1710	 2.9491	-1.2219	53.9872	99.6359	
   362	-4.1389	 2.7068	-1.4321	-4.3060	 3.2502	-1.0558	-3.9678	 3.1823	-0.7855	54.0132	99.6159	
   363	-4.0849	 2.7865	-1.2984	-4.3016	 3.3198	-0.9819	-3.9571	 3.2595	-0.6976	53.8341	99.6047	
   364	-4.1232	 2.8250	-1.2981	-4.3927	 3.3306	-1.0621	-4.0772	 3.2895	-0.7878	53.4969	99.5924	
   365	-4.1263	 2.7766	-1.3497	-4.4596	 3.2760	-1.1836	-4.1660	 3.2337	-0.9323	53.2640	99.5847	
   366	-4.2832	 2.7420	-1.5412	-4.7022	 3.2336	-1.4686	-4.4847	 3.2093	-1.2754	52.5058	99.5778	
   367	-4.4911	 2.8000	-1.6910	-4.9745	 3.2801	-1.6945	-4.7687	 3.2537	-1.5151	52.0156	99.5673	
   368	-4.7859	 2.8975	-1.8884	-5.2930	 3.3783	-1.9146	-5.0935	 3.3310	-1.7624	51.5972	99.5687	
   369	-5.0374	 3.0373	-2.0001	-5.4966	 3.5072	-1.9894	-5.2958	 3.4150	-1.8808	51.6347	99.5831	
   370	-5.1731	 3.0777	-2.0954	-5.6006	 3.5368	-2.0638	-5.4499	 3.3885	-2.0614	51.6829	99.6050	
   371	-5.2865	 2.9614	-2.3250	-5.7345	 3.4276	-2.3069	-5.6192	 3.2117	-2.4074	51.7493	99.6207	
   372	-5.4135	 2.7592	-2.6543	-5.9629	 3.2735	-2.6893	-5.7373	 2.9733	-2.7640	52.0405	99.6108	
   373	-5.4674	 2.5555	-2.9119	-6.0532	 3.0707	-2.9825	-5.7487	 2.6848	-3.0639	52.7604	99.6076	
   374	-5.4640	 2.3561	-3.1079	-5.7883	 2.7921	-2.9962	-5.5962	 2.3819	-3.2143	54.0294	99.6548	
   375	-5.4606	 2.1567	-3.3040	-5.7850	 2.6202	-3.1648	-5.5673	 2.1538	-3.4135	54.4846	99.6647	
   376	-5.5697	 1.9810	-3.5886	-5.9629	 2.4838	-3.4791	-5.6257	 1.8943	-3.7314	55.1573	99.6636	
   377	-5.6035	 1.8362	-3.7672	-5.9431	 2.3488	-3.5943	-5.6248	 1.7072	-3.9176	55.6170	99.6839	
   378	-5.5090	 1.7858	-3.7232	-5.8646	 2.2499	-3.6147	-5.6098	 1.5525	-4.0573	55.9601	99.6927	
   379	-5.4973	 1.7155	-3.7818	-5.9268	 2.1580	-3.7688	-5.7317	 1.4524	-4.2793	55.6898	99.6888	
   380	-5.6732	 1.6382	-4.0350	-6.0766	 2.1327	-3.9439	-5.8612	 1.4297	-4.4315	55.5241	99.6965	
   381	-5.8343	 1.5391	-4.2952	-6.2005	 2.0697	-4.1307	-6.0048	 1.3746	-4.6302	55.3379	99.7081	
   382	-6.0251	 1.4836	-4.5415	-6.3153	 2.0392	-4.2761	-6.0787	 1.3634	-4.7154	55.4502	99.7127	
   383	-6.0855	 1.4309	-4.6546	-6.2967	 1.9970	-4.2997	-6.0787	 1.3634	-4.7154	55.4315	99.7205	
   384	-6.1544	 1.3730	-4.7813	-6.3205	 1.9556	-4.3649	-6.1104	 1.3434	-4.7670	55.3924	99.7263	
   385	-6.2466	 1.3318	-4.9148	-6.3369	 1.9187	-4.4182	-6.1407	 1.3479	-4.7928	55.3690	99.7320	
   386	-6.2826	 1.2786	-5.0040	-6.3322	 1.8815	-4.4507	-6.1597	 1.3359	-4.8237	55.2656	99.7386	
   387	-6.3483	 1.2692	-5.0791	-6.3607	 1.8773	-4.4833	-6.1948	 1.3608	-4.8340	55.1678	99.7404	
   388	-6.3473	 1.2853	-5.0620	-6.3240	 1.8999	-4.4240	-6.1497	 1.4009	-4.7488	55.2043	99.7420	
   389	-6.3049	 1.3114	-4.9935	-6.2385	 1.9124	-4.3261	-6.0814	 1.4203	-4.6611	55.3430	99.7469	
   390	-6.2794	 1.3270	-4.9524	-6.1945	 1.9396	-4.2549	-6.0594	 1.4810	-4.5784	55.1280	99.7487	
   391	-6.2339	 1.4016	-4.8323	-6.1202	 1.9987	-4.1215	-6.0121	 1.5577	-4.4544	55.0849	99.7512	
   392	-6.2488	 1.4234	-4.8254	-6.1396	 2.0269	-4.1127	-6.0296	 1.5701	-4.4595	55.0797	99.7537	
   393	-6.3050	 1.4353	-4.8697	-6.2234	 2.0423	-4.1811	-6.1076	 1.5915	-4.5162	54.8874	99.7491	
   394	-6.2923	 1.5051	-4.7872	-6.2052	 2.1070	-4.0982	-6.0674	 1.6519	-4.4154	54.9674	99.7471	
   395	-6.2542	 1.5906	-4.6637	-6.1870	 2.1717	-4.0153	-6.0700	 1.7089	-4.3611	54.8874	99.7459	
   396	-6.2374	 1.7249	-4.5125	-6.2206	 2.3116	-3.9090	-6.0873	 1.8270	-4.2602	54.7000	99.7420	
   397	-6.2047	 1.8536	-4.3511	-6.2448	 2.3771	-3.8677	-6.1224	 1.8519	-4.2705	54.8123	99.7340	
   398	-6.3403	 1.7701	-4.5702	-6.4442	 2.3479	-4.0962	-6.2384	 1.8493	-4.3891	54.4735	99.7175	
   399	-6.4315	 1.7450	-4.6865	-6.4304	 2.3431	-4.0873	-6.2284	 1.9143	-4.3141	54.3801	99.7235	
   400	-6.3424	 1.7378	-4.6046	-6.2612	 2.3402	-3.9210	-6.0455	 1.9119	-4.1336	54.8021	99.7325	
   401	-6.3073	 1.6509	-4.6564	-6.2362	 2.2887	-3.9475	-6.0000	 1.8585	-4.1415	54.8180	99.7336	
   402	-6.3295	 1.5597	-4.7698	-6.3868	 2.2494	-4.1374	-6.0178	 1.7652	-4.2527	54.9241	99.7144	
   403	-6.4185	 1.4430	-4.9755	-6.4702	 2.1579	-4.3122	-6.0954	 1.6930	-4.4024	54.8074	99.7145	
   404	-6.4799	 1.3742	-5.1057	-6.5077	 2.1214	-4.3863	-6.1278	 1.6608	-4.4670	54.7650	99.7206	
   405	-6.4735	 1.3471	-5.1264	-6.4672	 2.0928	-4.3743	-6.0871	 1.6278	-4.4593	54.9556	99.7254	
   406	-6.4363	 1.2925	-5.1439	-6.4210	 2.0409	-4.3801	-6.0654	 1.5828	-4.4827	54.9503	99.7291	
   407	-6.4469	 1.2550	-5.1919	-6.3749	 1.9891	-4.3858	-6.0972	 1.5629	-4.5343	54.8233	99.7397	
   408	-6.4798	 1.2502	-5.2295	-6.3822	 1.9845	-4.3977	-6.1210	 1.5713	-4.5497	54.7704	99.7431	
   409	-6.4554	 1.2497	-5.2056	-6.3408	 1.9699	-4.3709	-6.1147	 1.5753	-4.5394	54.7068	99.7451	
   410	-6.4554	 1.2497	-5.2056	-6.3334	 1.9744	-4.3590	-6.1028	 1.5711	-4.5317	54.7704	99.7474	
   411	-6.3907	 1.2431	-5.1476	-6.2350	 1.9681	-4.2669	-6.0289	 1.5823	-4.4466	54.7916	99.7522	
   412	-6.3165	 1.2577	-5.0587	-6.1082	 1.9660	-4.1422	-5.9662	 1.6100	-4.3562	54.7441	99.7602	
   413	-6.2487	 1.2995	-4.9492	-6.0559	 2.0116	-4.0444	-5.9084	 1.6580	-4.2504	54.6968	99.7579	
   414	-6.1893	 1.3360	-4.8533	-5.9972	 2.0477	-3.9495	-5.8450	 1.6979	-4.1471	54.7127	99.7568	
   415	-6.1618	 1.3840	-4.7778	-5.9734	 2.0891	-3.8843	-5.8237	 1.7464	-4.0774	54.6602	99.7549	
   416	-6.1014	 1.4366	-4.6648	-5.8642	 2.1430	-3.7212	-5.6928	 1.7935	-3.8993	54.9439	99.7593	
   417	-5.9710	 1.4394	-4.5316	-5.7235	 2.1360	-3.5875	-5.5536	 1.7754	-3.7781	55.1898	99.7612	
   418	-5.9085	 1.5244	-4.3841	-5.6548	 2.2185	-3.4364	-5.4626	 1.8678	-3.5948	55.2251	99.7575	
   419	-5.7782	 1.6511	-4.1271	-5.5560	 2.3329	-3.2230	-5.3533	 1.9599	-3.3934	55.2875	99.7546	
   420	-5.7189	 1.6876	-4.0312	-5.5193	 2.3555	-3.1637	-5.3399	 1.9801	-3.3598	55.2100	99.7535	
   421	-5.7083	 1.7251	-3.9832	-5.5102	 2.3879	-3.1223	-5.3257	 2.0124	-3.3133	55.2150	99.7521	
   422	-5.6839	 1.7247	-3.9593	-5.4826	 2.3781	-3.1044	-5.2899	 1.9998	-3.2901	55.3349	99.7506	
   423	-5.6945	 1.6872	-4.0073	-5.4916	 2.3458	-3.1459	-5.3167	 1.9594	-3.3573	55.3200	99.7549	
   424	-5.7782	 1.6511	-4.1271	-5.5780	 2.3194	-3.2586	-5.3970	 1.9442	-3.4527	55.1999	99.7532	
   425	-5.8026	 1.6516	-4.1510	-5.6056	 2.3291	-3.2765	-5.4082	 1.9606	-3.4475	55.1525	99.7509	
   426	-5.8100	 1.6625	-4.1475	-5.5909	 2.3382	-3.2527	-5.4011	 1.9768	-3.4243	55.1626	99.7533	
   427	-5.7941	 1.6568	-4.1373	-5.5560	 2.3329	-3.2230	-5.3589	 1.9681	-3.3908	55.2925	99.7552	
   428	-5.7644	 1.6131	-4.1513	-5.5292	 2.3093	-3.2200	-5.3421	 1.9435	-3.3986	55.2352	99.7589	
   429	-5.7675	 1.5647	-4.2029	-5.5465	 2.2584	-3.2881	-5.3992	 1.9076	-3.4915	55.0324	99.7596	
   430	-5.8269	 1.5282	-4.2987	-5.6117	 2.2317	-3.3800	-5.4499	 1.8758	-3.5741	55.0273	99.7590	
   431	-5.8354	 1.5229	-4.3124	-5.6126	 2.2178	-3.3948	-5.4506	 1.8636	-3.5871	55.0848	99.7584	
   432	-5.8025	 1.5277	-4.2748	-5.5620	 2.2355	-3.3266	-5.3704	 1.8788	-3.4916	55.2352	99.7589	
   433	-5.6785	 1.5575	-4.1209	-5.4058	 2.2514	-3.1544	-5.2290	 1.8973	-3.3317	55.4319	99.7625	
   434	-5.5863	 1.5988	-3.9875	-5.3333	 2.2827	-3.0506	-5.1536	 1.9329	-3.2207	55.4368	99.7580	
   435	-5.5184	 1.6405	-3.8779	-5.2746	 2.3189	-2.9557	-5.0973	 1.9566	-3.1407	55.4940	99.7586	
   436	-5.4623	 1.7526	-3.7098	-5.2209	 2.4991	-2.7218	-4.9482	 2.2028	-2.7455	55.1575	99.7458	
   437	-4.9667	 2.3677	-2.5990	-4.7602	 2.9838	-1.7764	-4.5130	 2.6404	-1.8726	55.5209	99.7362	
   438	-4.5726	 2.6724	-1.9002	-4.5127	 3.2165	-1.2962	-4.3128	 2.8249	-1.4879	55.3964	99.7227	
   439	-4.4317	 2.8366	-1.5951	-4.3910	 3.3585	-1.0325	-4.2047	 2.9983	-1.2063	55.1892	99.7145	
   440	-4.3947	 2.9059	-1.4888	-4.4086	 3.4145	-0.9941	-4.2271	 3.0312	-1.1959	55.0973	99.7101	
   441	-4.5102	 2.8813	-1.6290	-4.5446	 3.3843	-1.1603	-4.3875	 3.0007	-1.3868	54.8805	99.7098	
   442	-4.6756	 2.8414	-1.8341	-4.7017	 3.3544	-1.3473	-4.5480	 2.9702	-1.5777	54.7454	99.7126	
   443	-4.7837	 2.8059	-1.9778	-4.7954	 3.3235	-1.4719	-4.6121	 2.9182	-1.6939	54.9170	99.7142	
   444	-4.8346	 2.7746	-2.0600	-4.8403	 3.2824	-1.5579	-4.6826	 2.8622	-1.8204	54.9433	99.7193	
   445	-4.9257	 2.7495	-2.1763	-4.9202	 3.2466	-1.6735	-4.7699	 2.8308	-1.9392	54.9278	99.7193	
   446	-4.9999	 2.7348	-2.2652	-4.9909	 3.2432	-1.7478	-4.8255	 2.8193	-2.0062	54.9278	99.7205	
   447	-5.0498	 2.7196	-2.3302	-5.0553	 3.2303	-1.8249	-4.8874	 2.8038	-2.0836	54.8548	99.7189	
   448	-5.1218	 2.6133	-2.5085	-5.1183	 3.1245	-1.9938	-4.9631	 2.6625	-2.3006	55.0489	99.7271	
   449	-5.4902	 2.0764	-3.4138	-5.4622	 2.5915	-2.8707	-5.3754	 2.0985	-3.2770	55.2590	99.7427	
   450	-6.0941	 1.5497	-4.5444	-5.9324	 2.1813	-3.7510	-5.7913	 1.7785	-4.0128	55.0190	99.7523	
   451	-6.3611	 1.3233	-5.0378	-6.2122	 1.9956	-4.2165	-6.1039	 1.6524	-4.4515	54.3880	99.7507	
   452	-6.4427	 1.3195	-5.1232	-6.2600	 2.0196	-4.2404	-6.1193	 1.7014	-4.4179	54.3212	99.7505	
   453	-6.3187	 1.3494	-4.9693	-6.1111	 2.0311	-4.0801	-5.9506	 1.6667	-4.2839	54.8656	99.7556	
   454	-6.2105	 1.2610	-4.9494	-6.0180	 1.9412	-4.0767	-5.8882	 1.5886	-4.2996	54.8498	99.7556	
   455	-6.1722	 1.2225	-4.9497	-5.9856	 1.8942	-4.0914	-5.8729	 1.5396	-4.3332	54.8921	99.7562	
   456	-6.1913	 1.1798	-5.0115	-6.0094	 1.8528	-4.1566	-5.8814	 1.4991	-4.3823	54.9503	99.7536	
   457	-6.1605	 1.1522	-5.0083	-6.0241	 1.8438	-4.1803	-5.8821	 1.4869	-4.3953	54.8233	99.7492	
   458	-6.1076	 1.2158	-4.8917	-6.0106	 1.9458	-4.0649	-5.7897	 1.6036	-4.1861	54.7074	99.7372	
   459	-5.7971	 1.4845	-4.3127	-5.6522	 2.2602	-3.3920	-5.3209	 1.9920	-3.3288	54.7458	99.7247	
   460	-5.0363	 1.9219	-3.1144	-4.8630	 2.6929	-2.1702	-4.4487	 2.4932	-1.9556	55.0917	99.7079	
   461	-4.3685	 2.1779	-2.1906	-4.1633	 2.9365	-1.2268	-3.6742	 2.7922	-0.8820	55.6050	99.6927	
   462	-3.8628	 2.1948	-1.6680	-3.6493	 2.9186	-0.7307	-3.1439	 2.7854	-0.3585	56.2187	99.6851	
   463	-3.6008	 2.0926	-1.5082	-3.4301	 2.8126	-0.6174	-2.9296	 2.6973	-0.2324	56.3320	99.6765	
   464	-3.4162	 2.0511	-1.3651	-3.2635	 2.7680	-0.4955	-2.7729	 2.6668	-0.1061	56.3949	99.6727	
   465	-3.3166	 2.0815	-1.2351	-3.1992	 2.7809	-0.4183	-2.7419	 2.6745	-0.0674	56.3148	99.6709	
   466	-3.3240	 2.0924	-1.2316	-3.2618	 2.7959	-0.4659	-2.8270	 2.6797	-0.1473	56.0569	99.6690	
   467	-3.4046	 2.1048	-1.2998	-3.3675	 2.7977	-0.5699	-2.9669	 2.6855	-0.2814	55.7970	99.6679	
   468	-3.5170	 2.1286	-1.3884	-3.4935	 2.8137	-0.6798	-3.0879	 2.7034	-0.3845	55.6686	99.6637	
   469	-3.5573	 2.1348	-1.4225	-3.5009	 2.8092	-0.6917	-3.1006	 2.6954	-0.4052	55.7834	99.6678	
   470	-3.5329	 2.1343	-1.3986	-3.4586	 2.8085	-0.6501	-3.1244	 2.7038	-0.4206	55.5996	99.6781	
   471	-3.5966	 2.1571	-1.4395	-3.5147	 2.8141	-0.7006	-3.2327	 2.7296	-0.5031	55.3505	99.6803	
   472	-3.6772	 2.1695	-1.5077	-3.6334	 2.8347	-0.7987	-3.3297	 2.7390	-0.5907	55.2206	99.6753	
   473	-3.7567	 2.1980	-1.5587	-3.7374	 2.8643	-0.8731	-3.4316	 2.7688	-0.6628	55.0348	99.6718	
   474	-3.8363	 2.2266	-1.6097	-3.8064	 2.8887	-0.9177	-3.4675	 2.7814	-0.6860	55.1555	99.6698	
   475	-3.7706	 2.2360	-1.5345	-3.7550	 2.9203	-0.8347	-3.4175	 2.8011	-0.6163	55.1050	99.6738	
   476	-3.7780	 2.2470	-1.5310	-3.7688	 2.9252	-0.8436	-3.4596	 2.8098	-0.6498	54.9744	99.6754	
   477	-3.8511	 2.2484	-1.6027	-3.8396	 2.9218	-0.9178	-3.5503	 2.8232	-0.7272	54.7928	99.6748	
   478	-3.9222	 2.2822	-1.6400	-3.9216	 2.9650	-0.9566	-3.6157	 2.8525	-0.7632	54.7322	99.6748	
   479	-3.9859	 2.3050	-1.6809	-4.0127	 2.9758	-1.0369	-3.7000	 2.8698	-0.8302	54.6005	99.6670	
   480	-3.9848	 2.3211	-1.6637	-3.9898	 3.0033	-0.9865	-3.6683	 2.8898	-0.7785	54.6767	99.6720	
   481	-3.9265	 2.3415	-1.5850	-3.9108	 3.0252	-0.8856	-3.6232	 2.9298	-0.6933	54.5759	99.6769	
   482	-3.9393	 2.3957	-1.5436	-3.9155	 3.0624	-0.8531	-3.6329	 2.9706	-0.6623	54.5759	99.6756	
   483	-3.9690	 2.4394	-1.5297	-3.9673	 3.1376	-0.8296	-3.6763	 3.0607	-0.6156	54.2535	99.6741	
   484	-4.0062	 2.4940	-1.5122	-4.0143	 3.1756	-0.8387	-3.7297	 3.0857	-0.6439	54.2323	99.6733	
   485	-4.0645	 2.4736	-1.5909	-4.0484	 3.1947	-0.8536	-3.7648	 3.1106	-0.6542	54.0872	99.6819	
   486	-4.2447	 2.4557	-1.7891	-4.4119	 3.0243	-1.3875	-4.4903	 2.7133	-1.7770	53.6186	99.7219	
   487	-5.3986	 1.6058	-3.7928	-5.7326	 2.1036	-3.6290	-5.8852	 1.6374	-4.2479	53.5475	99.7207	
   488	-6.3014	 0.9880	-5.3133	-6.4489	 1.5955	-4.8534	-6.4618	 1.1812	-5.2806	53.8609	99.7305	
   489	-6.4709	 0.8836	-5.5873	-6.4670	 1.5307	-4.9363	-6.4582	 1.2422	-5.2160	53.7110	99.7322	
   490	-5.9223	 1.5624	-4.3600	-5.7653	 2.2575	-3.5078	-5.5399	 1.9013	-3.6385	54.9594	99.7426	
   491	-5.4749	 1.5588	-3.9160	-5.4663	 2.1874	-3.2789	-5.3782	 1.8504	-3.5278	54.5483	99.7303	
   492	-5.2744	 1.5117	-3.7627	-5.2600	 2.1003	-3.1597	-5.2259	 1.7468	-3.4791	54.8710	99.7352	
   493	-5.2997	 1.3721	-3.9276	-5.2614	 1.9656	-3.2958	-5.1911	 1.6162	-3.5749	55.1832	99.7329	
   494	-5.2636	 1.3014	-3.9623	-5.1729	 1.9130	-3.2599	-5.0351	 1.5736	-3.4615	55.6067	99.7313	
   495	-5.0856	 1.4110	-3.6746	-5.0024	 2.0449	-2.9575	-4.8355	 1.7459	-3.0897	55.4449	99.7238	
   496	-4.9309	 1.5372	-3.3937	-4.8547	 2.1492	-2.7055	-4.7177	 1.8785	-2.8392	55.2875	99.7198	
   497	-4.7804	 1.5988	-3.1816	-4.7455	 2.2031	-2.5424	-4.5890	 1.8891	-2.6999	55.5121	99.7180	
   498	-4.7813	 1.4588	-3.3226	-4.7495	 2.0266	-2.7228	-4.6261	 1.6781	-2.9480	55.8572	99.7219	
   499	-4.8300	 1.3358	-3.4942	-4.7702	 1.9201	-2.8501	-4.6313	 1.5928	-3.0385	55.9339	99.7219	
   500	-4.8141	 1.3301	-3.4840	-4.7279	 1.9194	-2.8085	-4.5757	 1.6043	-2.9715	56.0197	99.7222	
   501	-4.7558	 1.3505	-3.4053	-4.6912	 1.9420	-2.7492	-4.5391	 1.6038	-2.9354	56.0679	99.7236	
   502	-4.8426	 1.2660	-3.5766	-4.7837	 1.8182	-2.9655	-4.6696	 1.4631	-3.2065	56.1808	99.7246	
   503	-5.0280	 1.0434	-3.9846	-4.9621	 1.5610	-3.4010	-4.9083	 1.1490	-3.7592	56.4875	99.7368	
   504	-5.3945	 0.6628	-4.7317	-5.3304	 1.2003	-4.1301	-5.3032	 0.7719	-4.5313	56.4549	99.7440	
   505	-5.7504	 0.3196	-5.4308	-5.6253	 0.8847	-4.7406	-5.5840	 0.4664	-5.1175	56.6096	99.7506	
   506	-5.8330	 0.1758	-5.6572	-5.6819	 0.7696	-4.9124	-5.6167	 0.3286	-5.2881	56.8510	99.7577	
   507	-5.7937	 0.1535	-5.6403	-5.5697	 0.7584	-4.8114	-5.4753	 0.3471	-5.1282	57.0933	99.7597	
   508	-5.6370	 0.3120	-5.3250	-5.3599	 0.9546	-4.4053	-5.2060	 0.5632	-4.6428	57.1947	99.7611	
   509	-5.3264	 0.4567	-4.8698	-5.0430	 1.0561	-3.9870	-4.9131	 0.6652	-4.2479	57.4518	99.7597	
   510	-5.1028	 0.5168	-4.5859	-4.8061	 1.1217	-3.6843	-4.6534	 0.7228	-3.9306	57.7269	99.7606	
   511	-4.9353	 0.5889	-4.3464	-4.6390	 1.1979	-3.4411	-4.4710	 0.8140	-3.6570	57.7618	99.7573	
   512	-4.7318	 0.7142	-4.0176	-4.4270	 1.3151	-3.1119	-4.2632	 0.9211	-3.3421	57.9034	99.7598	
   513	-4.6332	 0.7284	-3.9049	-4.3562	 1.3185	-3.0377	-4.2140	 0.9286	-3.2853	57.8346	99.7572	
   514	-4.6089	 0.7279	-3.8810	-4.3489	 1.3231	-3.0258	-4.1957	 0.9284	-3.2673	57.8346	99.7552	
   515	-4.5526	 0.7160	-3.8366	-4.2375	 1.2980	-2.9396	-4.0818	 0.8944	-3.1874	58.2010	99.7610	
   516	-4.4582	 0.6656	-3.7926	-4.1564	 1.2408	-2.9156	-4.0180	 0.8407	-3.1773	58.2510	99.7601	
   517	-4.4454	 0.6115	-3.8340	-4.1526	 1.1897	-2.9629	-4.0209	 0.7919	-3.2290	58.2437	99.7598	
   518	-4.4645	 0.5688	-3.8957	-4.1625	 1.1434	-3.0191	-4.0302	 0.7392	-3.2910	58.3549	99.7612	
   519	-4.4835	 0.5260	-3.9575	-4.1790	 1.1065	-3.0724	-4.0507	 0.7029	-3.3479	58.3513	99.7626	
   520	-4.5015	 0.4994	-4.0021	-4.1807	 1.0787	-3.1020	-4.0459	 0.6825	-3.3634	58.4158	99.7623	
   521	-4.4220	 0.4709	-3.9511	-4.0767	 1.0490	-3.0277	-3.9383	 0.6445	-3.2939	58.6591	99.7658	
   522	-4.3594	 0.4319	-3.9274	-4.0094	 0.9968	-3.0126	-3.8864	 0.5950	-3.2914	58.7703	99.7660	
   523	-4.3381	 0.3830	-3.9551	-4.0047	 0.9596	-3.0451	-3.8767	 0.5542	-3.3225	58.7669	99.7654	
   524	-4.3551	 0.3726	-3.9825	-3.9991	 0.9362	-3.0628	-3.8718	 0.5338	-3.3380	58.8849	99.7659	
   525	-4.3402	 0.3507	-3.9895	-3.9999	 0.9223	-3.0776	-3.8789	 0.5177	-3.3613	58.8209	99.7663	
   526	-4.3243	 0.3450	-3.9793	-3.9650	 0.9171	-3.0479	-3.8241	 0.5170	-3.3071	58.9521	99.7653	
   527	-4.2193	 0.3322	-3.8872	-3.8325	 0.8916	-2.9409	-3.7039	 0.4869	-3.2169	59.1907	99.7691	
   528	-4.1567	 0.2932	-3.8635	-3.7993	 0.8585	-2.9408	-3.6758	 0.4459	-3.2299	59.1811	99.7683	
   529	-4.1503	 0.2661	-3.8842	-3.7872	 0.8258	-2.9614	-3.6773	 0.4215	-3.2558	59.1779	99.7686	
   530	-4.1514	 0.2500	-3.9014	-3.7881	 0.8119	-2.9762	-3.6725	 0.4011	-3.2713	59.2352	99.7691	
   531	-4.1599	 0.2448	-3.9151	-3.7890	 0.7980	-2.9910	-3.6732	 0.3889	-3.2842	59.2925	99.7685	
   532	-4.1365	 0.2281	-3.9084	-3.7475	 0.7833	-2.9642	-3.6310	 0.3803	-3.2507	59.3591	99.7698	
   533	-4.0559	 0.2157	-3.8402	-3.6435	 0.7537	-2.8898	-3.5355	 0.3465	-3.1889	59.5939	99.7719	
   534	-4.0177	 0.1773	-3.8405	-3.6177	 0.7161	-2.9016	-3.5194	 0.3097	-3.2097	59.5879	99.7716	
   535	-4.0113	 0.1502	-3.8611	-3.6194	 0.6883	-2.9311	-3.5328	 0.2895	-3.2433	59.5247	99.7708	
   536	-4.0208	 0.1288	-3.8920	-3.6276	 0.6698	-2.9578	-3.5279	 0.2691	-3.2588	59.5849	99.7700	
   537	-4.0208	 0.1288	-3.8920	-3.6276	 0.6698	-2.9578	-3.5279	 0.2691	-3.2588	59.5849	99.7700	
   538	-3.9721	 0.1279	-3.8442	-3.5577	 0.6593	-2.8984	-3.4436	 0.2518	-3.1918	59.8255	99.7704	
   539	-3.9010	 0.0941	-3.8069	-3.4895	 0.6210	-2.8685	-3.3853	 0.2063	-3.1790	59.9370	99.7717	
   540	-3.8872	 0.0561	-3.8311	-3.4848	 0.5838	-2.9010	-3.3875	 0.1697	-3.2178	59.9313	99.7714	
   541	-3.8882	 0.0400	-3.8483	-3.4857	 0.5699	-2.9158	-3.3883	 0.1576	-3.2307	59.9313	99.7714	
   542	-3.8723	 0.0343	-3.8381	-3.4719	 0.5650	-2.9069	-3.3763	 0.1533	-3.2230	59.9313	99.7714	
   543	-3.8723	 0.0343	-3.8381	-3.4581	 0.5601	-2.8979	-3.3581	 0.1531	-3.2050	59.9942	99.7711	
   544	-3.7758	 0.0162	-3.7596	-3.3467	 0.5350	-2.8117	-3.2442	 0.1191	-3.1251	60.2310	99.7729	
   545	-3.7291	-0.0171	-3.7462	-3.3135	 0.5019	-2.8116	-3.2218	 0.0863	-3.1355	60.2256	99.7726	
   546	-3.7143	-0.0389	-3.7532	-3.2941	 0.4737	-2.8204	-3.2050	 0.0617	-3.1433	60.2828	99.7720	
   547	-3.7068	-0.0499	-3.7567	-3.3014	 0.4692	-2.8322	-3.2113	 0.0577	-3.1536	60.2229	99.7710	
   548	-3.7068	-0.0499	-3.7567	-3.2941	 0.4737	-2.8204	-3.2050	 0.0617	-3.1433	60.2256	99.7726	
   549	-3.6580	-0.0508	-3.7089	-3.2168	 0.4678	-2.7491	-3.1079	 0.0523	-3.0557	60.4699	99.7733	
   550	-3.5626	-0.0851	-3.6477	-3.1275	 0.4291	-2.6984	-3.0434	 0.0108	-3.0326	60.5218	99.7755	
   551	-3.5477	-0.1069	-3.6547	-3.1155	 0.3964	-2.7191	-3.0329	-0.0178	-3.0507	60.5763	99.7732	
   552	-3.5329	-0.1288	-3.6616	-3.1163	 0.3824	-2.7339	-3.0280	-0.0382	-3.0662	60.5738	99.7727	
   553	-3.5339	-0.1449	-3.6788	-3.1172	 0.3685	-2.7487	-3.0288	-0.0504	-3.0792	60.5738	99.7727	
   554	-3.5339	-0.1449	-3.6788	-3.0896	 0.3588	-2.7308	-2.9985	-0.0549	-3.0534	60.6955	99.7734	
   555	-3.4374	-0.1630	-3.6004	-2.9782	 0.3337	-2.6446	-2.8847	-0.0889	-2.9735	60.9309	99.7752	
   556	-3.3833	-0.2072	-3.5905	-2.9321	 0.2818	-2.6503	-2.8630	-0.1339	-2.9969	60.9237	99.7752	
   557	-3.3769	-0.2343	-3.6112	-2.9403	 0.2633	-2.6770	-2.8701	-0.1500	-3.0201	60.8643	99.7741	
   558	-3.3694	-0.2452	-3.6147	-2.9200	 0.2491	-2.6710	-2.8406	-0.1667	-3.0073	60.9832	99.7743	
   559	-3.3694	-0.2452	-3.6147	-2.9135	 0.2397	-2.6739	-2.8350	-0.1749	-3.0099	61.0402	99.7737	
   560	-3.3132	-0.2571	-3.5703	-2.8436	 0.2292	-2.6144	-2.7506	-0.1922	-2.9429	61.2203	99.7747	
   561	-3.2432	-0.3070	-3.5502	-2.7975	 0.1773	-2.6202	-2.7185	-0.2659	-2.9843	61.3233	99.7766	
   562	-3.2962	-0.3706	-3.6668	-2.8441	 0.1084	-2.7357	-2.7946	-0.3137	-3.1082	61.2001	99.7769	
   563	-3.3057	-0.3920	-3.6976	-2.8588	 0.0994	-2.7594	-2.8129	-0.3134	-3.1263	61.0858	99.7770	
   564	-3.2538	-0.3445	-3.5983	-2.8001	 0.1355	-2.6645	-2.7382	-0.2900	-3.0282	61.2640	99.7764	
   565	-3.1595	-0.2710	-3.4304	-2.6460	 0.2305	-2.4155	-2.5394	-0.1299	-2.6693	61.1992	99.7711	
   566	-2.5014	 0.0877	-2.4137	-2.0347	 0.5268	-1.5079	-1.8866	 0.1748	-1.7118	61.5794	99.7520	
   567	-2.0583	 0.2674	-1.7909	-1.7675	 0.6244	-1.1430	-1.6874	 0.2414	-1.4460	61.4819	99.7335	
   568	-2.1071	 0.2684	-1.8387	-1.8171	 0.6206	-1.1965	-1.7247	 0.2297	-1.4950	61.5364	99.7323	
   569	-2.2353	 0.1740	-2.0613	-1.9639	 0.5302	-1.4337	-1.8832	 0.1300	-1.7532	61.4608	99.7332	
   570	-2.4377	 0.0649	-2.3729	-2.1245	 0.4447	-1.6798	-2.0410	 0.0426	-1.9984	61.4587	99.7412	
   571	-2.5161	-0.0144	-2.5305	-2.1703	 0.3897	-1.7806	-2.0995	-0.0176	-2.1172	61.4587	99.7509	
   572	-2.6019	-0.0827	-2.6847	-2.2592	 0.3215	-1.9377	-2.2010	-0.0814	-2.2824	61.3912	99.7512	
   573	-2.7101	-0.1183	-2.8283	-2.3464	 0.2812	-2.0652	-2.2946	-0.1168	-2.4114	61.3868	99.7528	
   574	-2.7768	-0.1439	-2.9207	-2.4181	 0.2638	-2.1543	-2.3454	-0.1487	-2.4940	61.4417	99.7529	
   575	-2.8341	-0.1481	-2.9822	-2.4677	 0.2600	-2.2077	-2.3939	-0.1440	-2.5379	61.3847	99.7523	
   576	-2.8002	-0.1273	-2.9274	-2.4245	 0.2732	-2.1513	-2.3390	-0.1447	-2.4837	61.5600	99.7531	
   577	-2.7864	-0.1653	-2.9516	-2.4336	 0.2408	-2.1928	-2.3595	-0.1810	-2.5405	61.4945	99.7531	
   578	-2.8690	-0.1852	-3.0542	-2.4988	 0.2141	-2.2847	-2.4222	-0.2087	-2.6309	61.5495	99.7539	
   579	-2.9443	-0.2160	-3.1603	-2.5640	 0.1873	-2.3767	-2.4729	-0.2406	-2.7135	61.6067	99.7545	
   580	-2.9941	-0.2312	-3.2253	-2.6072	 0.1741	-2.4331	-2.5159	-0.2441	-2.7599	61.5495	99.7539	
   581	-2.9856	-0.2259	-3.2116	-2.5713	 0.1828	-2.3885	-2.4610	-0.2448	-2.7058	61.7309	99.7567	
   582	-2.9464	-0.2483	-3.1946	-2.5299	 0.1681	-2.3618	-2.4252	-0.2574	-2.6826	61.7329	99.7584	
   583	-2.9549	-0.2535	-3.2083	-2.5519	 0.1546	-2.3973	-2.4625	-0.2692	-2.7316	61.6679	99.7573	
   584	-2.9877	-0.2582	-3.2459	-2.5869	 0.1598	-2.4271	-2.4864	-0.2607	-2.7471	61.6128	99.7565	
   585	-2.9835	-0.1936	-3.1772	-2.5843	 0.2016	-2.3827	-2.5017	-0.2117	-2.7134	61.5516	99.7545	
   586	-2.9052	-0.1144	-3.0195	-2.5238	 0.2656	-2.2582	-2.4432	-0.1515	-2.5946	61.5516	99.7513	
   587	-2.8373	-0.0726	-2.9100	-2.5009	 0.2931	-2.2078	-2.4241	-0.1395	-2.5636	61.5412	99.7469	
   588	-2.8512	-0.0346	-2.8858	-2.5506	 0.2893	-2.2613	-2.5163	-0.1505	-2.6668	61.4583	99.7433	
   589	-2.9741	-0.0483	-3.0225	-2.6856	 0.2730	-2.4127	-2.6529	-0.1894	-2.8423	61.4433	99.7451	
   590	-3.1321	-0.0991	-3.2312	-2.8803	 0.2066	-2.6738	-2.8965	-0.2839	-3.1804	61.2876	99.7490	
   591	-3.2720	-0.1232	-3.3952	-3.0072	 0.2087	-2.7985	-3.0237	-0.2701	-3.2938	61.0548	99.7523	
   592	-3.1957	-0.0762	-3.2720	-2.9191	 0.2630	-2.6562	-2.9357	-0.2265	-3.1622	61.1223	99.7567	
   593	-3.1872	-0.0710	-3.2583	-2.9183	 0.2769	-2.6414	-2.9350	-0.2143	-3.1492	61.0642	99.7573	
   594	-3.2180	-0.0435	-3.2615	-2.9239	 0.3002	-2.6236	-2.9518	-0.1897	-3.1414	61.0666	99.7610	
   595	-3.2594	-0.0534	-3.3128	-2.9662	 0.3009	-2.6652	-2.9440	-0.1613	-3.1052	61.0251	99.7516	
   596	-3.2054	 0.0263	-3.1790	-2.8306	 0.4380	-2.3926	-2.7444	 0.0110	-2.7334	61.0286	99.7560	
   597	-3.0623	 0.0989	-2.9634	-2.7149	 0.4825	-2.2324	-2.6388	 0.0422	-2.5967	61.1384	99.7525	
   598	-2.9891	 0.0974	-2.8917	-2.6441	 0.4860	-2.1581	-2.5523	 0.0614	-2.4909	61.1498	99.7484	
   599	-2.8365	 0.1914	-2.6452	-2.4973	 0.5764	-1.9209	-2.3620	 0.1809	-2.1811	61.1769	99.7373	
   600	-2.5696	 0.4177	-2.1518	-2.2387	 0.7625	-1.4762	-2.0618	 0.4048	-1.6570	61.2667	99.7195	
   601	-2.4436	 0.6038	-1.8397	-2.1393	 0.9977	-1.1416	-1.8139	 0.7716	-1.0422	60.7289	99.6816	
   602	-2.1034	 0.8287	-1.2747	-1.6299	 1.2446	-0.3853	-1.2028	 0.9915	-0.2113	61.6471	99.6993	
   603	-2.0726	 0.8012	-1.2715	-1.5811	 1.2345	-0.3466	-1.1543	 0.9868	-0.1675	61.6548	99.7034	
   604	-2.0059	 0.8268	-1.1791	-1.5077	 1.2797	-0.2280	-1.0789	 1.0224	-0.0565	61.6625	99.7087	
   605	-1.9391	 0.8524	-1.0867	-1.5004	 1.2842	-0.2162	-1.1282	 1.0149	-0.1132	61.4735	99.7077	
   606	-1.9804	 0.8424	-1.1380	-1.5470	 1.2153	-0.3317	-1.2713	 0.8663	-0.4050	61.7577	99.7241	
   607	-2.3450	 0.6180	-1.7270	-2.2024	 0.8919	-1.3104	-2.1678	 0.4672	-1.7007	60.7828	99.7160	
   608	-2.6524	 0.5218	-2.1306	-2.4035	 0.8349	-1.5686	-2.2690	 0.5091	-1.7599	60.6683	99.7047	
   609	-2.1449	 0.9427	-1.2022	-1.8099	 1.1873	-0.6226	-1.6788	 0.7862	-0.8926	61.5611	99.7203	
   610	-1.9487	 0.9549	-0.9938	-1.9483	 1.3429	-0.6055	-1.7443	 1.0147	-0.7295	59.8544	99.6766	
   611	-1.9552	 1.1059	-0.8493	-1.7830	 1.3912	-0.3918	-1.6816	 1.0424	-0.6392	60.4772	99.7018	
   612	-2.0718	 1.0652	-1.0067	-1.9328	 1.3659	-0.5669	-1.8245	 0.9995	-0.8250	60.3462	99.7016	
   613	-2.1853	 1.0728	-1.1125	-2.0239	 1.3767	-0.6472	-1.8962	 1.0248	-0.8714	60.2976	99.6998	
   614	-2.2510	 1.0634	-1.1877	-2.0864	 1.3917	-0.6948	-1.9432	 1.0539	-0.8893	60.1363	99.6994	
   615	-2.2977	 1.0966	-1.2011	-2.0683	 1.4564	-0.6119	-1.8571	 1.1666	-0.6904	60.1339	99.6953	
   616	-2.1631	 1.1640	-0.9991	-1.9012	 1.5326	-0.3686	-1.6452	 1.2412	-0.4040	60.3932	99.6955	
   617	-2.1578	 1.1208	-1.0370	-1.8477	 1.4852	-0.3625	-1.5679	 1.2077	-0.3603	60.6348	99.6953	
   618	-2.2286	 0.9067	-1.3220	-1.8996	 1.3328	-0.5668	-1.5872	 1.0900	-0.4973	60.5414	99.6963	
   619	-2.3791	 0.8450	-1.5341	-2.0161	 1.2744	-0.7418	-1.7626	 1.0150	-0.7476	60.4638	99.7116	
   620	-2.5732	 0.8650	-1.7081	-2.2065	 1.2776	-0.9289	-1.9850	 0.9690	-1.0159	60.4868	99.7218	
   621	-2.6823	 0.8133	-1.8690	-2.3956	 1.1879	-1.2077	-2.2603	 0.8547	-1.4056	60.1927	99.7213	
   622	-2.7015	 0.8945	-1.8070	-2.4197	 1.2533	-1.1664	-2.2741	 0.9280	-1.3461	60.1390	99.7158	
   623	-2.4588	 0.9975	-1.4613	-2.1719	 1.3792	-0.7927	-1.9903	 1.0830	-0.9073	60.1285	99.7109	
   624	-2.2628	 1.1336	-1.1291	-2.0307	 1.4929	-0.5378	-1.8859	 1.1955	-0.6904	59.9497	99.7063	
   625	-2.1664	 1.2395	-0.9269	-1.9612	 1.5893	-0.3718	-1.8131	 1.2881	-0.5251	59.8965	99.7020	
   626	-2.1569	 1.2608	-0.8960	-1.9806	 1.6175	-0.3631	-1.8363	 1.3087	-0.5276	59.7760	99.7012	
   627	-2.2300	 1.2623	-0.9677	-2.0945	 1.6009	-0.4937	-1.9968	 1.2782	-0.7185	59.5666	99.7017	
   628	-2.3869	 1.2277	-1.1592	-2.2672	 1.5480	-0.7192	-2.1904	 1.2035	-0.9869	59.5309	99.7030	
   629	-2.5215	 1.1604	-1.3611	-2.3984	 1.4806	-0.9179	-2.3235	 1.1198	-1.2038	59.5698	99.7061	
   630	-2.5416	 1.1015	-1.4401	-2.4157	 1.4298	-0.9860	-2.3511	 1.0673	-1.2838	59.5638	99.7092	
   631	-2.5416	 1.1015	-1.4401	-2.3928	 1.4572	-0.9356	-2.2870	 1.1193	-1.1677	59.5399	99.7066	
   632	-2.4961	 1.1760	-1.3201	-2.3242	 1.5397	-0.7845	-2.2128	 1.2363	-0.9765	59.3974	99.7046	
   633	-2.4251	 1.2662	-1.1589	-2.2620	 1.6316	-0.6304	-2.1281	 1.3247	-0.8035	59.4126	99.7016	
   634	-2.4220	 1.3146	-1.1074	-2.2732	 1.6782	-0.5950	-2.1371	 1.3776	-0.7595	59.3000	99.6983	
   635	-2.4612	 1.3370	-1.1243	-2.3219	 1.6883	-0.6336	-2.1920	 1.3784	-0.8136	59.2877	99.6976	
   636	-2.5026	 1.3270	-1.1756	-2.3357	 1.6932	-0.6425	-2.1857	 1.3823	-0.8033	59.3593	99.7008	
   637	-2.4528	 1.3422	-1.1106	-2.2779	 1.7154	-0.5624	-2.1413	 1.4102	-0.7310	59.3092	99.7040	
   638	-2.4592	 1.3693	-1.0899	-2.2623	 1.7384	-0.5239	-2.1137	 1.4627	-0.6510	59.2715	99.6996	
   639	-2.4475	 1.4229	-1.0246	-2.2377	 1.7937	-0.4440	-2.0495	 1.5148	-0.5348	59.4047	99.6969	
   640	-2.4614	 1.4609	-1.0005	-2.3197	 1.8369	-0.4828	-2.1514	 1.5446	-0.6069	59.0940	99.6939	
   641	-2.5589	 1.4629	-1.0961	-2.4621	 1.8161	-0.6460	-2.3246	 1.5061	-0.8185	58.9365	99.6915	
   642	-2.6999	 1.4226	-1.2773	-2.6128	 1.7769	-0.8359	-2.4921	 1.4595	-1.0326	58.7971	99.6937	
   643	-2.7169	 1.4121	-1.3047	-2.6072	 1.7535	-0.8536	-2.5175	 1.4435	-1.0739	58.7905	99.6976	
   644	-2.7253	 1.4069	-1.3184	-2.6283	 1.7539	-0.8744	-2.5372	 1.4194	-1.1178	58.8372	99.7008	
   645	-2.7921	 1.3813	-1.4108	-2.7073	 1.7320	-0.9753	-2.6238	 1.4002	-1.2236	58.7102	99.7002	
   646	-2.8409	 1.3823	-1.4586	-2.7570	 1.7282	-1.0288	-2.6723	 1.4049	-1.2674	58.6499	99.6977	
   647	-2.8801	 1.4046	-1.4755	-2.7837	 1.7519	-1.0318	-2.7011	 1.4337	-1.2674	58.5964	99.6990	
   648	-2.9194	 1.4270	-1.4924	-2.8243	 1.7804	-1.0438	-2.7235	 1.4665	-1.2570	58.5464	99.6966	
   649	-2.8855	 1.4478	-1.4376	-2.7729	 1.8121	-0.9608	-2.6545	 1.4982	-1.1563	58.6238	99.6982	
   650	-2.8357	 1.4630	-1.3727	-2.7012	 1.8294	-0.8718	-2.5862	 1.5176	-1.0686	58.6939	99.7017	
   651	-2.8346	 1.4791	-1.3555	-2.6939	 1.8340	-0.8599	-2.5918	 1.5258	-1.0660	58.6906	99.7019	
   652	-2.8675	 1.4744	-1.3931	-2.7565	 1.8490	-0.9075	-2.6466	 1.5265	-1.1201	58.5671	99.7024	
   653	-2.9078	 1.4806	-1.4272	-2.8052	 1.8591	-0.9461	-2.7008	 1.5394	-1.1613	58.4468	99.7022	
   654	-2.9470	 1.5029	-1.4441	-2.8328	 1.8688	-0.9640	-2.7422	 1.5603	-1.1819	58.3865	99.7018	
   655	-3.0043	 1.4987	-1.5056	-2.9101	 1.8748	-1.0353	-2.8154	 1.5612	-1.2541	58.2623	99.7010	
   656	-3.0032	 1.5148	-1.4884	-2.8881	 1.8883	-0.9997	-2.7661	 1.5687	-1.1974	58.4503	99.7006	
   657	-2.9460	 1.5191	-1.4269	-2.8173	 1.8918	-0.9255	-2.7105	 1.5802	-1.1303	58.4572	99.7031	
   658	-2.9449	 1.5352	-1.4097	-2.8091	 1.9102	-0.8988	-2.7034	 1.5964	-1.1070	58.4607	99.7050	
   659	-2.9768	 1.5466	-1.4301	-2.8578	 1.9204	-0.9375	-2.7400	 1.5969	-1.1431	58.4537	99.7025	
   660	-3.0171	 1.5528	-1.4642	-2.8928	 1.9256	-0.9672	-2.7934	 1.6220	-1.1714	58.2802	99.7023	
   661	-3.0404	 1.5695	-1.4709	-2.9269	 1.9447	-0.9821	-2.8173	 1.6304	-1.1869	58.2766	99.7017	
   662	-3.0892	 1.5704	-1.5187	-2.9830	 1.9503	-1.0326	-2.8714	 1.6433	-1.2281	58.1596	99.6999	
   663	-3.0797	 1.5918	-1.4879	-2.9463	 1.9729	-0.9733	-2.8095	 1.6588	-1.1507	58.3510	99.7014	
   664	-3.0054	 1.6065	-1.3990	-2.8608	 1.9854	-0.8754	-2.7412	 1.6782	-1.0630	58.3581	99.7039	
   665	-2.9970	 1.6117	-1.3853	-2.8673	 1.9948	-0.8725	-2.7475	 1.6742	-1.0733	58.3510	99.7049	
   666	-3.0129	 1.6174	-1.3955	-2.8884	 1.9952	-0.8932	-2.7714	 1.6827	-1.0887	58.2909	99.7024	
   667	-3.0457	 1.6127	-1.4331	-2.9307	 1.9959	-0.9348	-2.8263	 1.6834	-1.1429	58.1668	99.7037	
   668	-3.1104	 1.6194	-1.4911	-2.9942	 1.9970	-0.9972	-2.8875	 1.6801	-1.2074	58.1596	99.7033	
   669	-3.1592	 1.6203	-1.5389	-3.0503	 2.0026	-1.0477	-2.9479	 1.6890	-1.2589	58.0388	99.7031	
   670	-3.1263	 1.6251	-1.5013	-2.9933	 2.0109	-0.9824	-2.8748	 1.6881	-1.1867	58.2271	99.7062	
   671	-3.0776	 1.6241	-1.4535	-2.9372	 2.0053	-0.9319	-2.8199	 1.6874	-1.1326	58.2909	99.7058	
   672	-3.0776	 1.6241	-1.4535	-2.9372	 2.0053	-0.9319	-2.8263	 1.6834	-1.1429	58.2873	99.7074	
   673	-3.1020	 1.6246	-1.4774	-2.9795	 2.0060	-0.9735	-2.8748	 1.6881	-1.1867	58.1632	99.7052	
   674	-3.1348	 1.6198	-1.5150	-3.0218	 2.0067	-1.0151	-2.9177	 1.6846	-1.2331	58.0992	99.7056	
   675	-3.1836	 1.6208	-1.5628	-3.0641	 2.0075	-1.0566	-2.9726	 1.6853	-1.2873	58.0351	99.7081	
   676	-3.2239	 1.6270	-1.5969	-3.1064	 2.0082	-1.0982	-3.0028	 1.6897	-1.3131	58.0351	99.7046	
   677	-3.1910	 1.6317	-1.5593	-3.0494	 2.0165	-1.0329	-2.9352	 1.6970	-1.2383	58.1668	99.7071	
   678	-3.1433	 1.6146	-1.5287	-3.0080	 2.0019	-1.0061	-2.9121	 1.6763	-1.2357	58.1596	99.7102	
   679	-3.1433	 1.6146	-1.5287	-3.0145	 2.0113	-1.0032	-2.8994	 1.6843	-1.2151	58.1668	99.7084	
   680	-3.1592	 1.6203	-1.5389	-3.0429	 2.0071	-1.0358	-2.9543	 1.6850	-1.2692	58.0351	99.7081	
   681	-3.2165	 1.6161	-1.6004	-3.1064	 2.0082	-1.0982	-3.0035	 1.6775	-1.3260	58.0314	99.7075	
   682	-3.2568	 1.6223	-1.6345	-3.1487	 2.0089	-1.1398	-3.0520	 1.6822	-1.3698	57.9672	99.7066	
   683	-3.2971	 1.6285	-1.6686	-3.1836	 2.0141	-1.1695	-3.0759	 1.6907	-1.3853	57.9709	99.7050	
   684	-3.2557	 1.6384	-1.6173	-3.1193	 2.0270	-1.0924	-2.9964	 1.6937	-1.3027	58.1596	99.7081	
   685	-3.2154	 1.6322	-1.5832	-3.0844	 2.0217	-1.0626	-2.9726	 1.6853	-1.2873	58.1560	99.7096	
   686	-3.2398	 1.6327	-1.6071	-3.1129	 2.0176	-1.0953	-3.0091	 1.6857	-1.3234	58.0919	99.7087	
   687	-3.2811	 1.6228	-1.6584	-3.1560	 2.0044	-1.1517	-3.0464	 1.6740	-1.3724	58.0882	99.7068	
   688	-3.3130	 1.6342	-1.6788	-3.1836	 2.0141	-1.1695	-3.0767	 1.6785	-1.3982	58.0846	99.7083	
   689	-3.3458	 1.6295	-1.7164	-3.2333	 2.0103	-1.2230	-3.1315	 1.6792	-1.4524	57.9597	99.7062	
   690	-3.3702	 1.6299	-1.7403	-3.2397	 2.0197	-1.2200	-3.1125	 1.6911	-1.4214	58.0351	99.7059	
   691	-3.2886	 1.6337	-1.6549	-3.1340	 2.0179	-1.1161	-3.0211	 1.6900	-1.3311	58.1596	99.7102	
   692	-3.2398	 1.6327	-1.6071	-3.1055	 2.0221	-1.0834	-3.0028	 1.6897	-1.3131	58.0956	99.7106	
   693	-3.2642	 1.6332	-1.6310	-3.1340	 2.0179	-1.1161	-3.0338	 1.6820	-1.3518	58.0882	99.7102	
   694	-3.2811	 1.6228	-1.6584	-3.1552	 2.0183	-1.1369	-3.0520	 1.6822	-1.3698	58.0314	99.7109	
   695	-3.3130	 1.6342	-1.6788	-3.1763	 2.0186	-1.1577	-3.0823	 1.6867	-1.3956	58.0277	99.7112	
   696	-3.3374	 1.6347	-1.7027	-3.2186	 2.0194	-1.1992	-3.1188	 1.6871	-1.4317	57.9634	99.7081	
   697	-3.3374	 1.6347	-1.7027	-3.1966	 2.0329	-1.1637	-3.0696	 1.6946	-1.3750	58.0992	99.7103	
   698	-3.2472	 1.6436	-1.6036	-3.0908	 2.0311	-1.0597	-2.9718	 1.6974	-1.2744	58.2235	99.7112	
   699	-3.2228	 1.6432	-1.5797	-3.0697	 2.0308	-1.0389	-2.9599	 1.6932	-1.2666	58.2199	99.7127	
   700	-3.2324	 1.6218	-1.6106	-3.0917	 2.0172	-1.0745	-2.9852	 1.6773	-1.3080	58.1560	99.7130	
   701	-3.2568	 1.6223	-1.6345	-3.1202	 2.0131	-1.1072	-3.0099	 1.6735	-1.3363	58.1523	99.7112	
   702	-3.2896	 1.6176	-1.6721	-3.1487	 2.0089	-1.1398	-3.0528	 1.6700	-1.3828	58.0882	99.7136	
   703	-3.3140	 1.6180	-1.6960	-3.1836	 2.0141	-1.1695	-3.0767	 1.6785	-1.3982	58.0314	99.7109	
   704	-3.2971	 1.6285	-1.6686	-3.1413	 2.0134	-1.1279	-3.0218	 1.6778	-1.3441	58.2163	99.7108	
   705	-3.2408	 1.6166	-1.6243	-3.0779	 2.0123	-1.0656	-2.9613	 1.6688	-1.2925	58.2802	99.7151	
   706	-3.2165	 1.6161	-1.6004	-3.0641	 2.0075	-1.0566	-2.9613	 1.6688	-1.2925	58.2163	99.7142	
   707	-3.2334	 1.6057	-1.6278	-3.0926	 2.0033	-1.0893	-2.9804	 1.6569	-1.3235	58.2127	99.7136	
   708	-3.2737	 1.6118	-1.6619	-3.1146	 1.9897	-1.1249	-3.0169	 1.6574	-1.3596	58.2091	99.7126	
   709	-3.2907	 1.6014	-1.6893	-3.1496	 1.9950	-1.1546	-3.0360	 1.6454	-1.3906	58.2055	99.7133	
   710	-3.2907	 1.6014	-1.6893	-3.1219	 1.9852	-1.1367	-3.0113	 1.6492	-1.3622	58.2731	99.7135	
   711	-3.2334	 1.6057	-1.6278	-3.0447	 1.9793	-1.0654	-2.9326	 1.6400	-1.2926	58.4537	99.7149	
   712	-3.1942	 1.5833	-1.6108	-3.0309	 1.9744	-1.0565	-2.9206	 1.6358	-1.2849	58.3369	99.7145	
   713	-3.2026	 1.5781	-1.6245	-3.0520	 1.9747	-1.0773	-2.9453	 1.6320	-1.3132	58.2731	99.7148	
   714	-3.2429	 1.5843	-1.6586	-3.0740	 1.9612	-1.1129	-2.9762	 1.6243	-1.3519	58.3263	99.7144	
   715	-3.2599	 1.5739	-1.6860	-3.1090	 1.9664	-1.1426	-3.0065	 1.6288	-1.3777	58.2091	99.7139	
   716	-3.2673	 1.5848	-1.6825	-3.0879	 1.9660	-1.1218	-2.9580	 1.6241	-1.3339	58.4537	99.7128	
   717	-3.1867	 1.5724	-1.6143	-3.0106	 1.9601	-1.0505	-2.8856	 1.6109	-1.2746	58.5139	99.7153	
   718	-3.1549	 1.5610	-1.5939	-2.9903	 1.9458	-1.0445	-2.8799	 1.6027	-1.2772	58.4503	99.7144	
   719	-3.1803	 1.5453	-1.6350	-2.9985	 1.9274	-1.0712	-2.8990	 1.5908	-1.3082	58.4503	99.7165	
   720	-3.1888	 1.5401	-1.6487	-3.0059	 1.9229	-1.0830	-2.9109	 1.5950	-1.3159	58.3936	99.7159	
   721	-3.2047	 1.5458	-1.6589	-3.0335	 1.9326	-1.1009	-2.9117	 1.5828	-1.3288	58.5070	99.7150	
   722	-3.1888	 1.5401	-1.6487	-3.0059	 1.9229	-1.0830	-2.8814	 1.5784	-1.3031	58.5705	99.7146	
   723	-3.1326	 1.5282	-1.6044	-2.9433	 1.9079	-1.0354	-2.8154	 1.5612	-1.2541	58.6906	99.7148	
   724	-3.0934	 1.5059	-1.5875	-2.9157	 1.8981	-1.0176	-2.8098	 1.5530	-1.2567	58.5705	99.7180	
   725	-3.1018	 1.5006	-1.6012	-2.9304	 1.8891	-1.0413	-2.8224	 1.5451	-1.2774	58.5671	99.7161	
   726	-3.1273	 1.4850	-1.6423	-2.9597	 1.8710	-1.0887	-2.8478	 1.5291	-1.3187	58.5637	99.7143	
   727	-3.1517	 1.4855	-1.6662	-2.9809	 1.8713	-1.1095	-2.8605	 1.5212	-1.3393	58.6203	99.7149	
   728	-3.1029	 1.4845	-1.6184	-2.9174	 1.8703	-1.0472	-2.7873	 1.5202	-1.2671	58.7472	99.7154	
   729	-3.0467	 1.4726	-1.5741	-2.8549	 1.8553	-0.9996	-2.7276	 1.4991	-1.2285	58.8637	99.7172	
   730	-3.0392	 1.4617	-1.5776	-2.8419	 1.8365	-1.0054	-2.7164	 1.4827	-1.2337	58.9203	99.7165	
   731	-3.0403	 1.4455	-1.5947	-2.8501	 1.8180	-1.0321	-2.7354	 1.4707	-1.2647	58.8571	99.7156	
   732	-3.0647	 1.4460	-1.6186	-2.8786	 1.8139	-1.0648	-2.7601	 1.4670	-1.2931	58.8538	99.7137	
   733	-3.0816	 1.4356	-1.6460	-2.8998	 1.8142	-1.0855	-2.7664	 1.4630	-1.3034	58.8571	99.7135	
   734	-3.0328	 1.4346	-1.5982	-2.8363	 1.8131	-1.0232	-2.6876	 1.4539	-1.2338	59.0399	99.7147	
   735	-2.9607	 1.4170	-1.5437	-2.7737	 1.7982	-0.9756	-2.6335	 1.4410	-1.1926	59.0399	99.7147	
   736	-2.9533	 1.4061	-1.5472	-2.7746	 1.7842	-0.9904	-2.6406	 1.4248	-1.2158	59.0334	99.7143	
   737	-2.9787	 1.3904	-1.5883	-2.7902	 1.7613	-1.0289	-2.6660	 1.4089	-1.2571	59.0302	99.7146	
   738	-3.0116	 1.3857	-1.6259	-2.8260	 1.7526	-1.0734	-2.7033	 1.3971	-1.3061	59.0238	99.7142	
   739	-3.0445	 1.3810	-1.6635	-2.8545	 1.7484	-1.1061	-2.7096	 1.3932	-1.3165	59.0868	99.7118	
   740	-2.9798	 1.3743	-1.6055	-2.7837	 1.7519	-1.0318	-2.6365	 1.3922	-1.2443	59.1529	99.7146	
   741	-2.9469	 1.3790	-1.5679	-2.7423	 1.7372	-1.0050	-2.6006	 1.3795	-1.2211	59.2660	99.7132	
   742	-2.9405	 1.3519	-1.5886	-2.7578	 1.7143	-1.0436	-2.6323	 1.3596	-1.2727	59.1403	99.7126	
   743	-2.9819	 1.3420	-1.6399	-2.8010	 1.7011	-1.0999	-2.6697	 1.3479	-1.3217	59.1371	99.7107	
   744	-3.0147	 1.3373	-1.6775	-2.8295	 1.6969	-1.1326	-2.6887	 1.3360	-1.3527	59.1938	99.7113	
   745	-3.0476	 1.3325	-1.7151	-2.8580	 1.6927	-1.1652	-2.7189	 1.3404	-1.3785	59.1371	99.7107	
   746	-3.0063	 1.3425	-1.6638	-2.7945	 1.6917	-1.1029	-2.6458	 1.3395	-1.3063	59.3195	99.7106	
   747	-2.9585	 1.3254	-1.6332	-2.7531	 1.6770	-1.0761	-2.6163	 1.3228	-1.2935	59.3164	99.7121	
   748	-2.9521	 1.2983	-1.6538	-2.7816	 1.6729	-1.1087	-2.6353	 1.3109	-1.3244	59.1969	99.7111	
   749	-2.9850	 1.2936	-1.6914	-2.7898	 1.6544	-1.1354	-2.6543	 1.2989	-1.3554	59.2536	99.7125	
   750	-3.0020	 1.2831	-1.7188	-2.8321	 1.6551	-1.1770	-2.6853	 1.2912	-1.3941	59.1907	99.7107	
   751	-3.0422	 1.2893	-1.7529	-2.8532	 1.6555	-1.1977	-2.6972	 1.2954	-1.4018	59.2536	99.7104	
   752	-2.9850	 1.2936	-1.6914	-2.7816	 1.6729	-1.1087	-2.6170	 1.3106	-1.3064	59.3257	99.7135	
   753	-2.9457	 1.2712	-1.6745	-2.7484	 1.6398	-1.1086	-2.6073	 1.2698	-1.3374	59.3700	99.7156	
   754	-2.9701	 1.2717	-1.6984	-2.7704	 1.6262	-1.1442	-2.6319	 1.2661	-1.3658	59.3669	99.7124	
   755	-2.9786	 1.2665	-1.7121	-2.7842	 1.6311	-1.1531	-2.6438	 1.2703	-1.3735	59.3103	99.7131	
   756	-2.9871	 1.2613	-1.7258	-2.8053	 1.6315	-1.1739	-2.6565	 1.2623	-1.3942	59.3072	99.7125	
   757	-3.0030	 1.2670	-1.7360	-2.8191	 1.6363	-1.1828	-2.6685	 1.2666	-1.4019	59.3072	99.7125	
   758	-2.9786	 1.2665	-1.7121	-2.7630	 1.6307	-1.1323	-2.6136	 1.2659	-1.3478	59.4327	99.7152	
   759	-2.9383	 1.2603	-1.6780	-2.7216	 1.6161	-1.1055	-2.5778	 1.2532	-1.3246	59.4893	99.7145	
   760	-2.9394	 1.2442	-1.6952	-2.7225	 1.6022	-1.1203	-2.5968	 1.2412	-1.3556	59.4266	99.7170	
   761	-2.9637	 1.2446	-1.7191	-2.7510	 1.5980	-1.1530	-2.6158	 1.2293	-1.3865	59.4802	99.7157	
   762	-2.9797	 1.2503	-1.7293	-2.7648	 1.6029	-1.1619	-2.6270	 1.2457	-1.3813	59.4266	99.7136	
   763	-2.9532	 1.2821	-1.6710	-2.7337	 1.6488	-1.0849	-2.5565	 1.3017	-1.2548	59.4508	99.7094	
   764	-2.8430	 1.3500	-1.4930	-2.5951	 1.7208	-0.8743	-2.3924	 1.3931	-0.9993	59.5429	99.7073	
   765	-2.7264	 1.3908	-1.3356	-2.4941	 1.7563	-0.7378	-2.3178	 1.4166	-0.9012	59.5370	99.7104	
   766	-2.7009	 1.4064	-1.2945	-2.4794	 1.7653	-0.7141	-2.3290	 1.4330	-0.8960	59.4156	99.7104	
   767	-2.7836	 1.3865	-1.3971	-2.5869	 1.7393	-0.8476	-2.4417	 1.3856	-1.0560	59.3913	99.7104	
   768	-2.8843	 1.3400	-1.5443	-2.7246	 1.6812	-1.0434	-2.6107	 1.3146	-1.2961	59.2380	99.7099	
   769	-2.9840	 1.3097	-1.6743	-2.8330	 1.6412	-1.1917	-2.7170	 1.2713	-1.4457	59.2223	99.7074	
   770	-2.9691	 1.2879	-1.6812	-2.8265	 1.6318	-1.1947	-2.6875	 1.2546	-1.4329	59.2854	99.7062	
   771	-2.9468	 1.2551	-1.6917	-2.8006	 1.5942	-1.2064	-2.6778	 1.2138	-1.4639	59.3361	99.7086	
   772	-2.9987	 1.2076	-1.7911	-2.8455	 1.5532	-1.2924	-2.7363	 1.1536	-1.5827	59.3807	99.7153	
   773	-3.1269	 1.1132	-2.0137	-2.9656	 1.4391	-1.5265	-2.8851	 1.0132	-1.8719	59.5186	99.7212	
   774	-3.2996	 0.9604	-2.3392	-3.1296	 1.2978	-1.8318	-3.0290	 0.8524	-2.1767	59.6758	99.7238	
   775	-3.6227	 0.6220	-3.0007	-3.3814	 0.9955	-2.3860	-3.3203	 0.5755	-2.7448	59.5973	99.7379	
   776	-3.8813	 0.5248	-3.3565	-3.4734	 0.9924	-2.4810	-3.2483	 0.6559	-2.5924	59.7751	99.7367	
   777	-3.6470	 0.6225	-3.0246	-3.3218	 1.0456	-2.2763	-3.2095	 0.6920	-2.5175	59.4948	99.7381	
   778	-3.5124	 0.6898	-2.8226	-3.2463	 1.0118	-2.2346	-3.2057	 0.5537	-2.6520	60.0529	99.7426	
   779	-3.5813	 0.6319	-2.9494	-3.3473	 0.9763	-2.3710	-3.2825	 0.4937	-2.7888	60.0417	99.7424	
   780	-3.6173	 0.5788	-3.0385	-3.4216	 0.9172	-2.5044	-3.3967	 0.4220	-2.9747	59.8913	99.7439	
   781	-3.7678	 0.5171	-3.2507	-3.5511	 0.8776	-2.6735	-3.5023	 0.3908	-3.1115	59.8390	99.7448	
   782	-3.8505	 0.4972	-3.3533	-3.6374	 0.8511	-2.7863	-3.5959	 0.3554	-3.2405	59.8244	99.7457	
   783	-3.8929	 0.4711	-3.4218	-3.6733	 0.8425	-2.8308	-3.6269	 0.3477	-3.2792	59.7691	99.7481	
   784	-3.8939	 0.4550	-3.4390	-3.6668	 0.8331	-2.8337	-3.6101	 0.3231	-3.2870	59.8884	99.7509	
   785	-4.0073	 0.3387	-3.6686	-3.7510	 0.7276	-3.0234	-3.6645	 0.2302	-3.4343	60.0133	99.7497	
   786	-4.1640	 0.1802	-3.9839	-3.8249	 0.5617	-3.2632	-3.7838	 0.0732	-3.7106	60.1793	99.7625	
   787	-4.8327	-0.2160	-5.0487	-4.5234	 0.2251	-4.2984	-4.5296	-0.2547	-4.7843	59.4490	99.7703	
   788	-5.2398	-0.3425	-5.5823	-4.8450	 0.1608	-4.6842	-4.7632	-0.2842	-5.0474	59.3727	99.7718	
   789	-5.3171	-0.4057	-5.7228	-4.8981	 0.1013	-4.7968	-4.8105	-0.3609	-5.1714	59.5454	99.7767	
   790	-5.2524	-0.4123	-5.6647	-4.7436	 0.0894	-4.6542	-4.6179	-0.4040	-5.0219	60.2265	99.7861	
   791	-4.8242	-0.2107	-5.0350	-4.2130	 0.3359	-3.8771	-3.9804	-0.0503	-4.0307	60.3611	99.7755	
   792	-3.8302	 0.3082	-3.5219	-3.3898	 0.7494	-2.6403	-3.2741	 0.2293	-3.0449	60.7852	99.7783	
   793	-3.7867	 0.3505	-3.4363	-3.4955	 0.7512	-2.7443	-3.4260	 0.2394	-3.1867	60.2676	99.7602	
   794	-3.9637	 0.2570	-3.7067	-3.7424	 0.6392	-3.1032	-3.7338	 0.0929	-3.6409	60.0231	99.7620	
   795	-4.2182	 0.2244	-3.9938	-3.9548	 0.6289	-3.3259	-3.9047	 0.0910	-3.8137	59.9761	99.7632	
   796	-4.2828	 0.2311	-4.0518	-4.0182	 0.6300	-3.3883	-3.9652	 0.0999	-3.8653	59.9147	99.7610	
   797	-4.3221	 0.2534	-4.0687	-4.0238	 0.6533	-3.3705	-3.9510	 0.1323	-3.8188	59.9904	99.7612	
   798	-4.3126	 0.2748	-4.0378	-4.0156	 0.6717	-3.3439	-3.9391	 0.1281	-3.8110	60.1043	99.7637	
   799	-4.4418	 0.1642	-4.2777	-4.1063	 0.5757	-3.5306	-4.0349	 0.0561	-3.9788	60.0488	99.7669	
   800	-4.6156	-0.0048	-4.6203	-4.2151	 0.4150	-3.8002	-4.0979	-0.0773	-4.1752	60.3011	99.7650	
   801	-4.9007	-0.1338	-5.0344	-4.4841	 0.2894	-4.1947	-4.4281	-0.1910	-4.6191	59.9703	99.7728	
   802	-5.1868	-0.2789	-5.4657	-4.7384	 0.1729	-4.5654	-4.6422	-0.3021	-4.9443	59.9703	99.7739	
   803	-5.2143	-0.3269	-5.5412	-4.7116	 0.1493	-4.5624	-4.6198	-0.3349	-4.9547	60.1014	99.7851	
   804	-5.1941	-0.3920	-5.5861	-4.6948	 0.0793	-4.6155	-4.6011	-0.4287	-5.0297	60.3268	99.7872	
   805	-5.1050	-0.3991	-5.5042	-4.5541	 0.0723	-4.4819	-4.4197	-0.4554	-4.8751	60.8220	99.7908	
   806	-4.9269	-0.4135	-5.3403	-4.3573	 0.0597	-4.2977	-4.2327	-0.4903	-4.7230	61.1223	99.7975	
   807	-4.8293	-0.4154	-5.2447	-4.2516	 0.0579	-4.1937	-4.1461	-0.4711	-4.6173	61.0713	99.7978	
   808	-4.7382	-0.3903	-5.1285	-4.1588	 0.0749	-4.0839	-4.0596	-0.4519	-4.5115	61.1339	99.7975	
   809	-4.6555	-0.3704	-5.0259	-4.0660	 0.0919	-3.9741	-3.9555	-0.4451	-4.4006	61.3167	99.7984	
   810	-4.5982	-0.3661	-4.9644	-4.0366	 0.1100	-3.9266	-3.9294	-0.4170	-4.3463	61.1432	99.7962	
   811	-4.5315	-0.3405	-4.8720	-3.9861	 0.1277	-3.8584	-3.9040	-0.4010	-4.3050	61.0783	99.7967	
   812	-4.4880	-0.2983	-4.7863	-3.9468	 0.1921	-3.7547	-3.8130	-0.3087	-4.1217	60.9886	99.7890	
   813	-4.2062	-0.0938	-4.3000	-3.6947	 0.3876	-3.3071	-3.5381	-0.1008	-3.6389	60.9572	99.7807	
   814	-3.9264	 0.0784	-3.8480	-3.4533	 0.5229	-2.9305	-3.2859	 0.0342	-3.2517	61.0835	99.7707	
   815	-3.6593	 0.1809	-3.4785	-3.2008	 0.6115	-2.5893	-3.0423	 0.1287	-2.9136	61.1543	99.7679	
   816	-3.4081	 0.2890	-3.1191	-2.9703	 0.6866	-2.2837	-2.8162	 0.2356	-2.5807	61.1679	99.7571	
   817	-3.1644	 0.4081	-2.7563	-2.7372	 0.8034	-1.9337	-2.5570	 0.3868	-2.1702	61.1404	99.7474	
   818	-3.0107	 0.5182	-2.4926	-2.6283	 0.9642	-1.6641	-2.3904	 0.6205	-1.7699	60.6172	99.7306	
   819	-2.8083	 0.6273	-2.1811	-2.4366	 1.0956	-1.3410	-2.1725	 0.7925	-1.3800	60.4286	99.7232	
   820	-2.5720	 0.7573	-1.8148	-2.1741	 1.2306	-0.9436	-1.8894	 0.9353	-0.9541	60.5770	99.7238	
   821	-2.4130	 0.8241	-1.5889	-2.0861	 1.2848	-0.8012	-1.8323	 0.9711	-0.8612	60.4462	99.7206	
   822	-2.4523	 0.8465	-1.6058	-2.1780	 1.2817	-0.8962	-1.9562	 0.9402	-1.0160	60.3549	99.7190	
   823	-2.6092	 0.8119	-1.7973	-2.3589	 1.2105	-1.1484	-2.1815	 0.8455	-1.3360	60.3107	99.7199	
   824	-2.8116	 0.7028	-2.1088	-2.6101	 1.0289	-1.5813	-2.5206	 0.5856	-1.9350	60.5064	99.7269	
   825	-3.4940	 0.2207	-3.2733	-3.3182	 0.5392	-2.7791	-3.3233	 0.0225	-3.3007	60.4411	99.7449	
   826	-4.2782	-0.2001	-4.4783	-3.9982	 0.1604	-3.8378	-4.0186	-0.3792	-4.3978	60.4516	99.7672	
   827	-4.8484	-0.4581	-5.3065	-4.4554	-0.0409	-4.4962	-4.3939	-0.5330	-4.9269	60.4170	99.7695	
   828	-4.9236	-0.4890	-5.4126	-4.4580	-0.0826	-4.5406	-4.3800	-0.6064	-4.9864	60.8969	99.7789	
   829	-4.8854	-0.5274	-5.4129	-4.3742	-0.0980	-4.4722	-4.2725	-0.6443	-4.9169	61.2087	99.7875	
   830	-4.7678	-0.4705	-5.2383	-4.1778	-0.0038	-4.1816	-3.9950	-0.4934	-4.4884	61.3322	99.7832	
   831	-4.2569	-0.2490	-4.5060	-3.6857	 0.1923	-3.4934	-3.5331	-0.3204	-3.8535	61.5818	99.7857	
   832	-4.0779	-0.1233	-4.2011	-3.5669	 0.3994	-3.1675	-3.3268	-0.2377	-3.5645	61.8826	99.7967	
   833	-4.0016	-0.0763	-4.0779	-3.4664	 0.3140	-3.1523	-3.3309	-0.2051	-3.5360	61.6967	99.7786	
   834	-3.9602	-0.0664	-4.0266	-3.4306	 0.3227	-3.1078	-3.2992	-0.1852	-3.4844	61.6413	99.7767	
   835	-3.9443	-0.0721	-4.0164	-3.4223	 0.3412	-3.0812	-3.2795	-0.1610	-3.4405	61.5328	99.7768	
   836	-3.8521	-0.0308	-3.8829	-3.3213	 0.3766	-2.9447	-3.1802	-0.1338	-3.3140	61.6536	99.7786	
   837	-3.8552	-0.0792	-3.9345	-3.3386	 0.3258	-3.0128	-3.2205	-0.1943	-3.4148	61.6413	99.7808	
   838	-3.9135	-0.0996	-4.0132	-3.3956	 0.3175	-3.0781	-3.2570	-0.1939	-3.4509	61.5880	99.7787	
   839	-3.8966	-0.0892	-3.9858	-3.3736	 0.3311	-3.0425	-3.2380	-0.1819	-3.4199	61.5901	99.7803	
   840	-3.9210	-0.0887	-4.0097	-3.3947	 0.3314	-3.0633	-3.2500	-0.1777	-3.4276	61.5922	99.7789	
   841	-3.9040	-0.0783	-3.9823	-3.3589	 0.3401	-3.0188	-3.2063	-0.1620	-3.3683	61.6577	99.7789	
   842	-3.8128	-0.0531	-3.8660	-3.2790	 0.3759	-2.9031	-3.1310	-0.1263	-3.2573	61.6046	99.7797	
   843	-3.7122	-0.0067	-3.7188	-3.1854	 0.4068	-2.7785	-3.0500	-0.0989	-3.1489	61.6618	99.7791	
   844	-3.5987	-0.0143	-3.6130	-3.1413	 0.4340	-2.7074	-3.0175	-0.0668	-3.0844	61.3123	99.7766	
   845	-3.5224	 0.0327	-3.4898	-3.0900	 0.4656	-2.6243	-2.9668	-0.0349	-3.0017	61.3101	99.7720	
   846	-3.4577	 0.0260	-3.4317	-3.0412	 0.4555	-2.5857	-2.9127	-0.0478	-2.9605	61.3673	99.7694	
   847	-3.4598	-0.0063	-3.4661	-3.0373	 0.4043	-2.6330	-2.9220	-0.1006	-3.0226	61.4755	99.7694	
   848	-3.5330	-0.0049	-3.5378	-3.0684	 0.3584	-2.7100	-2.9552	-0.1449	-3.1000	61.7601	99.7677	
   849	-3.6018	-0.0627	-3.6646	-3.1345	 0.3177	-2.8168	-3.0003	-0.1850	-3.1853	61.7621	99.7675	
   850	-3.6527	-0.0941	-3.7468	-3.1574	 0.2902	-2.8671	-3.0264	-0.2131	-3.2395	61.8214	99.7716	
   851	-3.6633	-0.1316	-3.7948	-3.1453	 0.2575	-2.8878	-3.0159	-0.2417	-3.2576	61.8826	99.7743	
   852	-3.6410	-0.1643	-3.8053	-3.1186	 0.2338	-2.8847	-2.9752	-0.2747	-3.2500	62.0009	99.7757	
   853	-3.6431	-0.1966	-3.8397	-3.1056	 0.2150	-2.8906	-2.9823	-0.2909	-3.2732	61.9437	99.7812	
   854	-3.6536	-0.2341	-3.8878	-3.1350	 0.1969	-2.9380	-3.0021	-0.3151	-3.3171	61.8846	99.7812	
   855	-3.6716	-0.2607	-3.9323	-3.1359	 0.1830	-2.9528	-3.0147	-0.3230	-3.3378	61.8293	99.7853	
   856	-3.6472	-0.2612	-3.9084	-3.1000	 0.1917	-2.9083	-2.9655	-0.3155	-3.2810	61.8942	99.7863	
   857	-3.5910	-0.2731	-3.8641	-3.0375	 0.1767	-2.8607	-2.9233	-0.3242	-3.2475	61.8942	99.7882	
   858	-3.5910	-0.2731	-3.8641	-3.0439	 0.1861	-2.8578	-2.9170	-0.3202	-3.2372	61.8962	99.7879	
   859	-3.5815	-0.2517	-3.8333	-3.0284	 0.2091	-2.8193	-2.8972	-0.2961	-3.1933	61.9000	99.7881	
   860	-3.5635	-0.2252	-3.7887	-3.0275	 0.2230	-2.8045	-2.8965	-0.2839	-3.1804	61.8962	99.7849	
   861	-3.5466	-0.2147	-3.7613	-2.9917	 0.2317	-2.7600	-2.8536	-0.2804	-3.1339	62.0159	99.7867	
   862	-3.4978	-0.2157	-3.7135	-2.9567	 0.2265	-2.7303	-2.8289	-0.2766	-3.1056	61.9570	99.7846	
   863	-3.4903	-0.2266	-3.7170	-2.9576	 0.2125	-2.7451	-2.8304	-0.3010	-3.1314	62.0103	99.7849	
   864	-3.5243	-0.2475	-3.7718	-2.9943	 0.1899	-2.8044	-2.8797	-0.3085	-3.1882	61.8923	99.7836	
   865	-3.5486	-0.2470	-3.7957	-3.0154	 0.1903	-2.8251	-2.8923	-0.3165	-3.2088	61.9494	99.7841	
   866	-3.5137	-0.2100	-3.7237	-2.9779	 0.2268	-2.7511	-2.8289	-0.2766	-3.1056	62.0159	99.7808	
   867	-3.4130	-0.1635	-3.5765	-2.8842	 0.2577	-2.6264	-2.7592	-0.2328	-2.9920	61.9589	99.7792	
   868	-3.3526	-0.1108	-3.4634	-2.8604	 0.2992	-2.5613	-2.7387	-0.1965	-2.9351	61.8962	99.7749	
   869	-3.2573	-0.0211	-3.2784	-2.8211	 0.3635	-2.4576	-2.7111	-0.1440	-2.8551	61.8273	99.7686	
   870	-3.1990	-0.0007	-3.1997	-2.8211	 0.3635	-2.4576	-2.7421	-0.1517	-2.8938	61.6926	99.7642	
   871	-3.1979	 0.0154	-3.1825	-2.8073	 0.3586	-2.4487	-2.7230	-0.1397	-2.8628	61.7541	99.7595	
   872	-3.1492	 0.0144	-3.1347	-2.7650	 0.3579	-2.4071	-2.6809	-0.1484	-2.8293	61.8116	99.7601	
   873	-3.2106	-0.0544	-3.2650	-2.8173	 0.3124	-2.5049	-2.7267	-0.2007	-2.9274	61.8116	99.7644	
   874	-3.3822	-0.1911	-3.5733	-2.9308	 0.1889	-2.7420	-2.8446	-0.3334	-3.1779	61.9820	99.7743	
   875	-3.5592	-0.2845	-3.8437	-3.0345	 0.1116	-2.9228	-2.9221	-0.4056	-3.3277	62.1654	99.7805	
   876	-3.7404	-0.4425	-4.1829	-3.2499	-0.0613	-3.3112	-3.1836	-0.5933	-3.7769	62.0728	99.7820	
   877	-4.0286	-0.6200	-4.6486	-3.5702	-0.2184	-3.7887	-3.5455	-0.7269	-4.2724	61.5765	99.7820	
   878	-4.1517	-0.5098	-4.6615	-3.6142	-0.0179	-3.6321	-3.4256	-0.3584	-3.7840	60.9285	99.7578	
   879	-3.3740	 0.0620	-3.3120	-2.7714	 0.5950	-2.1764	-2.3581	 0.3476	-2.0104	61.2631	99.7302	
   880	-2.6522	 0.3978	-2.2544	-2.0543	 0.8894	-1.1649	-1.6194	 0.6593	-0.9600	61.6451	99.7196	
   881	-2.4965	 0.5402	-1.9563	-1.9684	 1.0227	-0.9457	-1.5627	 0.7887	-0.7740	61.3622	99.7147	
   882	-2.4638	 0.6689	-1.7949	-1.9256	 1.1428	-0.7828	-1.5251	 0.9062	-0.6190	61.3138	99.7163	
   883	-2.4501	 0.7548	-1.6953	-1.9286	 1.2078	-0.7207	-1.5588	 0.9554	-0.6034	61.2465	99.7180	
   884	-2.5434	 0.8213	-1.7221	-2.0455	 1.2563	-0.7892	-1.6790	 0.9854	-0.6935	61.1767	99.7159	
   885	-2.6548	 0.8613	-1.7935	-2.1504	 1.2720	-0.8784	-1.7999	 1.0033	-0.7966	61.1109	99.7149	
   886	-2.7036	 0.8623	-1.8413	-2.2350	 1.2734	-0.9616	-1.8864	 0.9840	-0.9024	61.0403	99.7141	
   887	-2.8022	 0.8481	-1.9541	-2.3480	 1.2707	-1.0774	-1.9771	 0.9974	-0.9797	60.8748	99.7081	
   888	-2.7980	 0.9126	-1.8854	-2.3105	 1.3072	-1.0033	-1.9566	 1.0337	-0.9229	60.9874	99.7106	
   889	-2.7874	 0.9501	-1.8373	-2.3161	 1.3305	-0.9855	-1.9678	 1.0501	-0.9177	60.9806	99.7084	
   890	-2.7928	 0.9934	-1.7994	-2.3549	 1.3869	-0.9680	-1.9944	 1.1156	-0.8788	60.7598	99.7031	
   891	-2.8268	 1.0964	-1.7304	-2.3993	 1.4666	-0.9326	-2.0090	 1.1767	-0.8323	60.8702	99.6975	
   892	-2.7983	 1.1605	-1.6377	-2.3332	 1.5073	-0.8259	-1.9217	 1.2081	-0.7135	61.1594	99.6976	
   893	-2.6488	 1.2060	-1.4428	-2.1761	 1.5372	-0.6389	-1.8168	 1.2271	-0.5897	61.2101	99.7055	
   894	-2.5990	 1.2212	-1.3778	-2.1468	 1.5553	-0.5915	-1.7978	 1.2391	-0.5587	61.1506	99.7059	
   895	-2.6170	 1.1946	-1.4224	-2.1697	 1.5278	-0.6419	-1.8359	 1.2152	-0.6207	61.0888	99.7065	
   896	-2.6445	 1.1467	-1.4978	-2.2202	 1.5101	-0.7101	-1.8795	 1.1995	-0.6800	60.9208	99.7067	
   897	-2.6540	 1.1253	-1.5287	-2.2072	 1.4913	-0.7159	-1.8739	 1.1913	-0.6826	60.9254	99.7091	
   898	-2.5819	 1.1077	-1.4742	-2.1235	 1.4759	-0.6476	-1.8254	 1.1866	-0.6388	60.8702	99.7140	
   899	-2.5437	 1.0692	-1.4745	-2.1473	 1.4345	-0.7127	-1.8951	 1.1427	-0.7524	60.6203	99.7122	
   900	-2.5914	 1.0863	-1.5051	-2.1593	 1.4672	-0.6921	-1.8634	 1.1627	-0.7008	60.8056	99.7153	
   901	-2.6073	 1.0920	-1.5153	-2.1740	 1.4582	-0.7158	-1.9120	 1.1674	-0.7446	60.6854	99.7155	
   902	-2.6158	 1.0868	-1.5290	-2.2016	 1.4680	-0.7337	-1.9612	 1.1599	-0.8014	60.5623	99.7211	
   903	-2.6762	 1.0341	-1.6421	-2.2906	 1.3998	-0.8908	-2.1078	 1.0560	-1.0518	60.5226	99.7284	
   904	-2.7970	 0.9288	-1.8682	-2.4244	 1.2905	-1.1339	-2.2805	 0.9240	-1.3564	60.4899	99.7346	
   905	-2.9612	 0.7812	-2.1800	-2.6334	 1.1083	-1.5252	-2.5449	 0.6875	-1.8574	60.5965	99.7394	
   906	-3.3024	 0.5401	-2.7622	-3.0656	 0.8554	-2.2102	-3.0444	 0.3971	-2.6473	60.2757	99.7403	
   907	-3.6606	 0.4126	-3.2480	-3.3621	 0.7397	-2.6225	-3.3141	 0.2745	-3.0396	60.3860	99.7464	
   908	-3.8058	 0.3077	-3.4980	-3.4895	 0.6210	-2.8685	-3.4487	 0.1665	-3.2823	60.4307	99.7454	
   909	-3.7942	 0.3614	-3.4328	-3.3988	 0.7170	-2.6818	-3.2936	 0.3109	-2.9827	60.4361	99.7452	
   910	-3.4795	 0.5706	-2.9088	-3.0759	 0.9160	-2.1599	-2.9414	 0.4853	-2.4562	60.7574	99.7458	
   911	-3.2971	 0.6209	-2.6763	-2.8968	 0.9594	-1.9374	-2.7415	 0.5640	-2.1775	60.7818	99.7363	
   912	-3.1202	 0.7143	-2.4058	-2.6416	 1.0898	-1.5518	-2.4218	 0.7063	-1.7155	61.0684	99.7414	
   913	-2.9209	 0.7750	-2.1459	-2.4211	 1.1186	-1.3025	-2.2621	 0.7246	-1.5375	61.2345	99.7492	
   914	-2.9526	 0.6625	-2.2901	-2.5290	 0.9718	-1.5573	-2.4089	 0.5150	-1.8939	61.4105	99.7497	
   915	-3.1486	 0.5263	-2.6223	-2.7492	 0.8361	-1.9131	-2.6428	 0.3797	-2.2631	61.2706	99.7480	
   916	-3.2799	 0.3834	-2.8965	-2.9362	 0.6674	-2.2688	-2.9438	 0.1437	-2.8001	61.1987	99.7624	
   917	-3.4199	 0.3593	-3.0606	-3.0264	 0.6922	-2.3342	-2.9528	 0.1967	-2.7561	61.1775	99.7602	
   918	-3.1496	 0.5102	-2.6395	-2.7436	 0.8128	-1.9308	-2.6514	 0.3392	-2.3122	61.3782	99.7522	
   919	-2.8645	 0.6392	-2.2254	-2.4233	 0.9700	-1.4533	-2.2275	 0.4883	-1.7393	61.8309	99.7490	
   920	-2.7139	 0.5769	-2.1370	-2.3271	 0.8151	-1.5121	-2.2979	 0.2330	-2.0649	62.2191	99.7663	
   921	-3.2193	 0.1882	-3.0311	-2.8949	 0.4252	-2.4697	-2.9261	-0.0680	-2.9941	61.4128	99.7510	
   922	-3.3179	 0.1741	-3.1438	-2.8647	 0.4572	-2.4075	-2.8298	-0.0896	-2.9194	62.0282	99.7725	
   923	-3.3274	 0.1527	-3.1747	-2.8150	 0.4610	-2.3541	-2.7228	-0.0340	-2.7568	62.0619	99.7677	
   924	-3.2098	 0.2096	-3.0002	-2.6847	 0.5145	-2.1701	-2.5799	 0.0089	-2.5710	62.2440	99.7690	
   925	-3.1313	 0.1649	-2.9663	-2.6385	 0.4626	-2.1759	-2.5716	-0.0563	-2.6279	62.2298	99.7710	
   926	-3.1938	 0.0800	-3.1138	-2.6705	 0.4028	-2.2677	-2.5753	-0.1172	-2.6925	62.3529	99.7742	
   927	-3.2446	 0.0487	-3.1960	-2.6860	 0.3798	-2.3062	-2.5521	-0.1379	-2.6900	62.5356	99.7741	
   928	-3.1704	 0.0633	-3.1071	-2.6208	 0.4066	-2.2142	-2.4809	-0.0697	-2.5506	62.3183	99.7678	
   929	-3.0475	 0.2010	-2.8466	-2.4283	 0.5520	-1.8763	-2.2273	 0.0897	-2.1375	62.5806	99.7676	
   930	-2.7116	 0.3613	-2.3503	-2.0747	 0.6761	-1.3986	-1.8978	 0.1912	-1.7066	62.9278	99.7718	
   931	-2.6193	 0.2786	-2.3406	-2.0441	 0.6012	-1.4429	-1.9220	 0.0939	-1.8281	62.7965	99.7758	
   932	-2.7655	 0.1576	-2.6078	-2.1991	 0.4924	-1.7067	-2.0503	-0.0101	-2.0604	62.7920	99.7720	
   933	-2.8258	 0.1050	-2.7209	-2.2229	 0.4510	-1.7719	-2.0701	-0.0343	-2.1043	62.7980	99.7744	
   934	-2.8438	 0.0784	-2.7655	-2.2384	 0.4280	-1.8104	-2.0588	-0.0507	-2.1095	62.8587	99.7708	
   935	-2.8015	 0.1045	-2.6970	-2.1659	 0.4593	-1.7066	-1.9701	 0.0051	-1.9650	62.8717	99.7693	
   936	-2.6245	 0.1979	-2.4266	-1.9337	 0.5622	-1.3714	-1.6821	 0.1274	-1.5546	63.1239	99.7675	
   937	-2.3574	 0.3003	-2.0570	-1.6656	 0.6738	-0.9918	-1.3933	 0.2620	-1.1313	63.1422	99.7633	
   938	-2.2503	 0.3198	-1.9305	-1.5672	 0.6675	-0.8997	-1.3104	 0.2203	-1.0902	63.4134	99.7662	
   939	-2.3636	 0.2035	-2.1602	-1.7028	 0.5304	-1.1723	-1.5021	 0.0763	-1.4258	63.3386	99.7684	
   940	-2.4951	 0.1846	-2.3106	-1.7930	 0.5552	-1.2378	-1.4948	 0.1982	-1.2965	63.0345	99.7519	
   941	-1.9250	 0.5665	-1.3585	-1.0405	 0.9652	-0.0753	-0.5912	 0.6136	 0.0223	63.9204	99.7588	
   942	-1.4310	 0.6536	-0.7774	-0.6866	 0.9825	 0.2959	-0.3318	 0.5655	 0.2337	64.1176	99.7553	
   943	-1.5040	 0.5312	-0.9729	-0.8057	 0.8823	 0.0765	-0.4467	 0.4816	 0.0349	63.8952	99.7497	
   944	-1.4585	 0.6057	-0.8528	-0.6810	 0.9591	 0.2782	-0.2762	 0.5770	 0.3008	64.1277	99.7509	
   945	-1.3186	 0.6298	-0.6888	-0.5597	 0.9803	 0.4206	-0.1180	 0.5709	 0.4529	64.4000	99.7480	
   946	-1.3207	 0.5975	-0.7231	-0.5044	 0.9608	 0.4564	-0.0583	 0.5498	 0.4915	64.5659	99.7560	
   947	-1.2465	 0.6122	-0.6342	-0.4254	 0.9827	 0.5573	-0.0019	 0.5734	 0.5715	64.5129	99.7602	
   948	-1.2549	 0.6070	-0.6479	-0.4410	 0.9597	 0.5187	 0.0022	 0.5409	 0.5431	64.6732	99.7559	
   949	-1.2804	 0.5913	-0.6890	-0.4915	 0.9420	 0.4505	-0.0836	 0.5338	 0.4502	64.4538	99.7555	
   950	-1.3345	 0.6355	-0.6990	-0.5450	 0.9894	 0.4444	-0.1172	 0.5831	 0.4658	64.4014	99.7533	
   951	-1.2752	 0.6721	-0.6031	-0.4945	 1.0071	 0.5126	-0.0560	 0.5863	 0.5303	64.5627	99.7507	
   952	-1.3143	 0.5705	-0.7438	-0.6033	 0.8463	 0.2430	-0.3014	 0.3618	 0.0603	64.5942	99.7609	
   953	-1.8250	 0.2251	-1.6000	-1.2419	 0.4530	-0.7889	-1.1072	-0.0508	-1.1580	63.9956	99.7620	
   954	-2.4482	-0.0966	-2.5448	-1.8450	 0.1752	-1.6698	-1.6318	-0.2514	-1.8832	63.6003	99.7470	
   955	-2.4366	-0.0429	-2.4795	-1.7983	 0.2440	-1.5543	-1.5325	-0.2242	-1.7567	63.9454	99.7534	
   956	-2.3836	 0.0207	-2.3629	-1.7020	 0.3167	-1.3853	-1.4457	-0.0993	-1.5449	63.7336	99.7530	
   957	-2.0689	 0.2299	-1.8390	-1.3717	 0.5202	-0.8515	-1.0148	 0.0660	-0.9488	64.3067	99.7481	
   958	-1.8675	 0.3229	-1.5446	-1.1697	 0.5911	-0.5786	-0.7909	 0.1363	-0.6546	64.5323	99.7428	
   959	-1.8791	 0.2692	-1.6099	-1.1832	 0.4891	-0.6940	-0.9266	-0.0897	-1.0162	65.0129	99.7701	
   960	-2.7553	-0.4407	-3.1960	-2.3428	-0.2252	-2.5680	-2.2606	-0.7638	-3.0244	63.5276	99.7494	
   961	-3.4369	-0.6588	-4.0957	-2.8470	-0.3886	-3.2356	-2.7113	-0.9532	-3.6644	63.8214	99.7742	
   962	-3.6351	-0.7033	-4.3384	-2.9894	-0.4094	-3.3988	-2.8076	-0.9316	-3.7392	63.7172	99.7714	
   963	-3.5218	-0.5870	-4.1088	-2.8318	-0.2588	-3.0906	-2.6170	-0.7063	-3.3234	63.4007	99.7661	
   964	-3.0090	-0.2093	-3.2183	-2.2558	 0.1496	-2.1063	-1.9568	-0.2797	-2.2365	63.6170	99.7657	
   965	-2.5861	 0.0355	-2.5506	-1.8695	 0.3474	-1.5220	-1.6132	-0.1459	-1.7591	63.9502	99.7711	
   966	-2.5712	-0.1103	-2.6814	-1.9542	 0.1213	-1.8329	-1.8250	-0.4197	-2.2446	64.0275	99.7713	
   967	-2.9537	-0.3613	-3.3150	-2.3488	-0.0951	-2.4438	-2.1801	-0.6428	-2.8229	63.9612	99.7698	
   968	-2.9547	-0.3774	-3.3322	-2.3203	-0.0909	-2.4112	-2.1245	-0.6314	-2.7558	64.0257	99.7715	
   969	-2.9219	-0.3727	-3.2946	-2.3138	-0.1003	-2.4141	-2.1308	-0.6353	-2.7662	63.9651	99.7673	
   970	-2.8265	-0.2830	-3.1095	-2.1882	-0.0095	-2.1977	-1.9842	-0.5315	-2.5157	64.0322	99.7666	
   971	-2.6475	-0.1573	-2.8047	-2.0021	 0.1453	-1.8568	-1.7396	-0.3191	-2.0587	63.8276	99.7557	
   972	-2.1272	 0.2095	-1.9177	-1.4058	 0.5394	-0.8665	-1.0357	 0.1232	-0.9125	64.0387	99.7489	
   973	-1.8759	 0.1937	-1.6822	-1.3235	 0.3893	-0.9342	-1.1963	-0.2123	-1.4086	64.4881	99.7697	
   974	-2.7437	-0.3870	-3.1307	-2.3017	-0.1330	-2.4348	-2.2252	-0.6829	-2.9081	63.4197	99.7612	
   975	-3.0649	-0.4453	-3.5102	-2.4589	-0.1629	-2.6217	-2.3196	-0.7305	-3.0501	63.8962	99.7785	
   976	-3.0893	-0.4448	-3.5341	-2.4947	-0.1716	-2.6663	-2.3632	-0.7462	-3.1094	63.8922	99.7780	
   977	-3.1063	-0.4552	-3.5615	-2.5076	-0.1528	-2.6604	-2.3364	-0.7059	-3.0423	63.7862	99.7742	
   978	-2.8997	-0.2815	-3.1812	-2.2408	 0.0518	-2.1890	-1.9825	-0.4014	-2.3838	63.5981	99.7599	
   979	-2.3147	 0.0786	-2.2362	-1.6122	 0.3988	-1.2134	-1.3210	-0.0561	-1.3772	63.9634	99.7608	
   980	-2.1324	 0.1288	-2.0036	-1.4909	 0.4200	-1.0709	-1.2662	-0.0568	-1.3230	63.8964	99.7616	
   981	-2.3030	 0.0083	-2.2947	-1.7543	 0.2712	-1.4831	-1.6254	-0.2474	-1.8728	63.6377	99.7649	
   982	-2.8381	-0.3366	-3.1748	-2.3423	-0.1045	-2.4468	-2.3013	-0.7307	-3.0320	63.8150	99.7806	
   983	-3.3956	-0.6488	-4.0444	-2.7874	-0.3385	-3.1259	-2.6669	-0.9253	-3.5922	63.7670	99.7868	
   984	-3.4210	-0.6645	-4.0855	-2.8030	-0.3615	-3.1644	-2.6986	-0.9452	-3.6438	63.7649	99.7884	
   985	-3.4464	-0.6801	-4.1265	-2.8250	-0.3750	-3.2000	-2.7295	-0.9529	-3.6825	63.7062	99.7893	
   986	-3.4539	-0.6692	-4.1231	-2.8379	-0.3562	-3.1941	-2.7161	-0.9328	-3.6489	63.7095	99.7863	
   987	-3.4104	-0.6270	-4.0374	-2.8012	-0.3336	-3.1348	-2.6725	-0.9171	-3.5896	63.8245	99.7833	
   988	-3.3532	-0.6227	-3.9759	-2.7516	-0.3298	-3.0814	-2.6303	-0.9258	-3.5561	63.8810	99.7852	
   989	-3.3288	-0.6232	-3.9520	-2.7313	-0.3441	-3.0754	-2.6366	-0.9297	-3.5664	63.8203	99.7846	
   990	-3.3617	-0.6279	-3.9896	-2.7809	-0.3479	-3.1288	-2.6739	-0.9415	-3.6154	63.8182	99.7825	
   991	-3.3945	-0.6327	-4.0272	-2.8021	-0.3475	-3.1496	-2.6922	-0.9412	-3.6335	63.8193	99.7841	
   992	-3.3945	-0.6327	-4.0272	-2.8159	-0.3427	-3.1586	-2.7042	-0.9370	-3.6412	63.7605	99.7831	
   993	-3.3701	-0.6331	-4.0033	-2.7809	-0.3479	-3.1288	-2.6859	-0.9372	-3.6231	63.7605	99.7850	
   994	-3.3542	-0.6389	-3.9931	-2.7809	-0.3479	-3.1288	-2.6922	-0.9412	-3.6335	63.7007	99.7853	
   995	-3.4040	-0.6540	-4.0581	-2.8314	-0.3656	-3.1971	-2.7422	-0.9609	-3.7031	63.6985	99.7850	
   996	-3.4623	-0.6744	-4.1368	-2.8958	-0.3785	-3.2742	-2.8168	-0.9844	-3.8012	63.6361	99.7881	
   997	-3.5545	-0.7157	-4.2702	-2.9765	-0.4282	-3.4047	-2.9176	-1.0359	-3.9535	63.6304	99.7908	
   998	-3.6817	-0.7940	-4.4757	-3.0939	-0.5006	-3.5945	-3.0451	-1.1278	-4.1729	63.6816	99.7964	
   999	-3.8502	-0.8822	-4.7324	-3.2683	-0.5812	-3.8496	-3.2388	-1.2026	-4.4413	63.4974	99.7979	
  1000	-4.0251	-0.9434	-4.9685	-3.4272	-0.6389	-4.0661	-3.3951	-1.2656	-4.6607	63.4925	99.8003	
  1001	-4.1587	-0.9946	-5.1532	-3.5493	-0.6740	-4.2234	-3.5253	-1.3005	-4.8258	63.3717	99.8044	
  1002	-4.2424	-1.0306	-5.2730	-3.6357	-0.7004	-4.3361	-3.5936	-1.3200	-4.9136	63.3131	99.8020	
  1003	-4.2583	-1.0249	-5.2832	-3.6275	-0.6820	-4.3095	-3.5682	-1.3041	-4.8723	63.3781	99.8046	
  1004	-4.2244	-1.0040	-5.2284	-3.5916	-0.6733	-4.2650	-3.5492	-1.2921	-4.8413	63.3768	99.8048	
  1005	-4.2244	-1.0040	-5.2284	-3.5981	-0.6639	-4.2620	-3.5667	-1.2797	-4.8464	63.2586	99.8062	
  1006	-4.2392	-0.9822	-5.2214	-3.6046	-0.6545	-4.2591	-3.5660	-1.2675	-4.8335	63.3184	99.8043	
  1007	-4.2308	-0.9770	-5.2077	-3.6037	-0.6406	-4.2443	-3.5653	-1.2553	-4.8206	63.2599	99.8049	
  1008	-4.1969	-0.9561	-5.1530	-3.5670	-0.6180	-4.1850	-3.5336	-1.2354	-4.7689	63.2613	99.8064	
  1009	-4.1714	-0.9404	-5.1119	-3.5588	-0.5995	-4.1583	-3.5265	-1.2192	-4.7457	63.2015	99.8054	
  1010	-4.1545	-0.9300	-5.0845	-3.5506	-0.5811	-4.1317	-3.5250	-1.1948	-4.7198	63.0846	99.8055	
  1011	-4.1609	-0.9029	-5.0638	-3.5497	-0.5672	-4.1169	-3.5243	-1.1826	-4.7069	63.1430	99.8049	
  1012	-4.1439	-0.8925	-5.0364	-3.5553	-0.5439	-4.0992	-3.5108	-1.1625	-4.6733	63.0860	99.8024	
  1013	-4.1015	-0.8664	-4.9679	-3.4910	-0.5310	-4.0220	-3.4672	-1.1468	-4.6140	63.1458	99.8052	
  1014	-4.0771	-0.8669	-4.9440	-3.4837	-0.5265	-4.0101	-3.4608	-1.1428	-4.6036	63.0860	99.8042	
  1015	-4.0761	-0.8507	-4.9268	-3.4893	-0.5032	-3.9924	-3.4594	-1.1184	-4.5778	63.0290	99.8034	
  1016	-4.0835	-0.8398	-4.9233	-3.4893	-0.5032	-3.9924	-3.4713	-1.1142	-4.5855	63.0276	99.8037	
  1017	-4.0994	-0.8341	-4.9335	-3.5022	-0.4844	-3.9866	-3.4825	-1.0978	-4.5803	62.9707	99.8058	
  1018	-4.0825	-0.8237	-4.9061	-3.4875	-0.4753	-3.9628	-3.4579	-1.0940	-4.5519	63.0305	99.8050	
  1019	-4.0740	-0.8185	-4.8925	-3.4940	-0.4659	-3.9599	-3.4698	-1.0898	-4.5596	62.9692	99.8053	
  1020	-4.0973	-0.8018	-4.8992	-3.4931	-0.4520	-3.9451	-3.4684	-1.0654	-4.5338	62.9736	99.8060	
  1021	-4.0634	-0.7809	-4.8444	-3.4702	-0.4245	-3.8947	-3.4542	-1.0331	-4.4873	62.8570	99.8061	
  1022	-4.0624	-0.7648	-4.8272	-3.4694	-0.4106	-3.8800	-3.4535	-1.0209	-4.4744	62.8570	99.8061	
  1023	-4.0529	-0.7434	-4.7963	-3.4538	-0.3876	-3.8414	-3.4162	-1.0092	-4.4253	62.9780	99.8060	
  1024	-4.0200	-0.7387	-4.7587	-3.4253	-0.3835	-3.8088	-3.4091	-0.9930	-4.4021	62.8600	99.8063	
  1025	-4.0274	-0.7278	-4.7552	-3.4318	-0.3741	-3.8059	-3.4147	-0.9848	-4.3995	62.8600	99.8063	
  1026	-4.0349	-0.7169	-4.7517	-3.4521	-0.3598	-3.8119	-3.4322	-0.9724	-4.4046	62.8002	99.8053	
  1027	-4.0508	-0.7112	-4.7619	-3.4659	-0.3549	-3.8208	-3.4442	-0.9681	-4.4123	62.8002	99.8053	
  1028	-4.0423	-0.7059	-4.7482	-3.4512	-0.3459	-3.7971	-3.4371	-0.9520	-4.3891	62.7435	99.8064	
  1029	-4.0084	-0.6851	-4.6934	-3.4218	-0.3278	-3.7496	-3.4117	-0.9360	-4.3478	62.7435	99.8064	
  1030	-3.9999	-0.6798	-4.6797	-3.4283	-0.3184	-3.7467	-3.4173	-0.9278	-4.3452	62.6836	99.8054	
  1031	-4.0158	-0.6741	-4.6900	-3.4486	-0.3041	-3.7527	-3.4293	-0.9236	-4.3529	62.6836	99.8064	
  1032	-4.0392	-0.6575	-4.6967	-3.4486	-0.3041	-3.7527	-3.4468	-0.9112	-4.3580	62.6836	99.8072	
  1033	-4.0392	-0.6575	-4.6967	-3.4689	-0.2898	-3.7587	-3.4644	-0.8987	-4.3631	62.5654	99.8068	
  1034	-4.0456	-0.6304	-4.6760	-3.4468	-0.2763	-3.7231	-3.4390	-0.8828	-4.3218	62.6868	99.8074	
  1035	-4.0042	-0.6205	-4.6247	-3.4175	-0.2582	-3.6757	-3.4137	-0.8669	-4.2805	62.6286	99.8080	
  1036	-3.9957	-0.6153	-4.6110	-3.4378	-0.2439	-3.6817	-3.4256	-0.8626	-4.2882	62.5670	99.8065	
  1037	-4.0116	-0.6096	-4.6212	-3.4580	-0.2296	-3.6877	-3.4431	-0.8502	-4.2934	62.5088	99.8070	
  1038	-4.0191	-0.5986	-4.6177	-3.4580	-0.2296	-3.6877	-3.4488	-0.8420	-4.2908	62.5088	99.8060	
  1039	-4.0424	-0.5820	-4.6244	-3.4645	-0.2202	-3.6847	-3.4719	-0.8214	-4.2933	62.4505	99.8073	
  1040	-4.0499	-0.5711	-4.6209	-3.4774	-0.2014	-3.6789	-3.4712	-0.8092	-4.2804	62.4522	99.8070	
  1041	-4.0159	-0.5502	-4.5661	-3.4407	-0.1788	-3.6196	-3.4275	-0.7935	-4.2210	62.5138	99.8078	
  1042	-3.9990	-0.5398	-4.5387	-3.4399	-0.1649	-3.6048	-3.4387	-0.7771	-4.2158	62.3939	99.8076	
  1043	-4.0149	-0.5341	-4.5490	-3.4399	-0.1649	-3.6048	-3.4443	-0.7689	-4.2132	62.3957	99.8081	
  1044	-4.0223	-0.5231	-4.5455	-3.4528	-0.1461	-3.5989	-3.4619	-0.7565	-4.2183	62.3357	99.8099	
  1045	-4.0298	-0.5122	-4.5420	-3.4593	-0.1367	-3.5960	-3.4731	-0.7400	-4.2131	62.2774	99.8094	
  1046	-4.0086	-0.4372	-4.4458	-3.3833	-0.0497	-3.4330	-3.3638	-0.6479	-4.0117	62.4164	99.8123	
  1047	-3.8772	-0.4183	-4.2954	-3.3539	-0.0316	-3.3855	-3.3433	-0.6116	-3.9549	62.0558	99.7999	
  1048	-3.8910	-0.3803	-4.2713	-3.3522	-0.0038	-3.3560	-3.3482	-0.5912	-3.9394	62.1139	99.8022	
  1049	-3.8497	-0.3703	-4.2200	-3.3246	-0.0135	-3.3381	-3.3440	-0.6238	-3.9678	62.2192	99.8043	
  1050	-3.9419	-0.4116	-4.3534	-3.3962	-0.0309	-3.4271	-3.3750	-0.6315	-4.0065	62.2301	99.8032	
  1051	-3.9154	-0.3798	-4.2952	-3.3586	 0.0056	-3.3530	-3.3426	-0.5994	-3.9420	62.2337	99.8063	
  1052	-3.8815	-0.3589	-4.2404	-3.3366	 0.0192	-3.3174	-3.3299	-0.5914	-3.9213	62.2301	99.8061	
  1053	-3.8974	-0.3532	-4.2506	-3.3431	 0.0286	-3.3145	-3.3348	-0.5710	-3.9058	62.1757	99.8058	
  1054	-3.8719	-0.3375	-4.2095	-3.3137	 0.0467	-3.2671	-3.3038	-0.5633	-3.8671	62.2355	99.8078	
  1055	-3.8285	-0.2953	-4.1238	-3.2680	 0.1016	-3.1663	-3.2318	-0.4829	-3.7147	62.1343	99.8032	
  1056	-3.7077	-0.1900	-3.8977	-3.1276	 0.2015	-2.9262	-3.0950	-0.3383	-3.4332	61.9801	99.7990	
  1057	-3.3984	 0.0625	-3.3359	-2.7986	 0.4979	-2.3007	-2.6642	 0.0262	-2.6380	61.8193	99.7857	
  1058	-2.8368	 0.4392	-2.3975	-2.2114	 0.8596	-1.3519	-2.0428	 0.4167	-1.6260	61.9883	99.7795	
  1059	-2.4520	 0.5986	-1.8534	-1.8873	 0.9656	-0.9217	-1.8092	 0.4463	-1.3629	62.2451	99.7885	
  1060	-2.7000	 0.4150	-2.2850	-2.1761	 0.7475	-1.4286	-2.1848	 0.1868	-1.9980	62.1923	99.7953	
  1061	-3.0571	 0.1796	-2.8775	-2.5927	 0.5176	-2.0751	-2.6138	-0.0476	-2.6614	61.9226	99.7909	
  1062	-3.4026	-0.0021	-3.4046	-2.9195	 0.3698	-2.5497	-2.9398	-0.1939	-3.1337	61.7340	99.7963	
  1063	-3.6558	-0.1425	-3.7983	-3.1194	 0.2199	-2.8995	-3.1464	-0.3823	-3.5288	62.0653	99.8066	
  1064	-3.8551	-0.2032	-4.0583	-3.2657	 0.2503	-3.0155	-3.1722	-0.3047	-3.4770	61.8787	99.8026	
  1065	-3.5648	 0.0066	-3.5582	-2.9437	 0.4353	-2.5084	-2.8608	-0.0973	-2.9581	61.9627	99.8017	
  1066	-3.2617	 0.1622	-3.0995	-2.6894	 0.5518	-2.1376	-2.6284	 0.0136	-2.6148	62.0197	99.7954	
  1067	-3.3146	 0.0986	-3.2161	-2.7995	 0.4839	-2.3155	-2.7742	-0.0781	-2.8523	61.8768	99.7961	
  1068	-3.3793	 0.1052	-3.2741	-2.8262	 0.5076	-2.3186	-2.7720	-0.0415	-2.8135	61.8923	99.7971	
  1069	-3.2850	 0.1788	-3.1063	-2.7226	 0.5848	-2.1378	-2.6571	 0.0424	-2.6147	61.9058	99.7965	
  1070	-3.1643	 0.2841	-2.8801	-2.6034	 0.6850	-1.9184	-2.5281	 0.1587	-2.3694	61.8624	99.7926	
  1071	-2.9333	 0.4573	-2.4759	-2.3742	 0.8530	-1.5211	-2.2539	 0.3544	-1.8995	61.8930	99.7829	
  1072	-2.5720	 0.7573	-1.8148	-1.9515	 1.1804	-0.7711	-1.7407	 0.7707	-0.9700	61.8034	99.7703	
  1073	-2.2572	 0.8426	-1.4146	-1.7620	 1.1632	-0.5988	-1.6947	 0.6237	-1.0710	62.1819	99.7797	
  1074	-2.6863	 0.5009	-2.1854	-2.2719	 0.7956	-1.4763	-2.3311	 0.1887	-2.1424	61.9801	99.7914	
  1075	-3.1674	 0.2357	-2.9317	-2.6730	 0.5886	-2.0843	-2.6974	-0.0181	-2.7155	61.9782	99.8024	
  1076	-3.3857	 0.1323	-3.2534	-2.8621	 0.4989	-2.3631	-2.8727	-0.0931	-2.9658	61.9187	99.8032	
  1077	-3.4186	 0.1276	-3.2910	-2.9108	 0.5090	-2.4018	-2.9007	-0.0520	-2.9528	61.6946	99.7965	
  1078	-3.3253	 0.1850	-3.1404	-2.8512	 0.5591	-2.2921	-2.8373	-0.0122	-2.8495	61.6926	99.7931	
  1079	-3.4112	 0.1166	-3.2945	-2.9493	 0.4586	-2.4907	-2.9917	-0.1444	-3.1361	61.7756	99.7987	
  1080	-3.6411	-0.0404	-3.6815	-3.1630	 0.3136	-2.8494	-3.2208	-0.3000	-3.5208	61.7574	99.8048	
  1081	-3.8764	-0.1543	-4.0306	-3.3512	 0.2378	-3.1134	-3.3644	-0.3551	-3.7195	61.7115	99.8060	
  1082	-3.8149	-0.0854	-3.9004	-3.2411	 0.3056	-2.9355	-3.2376	-0.2754	-3.5130	61.8494	99.8077	
  1083	-3.7079	-0.0660	-3.7739	-3.1906	 0.3233	-2.8673	-3.2137	-0.2839	-3.4976	61.7756	99.8083	
  1084	-3.7513	-0.1083	-3.8596	-3.2420	 0.2917	-2.9503	-3.2771	-0.3237	-3.6008	61.7095	99.8111	
  1085	-3.7821	-0.0807	-3.8628	-3.2394	 0.3334	-2.9059	-3.2361	-0.2511	-3.4871	61.6742	99.8077	
  1086	-3.6200	 0.0346	-3.5854	-3.0844	 0.4423	-2.6421	-3.0768	-0.1392	-3.2161	61.6865	99.8056	
  1087	-3.5786	 0.0446	-3.5341	-3.0705	 0.4374	-2.6331	-3.0895	-0.1472	-3.2367	61.6165	99.8045	
  1088	-3.5087	 0.1186	-3.3901	-2.9863	 0.5428	-2.4435	-2.9631	 0.0260	-2.9371	61.3079	99.7956	
  1089	-3.1675	 0.3596	-2.8079	-2.6340	 0.7599	-1.8742	-2.5729	 0.2243	-2.3486	61.6840	99.7927	
  1090	-3.1113	 0.3477	-2.7636	-2.6228	 0.7132	-1.9096	-2.6098	 0.1191	-2.4907	61.8807	99.7974	
  1091	-3.2819	 0.2272	-3.0547	-2.7843	 0.6138	-2.1705	-2.7612	 0.0356	-2.7256	61.7621	99.7972	
  1092	-3.3073	 0.2116	-3.0958	-2.8063	 0.6002	-2.2061	-2.8112	 0.0159	-2.7953	61.6967	99.8020	
  1093	-3.2809	 0.2434	-3.0375	-2.7688	 0.6367	-2.1320	-2.7478	 0.0558	-2.6920	61.7661	99.8003	
  1094	-3.1262	 0.3696	-2.7566	-2.6047	 0.7780	-1.8267	-2.5490	 0.2159	-2.3332	61.7369	99.7969	
  1095	-2.8422	 0.6064	-2.2359	-2.2847	 1.0420	-1.2427	-2.1399	 0.6254	-1.5146	61.3100	99.7734	
  1096	-2.1535	 1.0614	-1.0921	-1.5305	 1.4798	-0.0506	-1.2969	 1.0496	-0.2472	62.0020	99.7713	
  1097	-2.2688	 0.7889	-1.4799	-1.9437	 1.0780	-0.8657	-2.0391	 0.4777	-1.5614	61.5839	99.7852	
  1098	-2.8836	 0.5964	-2.2871	-2.3957	 0.9602	-1.4354	-2.3805	 0.3804	-2.0000	61.7329	99.7956	
  1099	-2.9620	 0.5172	-2.4448	-2.5222	 0.8555	-1.6667	-2.5539	 0.2363	-2.3176	61.7521	99.7981	
  1100	-3.0743	 0.4170	-2.6572	-2.6349	 0.7459	-1.8890	-2.6829	 0.1200	-2.5629	61.7937	99.7994	
  1101	-3.1040	 0.4607	-2.6433	-2.6059	 0.8709	-1.7350	-2.5529	 0.3542	-2.1987	61.3451	99.7887	
  1102	-2.6716	 0.7269	-1.9447	-2.1910	 1.0729	-1.1181	-2.1846	 0.4918	-1.6929	61.7997	99.7942	
  1103	-2.9767	 0.4151	-2.5616	-2.5853	 0.7498	-1.8355	-2.6576	 0.1359	-2.5216	61.5545	99.7962	
  1104	-3.1686	 0.3435	-2.8251	-2.7221	 0.7056	-2.0165	-2.7758	 0.0968	-2.6790	61.5629	99.8024	
  1105	-3.2438	 0.3127	-2.9311	-2.7873	 0.6788	-2.1084	-2.8322	 0.0731	-2.7590	61.5629	99.8024	
  1106	-3.2353	 0.3179	-2.9175	-2.7515	 0.6875	-2.0639	-2.8005	 0.0931	-2.7074	61.5713	99.8047	
  1107	-3.1686	 0.3435	-2.8251	-2.7204	 0.7335	-1.9869	-2.7419	 0.1533	-2.5886	61.4073	99.7983	
  1108	-3.0722	 0.4493	-2.6228	-2.6021	 0.8197	-1.7823	-2.6080	 0.2492	-2.3589	61.5391	99.7953	
  1109	-3.0563	 0.4436	-2.6126	-2.6241	 0.8062	-1.8179	-2.6707	 0.2215	-2.4492	61.4030	99.7970	
  1110	-3.1135	 0.4394	-2.6741	-2.6672	 0.7929	-1.8743	-2.6953	 0.2178	-2.4776	61.4648	99.7938	
  1111	-3.1570	 0.3971	-2.7598	-2.7048	 0.7564	-1.9484	-2.7348	 0.1695	-2.5654	61.5180	99.7969	
  1112	-3.1973	 0.4033	-2.7939	-2.7178	 0.7752	-1.9425	-2.7214	 0.1896	-2.5318	61.5880	99.7981	
  1113	-3.2205	 0.2960	-2.9244	-2.7744	 0.6600	-2.1143	-2.8344	 0.0366	-2.7978	61.6123	99.8052	
  1114	-3.4398	 0.1765	-3.2634	-2.9358	 0.5606	-2.3753	-2.9788	-0.0307	-3.0095	61.5629	99.8070	
  1115	-3.3339	 0.3037	-3.0302	-2.7480	 0.7432	-2.0048	-2.6912	 0.1852	-2.5060	61.6861	99.8066	
  1116	-2.8782	 0.5532	-2.3250	-2.3469	 0.9501	-1.3968	-2.2995	 0.4079	-1.8917	61.7021	99.7952	
  1117	-2.7076	 0.6737	-2.0339	-2.1910	 1.0729	-1.1181	-2.1127	 0.5722	-1.5405	61.5570	99.7847	
  1118	-2.4544	 0.8142	-1.6402	-1.9588	 1.1758	-0.7830	-1.9127	 0.6509	-1.2618	61.7240	99.7854	
  1119	-2.5243	 0.7401	-1.7841	-2.0991	 1.0760	-1.0231	-2.1488	 0.4791	-1.6697	61.6658	99.7959	
  1120	-2.8284	 0.5684	-2.2600	-2.3974	 0.9324	-1.4650	-2.4502	 0.3366	-2.1136	61.4755	99.7997	
  1121	-2.9779	 0.5229	-2.4550	-2.5122	 0.9018	-1.6104	-2.5502	 0.2972	-2.2530	61.5349	99.8046	
  1122	-3.0267	 0.5239	-2.5028	-2.5481	 0.8931	-1.6549	-2.5931	 0.2937	-2.2994	61.5328	99.8049	
  1123	-3.0044	 0.4911	-2.5133	-2.5425	 0.8698	-1.6727	-2.5890	 0.2611	-2.3279	61.5286	99.8056	
  1124	-3.0287	 0.4916	-2.5372	-2.5572	 0.8608	-1.6964	-2.6214	 0.2290	-2.3924	61.6351	99.8107	
  1125	-3.0997	 0.4014	-2.6983	-2.6478	 0.7647	-1.8831	-2.7419	 0.1533	-2.5886	61.4454	99.8084	
  1126	-3.1251	 0.3857	-2.7394	-2.6323	 0.7877	-1.8446	-2.6841	 0.2013	-2.4828	61.4160	99.8090	
  1127	-2.8656	 0.6230	-2.2426	-2.3270	 1.0427	-1.2843	-2.2880	 0.4972	-1.7908	61.5384	99.8005	
  1128	-2.4088	 0.8887	-1.5201	-1.8884	 1.2861	-0.6022	-1.8165	 0.8286	-0.9879	61.3638	99.7802	
  1129	-2.0836	 1.1355	-0.9481	-1.5352	 1.5171	-0.0181	-1.4305	 1.0595	-0.3710	61.6256	99.7780	
  1130	-1.9521	 1.1544	-0.7977	-1.4882	 1.4791	-0.0091	-1.4737	 0.9503	-0.5234	61.7436	99.7826	
  1131	-2.3007	 0.9243	-1.3765	-1.9268	 1.2357	-0.6911	-1.9739	 0.6476	-1.3263	61.5579	99.7862	
  1132	-2.6154	 0.7150	-1.9004	-2.1423	 1.0628	-1.0795	-2.1846	 0.4918	-1.6929	61.6211	99.7980	
  1133	-2.7616	 0.5940	-2.1676	-2.2688	 0.9581	-1.3107	-2.3376	 0.3839	-1.9536	61.5516	99.8053	
  1134	-2.8485	 0.5095	-2.3390	-2.3660	 0.8715	-1.4945	-2.4420	 0.2714	-2.1705	61.6495	99.8081	
  1135	-3.0191	 0.3890	-2.6301	-2.5210	 0.7626	-1.7583	-2.5942	 0.1758	-2.4184	61.5860	99.8087	
  1136	-3.0435	 0.3895	-2.6540	-2.5356	 0.7536	-1.7821	-2.6076	 0.1556	-2.4519	61.6987	99.8099	
  1137	-3.1304	 0.3050	-2.8253	-2.6310	 0.6948	-1.9363	-2.6837	 0.1078	-2.5759	61.5839	99.8082	
  1138	-3.0964	 0.3259	-2.7706	-2.5805	 0.7125	-1.8680	-2.6281	 0.1193	-2.5088	61.7048	99.8099	
  1139	-3.0392	 0.3301	-2.7091	-2.5244	 0.7069	-1.8175	-2.5740	 0.1064	-2.4676	61.8195	99.8098	
  1140	-3.0212	 0.3567	-2.6645	-2.4925	 0.7668	-1.7257	-2.4900	 0.1826	-2.3075	61.7860	99.8072	
  1141	-2.7923	 0.4976	-2.2947	-2.2814	 0.8700	-1.4113	-2.3076	 0.2738	-2.0339	61.9000	99.8061	
  1142	-2.6852	 0.5170	-2.1682	-2.2179	 0.8690	-1.3489	-2.2789	 0.2449	-2.0339	61.9399	99.8069	
  1143	-2.8494	 0.3694	-2.4800	-2.4187	 0.7051	-1.7136	-2.5276	 0.0651	-2.4625	61.8454	99.8084	
  1144	-3.0603	 0.2551	-2.8052	-2.5555	 0.6610	-1.8945	-2.5930	 0.0944	-2.4985	61.5963	99.8061	
  1145	-2.7605	 0.4862	-2.2743	-2.2188	 0.8551	-1.3637	-2.2274	 0.2890	-1.9384	61.9722	99.8026	
  1146	-2.7000	 0.4150	-2.2850	-2.2819	 0.7493	-1.5326	-2.3855	 0.0958	-2.2896	61.9667	99.8083	
  1147	-3.0571	 0.1796	-2.8775	-2.6039	 0.5643	-2.0397	-2.6862	-0.0345	-2.7207	61.6206	99.8075	
  1148	-3.0148	 0.3296	-2.6852	-2.4290	 0.7657	-1.6633	-2.3949	 0.2424	-2.1526	61.7041	99.8042	
  1149	-2.4882	 0.6694	-1.8188	-1.9757	 1.0182	-0.9575	-1.9857	 0.4526	-1.5331	61.9834	99.7977	
  1150	-2.3821	 0.6726	-1.7095	-1.9114	 1.0310	-0.8804	-1.8984	 0.4840	-1.4144	61.8758	99.7891	
  1151	-2.2698	 0.7728	-1.4971	-1.7426	 1.1350	-0.6076	-1.6947	 0.6237	-1.0710	61.9662	99.7868	
  1152	-2.1458	 0.8026	-1.3432	-1.6865	 1.1294	-0.5571	-1.7152	 0.5874	-1.1279	61.8778	99.7885	
  1153	-2.2634	 0.7457	-1.5177	-1.7884	 1.0800	-0.7083	-1.7935	 0.5030	-1.2905	62.1004	99.7932	
  1154	-2.4181	 0.6195	-1.7987	-1.9727	 0.9531	-1.0196	-2.0218	 0.3595	-1.6623	61.9570	99.7970	
  1155	-2.5686	 0.5578	-2.0108	-2.0811	 0.9131	-1.1680	-2.1084	 0.3403	-1.7681	61.9096	99.7986	
  1156	-2.5463	 0.5250	-2.0213	-2.0902	 0.8808	-1.2094	-2.1345	 0.3122	-1.8223	61.7860	99.7966	
  1157	-2.5962	 0.5099	-2.0863	-2.1139	 0.8393	-1.2746	-2.1882	 0.2316	-1.9566	62.0582	99.8051	
  1158	-2.7074	 0.4259	-2.2815	-2.2369	 0.7903	-1.4466	-2.2889	 0.1800	-2.1089	61.9418	99.8056	
  1159	-2.7922	 0.3737	-2.4185	-2.3112	 0.7312	-1.5800	-2.3840	 0.1202	-2.2638	61.9322	99.8082	
  1160	-2.9278	 0.2902	-2.6376	-2.4571	 0.6547	-1.8025	-2.5243	 0.0204	-2.5039	61.9763	99.8103	
  1161	-3.0984	 0.1697	-2.9287	-2.6121	 0.5458	-2.0663	-2.6891	-0.0832	-2.7724	61.9090	99.8134	
  1162	-3.1896	 0.1445	-3.0450	-2.6570	 0.5048	-2.1523	-2.7589	-0.1271	-2.8860	62.0206	99.8194	
  1163	-3.2764	 0.0601	-3.2164	-2.7671	 0.4369	-2.3302	-2.8491	-0.2072	-3.0564	62.0130	99.8182	
  1164	-3.3887	-0.0401	-3.4288	-2.8936	 0.3322	-2.5614	-3.0106	-0.3556	-3.3662	62.1027	99.8257	
  1165	-3.6176	-0.1810	-3.7986	-3.1074	 0.1872	-2.9202	-3.2423	-0.4543	-3.6966	61.8578	99.8223	
  1166	-3.6451	-0.2289	-3.8741	-3.1385	 0.1413	-2.9972	-3.2616	-0.5720	-3.8336	62.2558	99.8301	
  1167	-3.7808	-0.3124	-4.0932	-3.2265	 0.0870	-3.1395	-3.3116	-0.5917	-3.9033	62.2137	99.8293	
  1168	-3.6886	-0.2712	-3.9597	-3.1402	 0.1134	-3.0268	-3.2441	-0.5844	-3.8285	62.3268	99.8317	
  1169	-3.7246	-0.3243	-4.0489	-3.2071	 0.0588	-3.1483	-3.3504	-0.6278	-3.9781	62.0763	99.8312	
  1170	-3.7554	-0.2968	-4.0521	-3.2265	 0.0870	-3.1395	-3.3306	-0.6036	-3.9342	62.2027	99.8287	
  1171	-3.7384	-0.2863	-4.0247	-3.2045	 0.1006	-3.1039	-3.3101	-0.5673	-3.8774	62.0914	99.8268	
  1172	-3.6271	-0.2023	-3.8295	-3.0724	 0.1820	-2.8905	-3.1650	-0.4878	-3.6528	62.2228	99.8276	
  1173	-3.4756	-0.1245	-3.6001	-2.9412	 0.2494	-2.6917	-3.0199	-0.4084	-3.4283	62.2319	99.8214	
  1174	-3.3315	-0.0358	-3.3673	-2.7668	 0.3301	-2.4367	-2.8446	-0.3334	-3.1779	62.4198	99.8244	
  1175	-3.2318	-0.0055	-3.2373	-2.6886	 0.3381	-2.3506	-2.7826	-0.3179	-3.1005	62.4164	99.8205	
  1176	-3.2075	-0.0060	-3.2134	-2.6804	 0.3565	-2.3239	-2.7573	-0.3020	-3.0592	62.3620	99.8195	
  1177	-3.1915	-0.0117	-3.2032	-2.6813	 0.3426	-2.3387	-2.7763	-0.3139	-3.0902	62.2970	99.8186	
  1178	-3.2509	-0.0482	-3.2991	-2.7474	 0.3019	-2.4455	-2.8348	-0.3741	-3.2090	62.4061	99.8191	
  1179	-3.3282	-0.1113	-3.4395	-2.8069	 0.2518	-2.5551	-2.8975	-0.4018	-3.2993	62.2917	99.8196	
  1180	-3.2689	-0.0748	-3.3437	-2.7197	 0.2921	-2.4276	-2.7792	-0.3627	-3.1419	62.4810	99.8197	
  1181	-3.1608	-0.0392	-3.2000	-2.6196	 0.3137	-2.3059	-2.6983	-0.3352	-3.0335	62.4810	99.8187	
  1182	-3.1279	-0.0345	-3.1624	-2.5911	 0.3178	-2.2733	-2.6673	-0.3275	-2.9948	62.4827	99.8174	
  1183	-3.1194	-0.0293	-3.1487	-2.5764	 0.3269	-2.2496	-2.6427	-0.3238	-2.9664	62.5438	99.8181	
  1184	-3.1025	-0.0188	-3.1213	-2.5617	 0.3359	-2.2258	-2.6300	-0.3158	-2.9458	62.5438	99.8181	
  1185	-3.0802	-0.0516	-3.1318	-2.5359	 0.2983	-2.2376	-2.5964	-0.3650	-2.9614	62.7169	99.8185	
  1186	-3.1809	-0.0981	-3.2790	-2.6084	 0.2670	-2.3414	-2.6717	-0.4006	-3.0724	62.7169	99.8239	
  1187	-3.1533	-0.0502	-3.2035	-2.5829	 0.3363	-2.2466	-2.6356	-0.3076	-2.9432	62.4961	99.8220	
  1188	-2.8080	 0.2555	-2.5525	-2.2647	 0.5725	-1.6922	-2.2775	-0.0357	-2.3132	62.6336	99.8022	
  1189	-2.3714	 0.5862	-1.7852	-1.8584	 0.8629	-0.9955	-1.8139	 0.2674	-1.5465	62.8337	99.7861	
  1190	-2.0737	 0.7850	-1.2887	-1.6512	 1.0173	-0.6338	-1.6136	 0.4519	-1.1617	62.6069	99.7671	
  1191	-1.9052	 0.8732	-1.0319	-1.5631	 1.0716	-0.4915	-1.5797	 0.5084	-1.0713	62.3614	99.7599	
  1192	-1.9804	 0.8424	-1.1380	-1.6723	 1.0177	-0.6546	-1.7065	 0.4287	-1.2779	62.3981	99.7587	
  1193	-2.1701	 0.6792	-1.4909	-1.8739	 0.8399	-1.0340	-1.9448	 0.2203	-1.7246	62.4844	99.7641	
  1194	-2.4350	 0.4851	-1.9499	-2.1050	 0.6441	-1.4609	-2.1966	-0.0083	-2.2048	62.6964	99.7747	
  1195	-2.7359	 0.2379	-2.4980	-2.4011	 0.4215	-1.9797	-2.5102	-0.2523	-2.7625	62.6740	99.7831	
  1196	-2.9658	 0.0808	-2.8850	-2.5855	 0.2945	-2.2910	-2.6837	-0.3964	-3.0801	62.7877	99.7928	
  1197	-3.0940	-0.0136	-3.1076	-2.6956	 0.2267	-2.4689	-2.8090	-0.4517	-3.2608	62.6089	99.7979	
  1198	-3.2212	-0.0919	-3.3131	-2.7919	 0.1540	-2.6379	-2.9232	-0.5235	-3.4466	62.6040	99.8037	
  1199	-3.3473	-0.1540	-3.5013	-2.8864	 0.1091	-2.7773	-3.0049	-0.5631	-3.5679	62.6073	99.8068	
  1200	-3.4575	-0.2219	-3.6794	-2.9883	 0.0598	-2.9286	-3.1056	-0.6146	-3.7202	62.5453	99.8100	
  1201	-3.5338	-0.2689	-3.8026	-3.0544	 0.0191	-3.0353	-3.1634	-0.6627	-3.8261	62.6023	99.8118	
  1202	-3.5582	-0.2684	-3.8265	-3.0470	 0.0236	-3.0234	-3.1395	-0.6711	-3.8106	62.7846	99.8154	
  1203	-3.5518	-0.2954	-3.8472	-3.0561	-0.0088	-3.0649	-3.1600	-0.7075	-3.8675	62.7783	99.8150	
  1204	-3.6376	-0.3638	-4.0014	-3.1368	-0.0585	-3.1954	-3.2480	-0.7511	-3.9991	62.6577	99.8176	
  1205	-3.6959	-0.3842	-4.0801	-3.1809	-0.0856	-3.2665	-3.2980	-0.7708	-4.0688	62.6561	99.8178	
  1206	-3.7213	-0.3998	-4.1211	-3.2232	-0.0849	-3.3081	-3.3163	-0.7705	-4.0868	62.5990	99.8153	
  1207	-3.7627	-0.4098	-4.1724	-3.2607	-0.1215	-3.3822	-3.3614	-0.8106	-4.1721	62.7100	99.8138	
  1208	-3.7997	-0.4791	-4.2788	-3.3065	-0.1764	-3.4830	-3.4200	-0.8709	-4.2908	62.6446	99.8167	
  1209	-3.8665	-0.5047	-4.3712	-3.3570	-0.1942	-3.5512	-3.4651	-0.9109	-4.3761	62.7610	99.8216	
  1210	-3.9587	-0.5460	-4.5046	-3.4369	-0.2300	-3.6669	-3.5327	-0.9182	-4.4509	62.6463	99.8182	
  1211	-3.9746	-0.5402	-4.5148	-3.4663	-0.2481	-3.7143	-3.5707	-0.9421	-4.5128	62.6971	99.8157	
  1212	-4.0096	-0.5773	-4.5868	-3.5176	-0.2797	-3.7973	-3.6390	-0.9616	-4.6005	62.5131	99.8148	
  1213	-4.0244	-0.5554	-4.5798	-3.5306	-0.2609	-3.7915	-3.6207	-0.9618	-4.5825	62.6939	99.8137	
  1214	-4.0499	-0.5711	-4.6209	-3.5241	-0.2703	-3.7944	-3.6080	-0.9538	-4.5618	62.7020	99.8146	
  1215	-3.9926	-0.5668	-4.5594	-3.4883	-0.2616	-3.7499	-3.5834	-0.9501	-4.5335	62.6397	99.8149	
  1216	-4.0255	-0.5716	-4.5970	-3.5112	-0.2891	-3.8003	-3.6214	-0.9740	-4.5954	62.6939	99.8145	
  1217	-4.0679	-0.5977	-4.6655	-3.5755	-0.3020	-3.8774	-3.6658	-1.0019	-4.6677	62.6906	99.8134	
  1218	-4.1251	-0.6019	-4.7270	-3.6104	-0.2967	-3.9071	-3.6953	-0.9852	-4.6806	62.6364	99.8147	
  1219	-4.1357	-0.6394	-4.7751	-3.6553	-0.3378	-3.9931	-3.7404	-1.0253	-4.7658	62.5689	99.8105	
  1220	-4.1251	-0.6019	-4.7270	-3.5828	-0.3065	-3.8893	-3.6651	-0.9897	-4.6548	62.7594	99.8154	
  1221	-4.0933	-0.6133	-4.7066	-3.5690	-0.3114	-3.8804	-3.6539	-1.0061	-4.6600	62.7562	99.8162	
  1222	-4.1102	-0.6237	-4.7340	-3.5902	-0.3110	-3.9012	-3.6666	-1.0141	-4.6806	62.7562	99.8172	
  1223	-4.1346	-0.6233	-4.7579	-3.5975	-0.3155	-3.9130	-3.6785	-1.0098	-4.6884	62.7578	99.8177	
