OxySoft export of:	C:\Users\TO3 TechSupport\Documents\Train2Adapt\Post_tests\T2A_10_POST_NIRS
Export date:	2022/12/16 07:35:23
Start of measurement:	2022-12-15 00:44:35.492

Datafile sample rate:	10.00	Hz
Datafile duration:	3475.500	s
Datafile total number of samples:	34755

Description:	

Optode-template:	PortaMon TSI Fit Factor
Optode distance (mm):	 35.00
Optode gradients (mm):	 5.00
DPF:	6.58

Device id:	334
# Receivers:	1
# Light sources:	6
# ADC:	2

Light source wavelengths:
device	index	wavelength
1	1	849	nm
1	2	759	nm
1	3	846	nm
1	4	757	nm
1	5	848	nm
1	6	757	nm

Export sample rate:	10.00	Hz
Selected time span:	0	3475.500
Selected time span (sample numbers):	0	34755


Legend:
Column	Trace (Measurement)
1	(Sample number)
2	Rx1-Tx1 O2Hb (T2A_10_POST_NIRS)
3	Rx1-Tx1 HHb (T2A_10_POST_NIRS)
4	Rx1-Tx1 tHb (T2A_10_POST_NIRS)
5	Rx1-Tx2 O2Hb (T2A_10_POST_NIRS)
6	Rx1-Tx2 HHb (T2A_10_POST_NIRS)
7	Rx1-Tx2 tHb (T2A_10_POST_NIRS)
8	Rx1-Tx3 O2Hb (T2A_10_POST_NIRS)
9	Rx1-Tx3 HHb (T2A_10_POST_NIRS)
10	Rx1-Tx3 tHb (T2A_10_POST_NIRS)
11	Rx1-Tx1,Tx2,Tx3 TSI% (T2A_10_POST_NIRS)
12	Rx1-Tx1,Tx2,Tx3 TSI Fit Factor (T2A_10_POST_NIRS)
13	Rx1-Tx1,Tx2,Tx3 TSI% (T2A_67_POST_NIRS)
14	Rx1-Tx1,Tx2,Tx3 TSI Fit Factor (T2A_67_POST_NIRS)
15	(Event)


1	2	3	4	5	6	7	8	9	10	11	12	13	14	15
     0	129.0850	70.0402	199.1252	104.7400	57.9568	162.6967	87.1837	53.2885	140.4720	11.5652	98.7634	11.5652	98.7634	
     1	-0.0387	-0.0238	-0.0624	-0.0158	-0.0464	-0.0621	-0.1109	 0.0052	-0.1058	60.2732	99.8359	67.1252	99.9072	
     2	-0.0454	-0.0138	-0.0593	-0.0158	-0.0464	-0.0621	-0.1051	 0.0088	-0.0964	60.3240	99.8377	67.2683	99.9036	
     3	-0.0387	-0.0238	-0.0624	-0.0158	-0.0464	-0.0621	-0.1109	 0.0052	-0.1058	60.2732	99.8359	67.2937	99.9063	
     4	-0.0677	-0.0134	-0.0811	-0.0410	-0.0375	-0.0784	-0.1225	-0.0021	-0.1247	60.3704	99.8344	67.0933	99.9068	
     5	-0.0754	-0.0181	-0.0935	-0.0417	-0.0502	-0.0919	-0.1333	 0.0018	-0.1317	60.3218	99.8365	66.1420	99.9127	
     6	-0.0831	-0.0229	-0.1060	-0.0669	-0.0413	-0.1082	-0.1391	-0.0019	-0.1411	60.3218	99.8360	64.7310	99.9104	
     7	-0.1122	-0.0125	-0.1246	-0.0736	-0.0454	-0.1190	-0.1558	-0.0017	-0.1576	60.3704	99.8357	64.4059	99.9196	
     8	-0.0976	-0.0177	-0.1153	-0.0728	-0.0327	-0.1055	-0.1167	 0.0015	-0.1152	60.4277	99.8372	65.6993	99.9118	
     9	-0.0377	-0.0091	-0.0468	-0.0142	-0.0210	-0.0352	-0.0493	 0.0118	-0.0376	60.4826	99.8378	65.8774	99.8949	
    10	-0.0155	-0.0095	-0.0250	 0.0110	-0.0299	-0.0189	-0.0442	 0.0043	-0.0400	60.4783	99.8367	65.1723	99.9053	
    11	-0.0232	-0.0143	-0.0375	-0.0083	-0.0295	-0.0378	-0.0558	-0.0030	-0.0588	60.4762	99.8364	63.6786	99.9041	
    12	-0.0377	-0.0091	-0.0468	-0.0083	-0.0295	-0.0378	-0.0500	 0.0007	-0.0494	60.5289	99.8372	64.8097	99.9007	
    13	-0.0232	-0.0143	-0.0375	-0.0142	-0.0210	-0.0352	-0.0609	 0.0045	-0.0564	60.4277	99.8358	65.9606	99.9193	
    14	-0.0522	-0.0039	-0.0561	-0.0335	-0.0207	-0.0541	-0.0724	-0.0027	-0.0753	60.5247	99.8357	67.5039	99.9312	
    15	-0.0599	-0.0086	-0.0686	-0.0461	-0.0162	-0.0623	-0.0891	-0.0025	-0.0917	60.4740	99.8338	67.8773	99.9320	
    16	-0.0677	-0.0134	-0.0811	-0.0653	-0.0159	-0.0812	-0.0840	-0.0100	-0.0941	60.5247	99.8352	67.8194	99.9185	
    17	-0.0899	-0.0129	-0.1028	-0.0720	-0.0200	-0.0920	-0.1007	-0.0098	-0.1106	60.5247	99.8343	67.2291	99.9215	
    18	-0.1044	-0.0077	-0.1122	-0.0905	-0.0070	-0.0975	-0.1007	-0.0098	-0.1106	60.5753	99.8333	66.1870	99.9200	
    19	-0.0522	-0.0039	-0.0561	-0.0260	-0.0038	-0.0298	-0.0275	 0.0041	-0.0235	60.6342	99.8356	64.1544	99.9095	
    20	-0.0000	 0.0000	 0.0000	-0.0000	-0.0000	-0.0000	 0.0000	 0.0000	-0.0000	60.6300	99.8363	64.6411	99.9251	
    21	-0.0222	 0.0005	-0.0218	-0.0126	 0.0044	-0.0082	-0.0224	-0.0034	-0.0259	60.6280	99.8327	66.0102	99.9087	
    22	-0.0300	-0.0043	-0.0343	-0.0193	 0.0003	-0.0190	-0.0224	-0.0034	-0.0259	60.6300	99.8340	66.3150	99.8933	
    23	-0.0300	-0.0043	-0.0343	-0.0252	 0.0089	-0.0163	-0.0224	-0.0034	-0.0259	60.6300	99.8326	65.6566	99.8986	
    24	-0.0300	-0.0043	-0.0343	-0.0319	 0.0047	-0.0271	-0.0340	-0.0107	-0.0447	60.6259	99.8324	64.0778	99.9032	
    25	-0.0522	-0.0039	-0.0561	-0.0512	 0.0051	-0.0461	-0.0506	-0.0104	-0.0612	60.6259	99.8324	64.9137	99.9117	
    26	-0.0599	-0.0086	-0.0686	-0.0704	 0.0054	-0.0651	-0.0622	-0.0177	-0.0800	60.6238	99.8321	65.9614	99.9140	
    27	-0.0822	-0.0082	-0.0904	-0.0771	 0.0013	-0.0759	-0.0789	-0.0175	-0.0965	60.6238	99.8312	66.6847	99.9240	
    28	-0.0899	-0.0129	-0.1028	-0.0964	 0.0016	-0.0948	-0.0905	-0.0248	-0.1153	60.6217	99.8308	67.9840	99.9357	
    29	-0.1044	-0.0077	-0.1122	-0.0964	 0.0016	-0.0948	-0.0680	-0.0213	-0.0894	60.7269	99.8334	67.8148	99.9304	
    30	-0.0377	-0.0091	-0.0468	-0.0378	 0.0133	-0.0245	 0.0045	-0.0186	-0.0142	60.7815	99.8326	67.3770	99.9258	
    31	-0.0155	-0.0095	-0.0250	-0.0252	 0.0089	-0.0163	-0.0013	-0.0222	-0.0236	60.7269	99.8319	66.7235	99.9235	
    32	-0.0377	-0.0091	-0.0468	-0.0386	 0.0006	-0.0380	-0.0238	-0.0256	-0.0495	60.7249	99.8321	64.4955	99.9107	
    33	-0.0522	-0.0039	-0.0561	-0.0512	 0.0051	-0.0461	-0.0180	-0.0220	-0.0401	60.7774	99.8338	63.8541	99.9172	
    34	-0.0667	 0.0013	-0.0654	-0.0571	 0.0136	-0.0434	-0.0057	-0.0036	-0.0094	60.7855	99.8365	65.3795	99.9104	
    35	-0.0349	 0.0351	 0.0003	-0.0279	 0.0682	 0.0403	 0.0477	 0.0513	 0.0989	60.7494	99.8372	66.0993	99.9030	
    36	 0.0338	 0.0632	 0.0970	 0.0064	 0.1015	 0.1079	 0.1099	 0.0691	 0.1789	60.7996	99.8394	65.8319	99.9034	
    37	-0.0290	 0.0104	-0.0186	-0.0763	 0.0140	-0.0624	 0.0314	-0.0337	-0.0025	60.9750	99.8418	63.9336	99.8957	
    38	-0.2445	-0.1081	-0.3526	-0.2511	-0.1059	-0.3571	-0.1067	-0.1098	-0.2167	60.9828	99.8494	64.8670	99.9117	
    39	-0.2243	-0.0250	-0.2493	-0.1543	 0.0026	-0.1517	 0.0269	-0.0151	 0.0117	61.2077	99.8435	65.4991	99.9055	
    40	 0.0782	 0.0623	 0.1406	 0.0602	 0.0371	 0.0973	 0.1654	-0.0243	 0.1410	61.2727	99.8409	67.1778	99.9260	
    41	 0.1527	 0.0658	 0.2184	 0.0720	 0.0199	 0.0920	 0.1525	-0.0538	 0.0986	61.2039	99.8428	67.7922	99.9342	
    42	 0.1324	 0.0956	 0.2280	 0.0610	 0.0498	 0.1108	 0.1110	-0.0051	 0.1058	61.0079	99.8424	67.7639	99.9275	
    43	 0.2193	 0.1774	 0.3967	 0.1319	 0.1545	 0.2864	 0.1786	 0.1016	 0.2801	60.8218	99.8415	67.7697	99.9305	
    44	 0.4077	 0.3358	 0.7435	 0.3736	 0.3156	 0.6892	 0.4119	 0.2802	 0.6921	60.8538	99.8411	67.1515	99.9342	
    45	 0.6125	 0.5184	 1.1309	 0.6044	 0.5065	 1.1109	 0.5612	 0.4489	 1.0100	60.7135	99.8273	64.9424	99.9135	
    46	 0.2674	 0.4614	 0.7288	 0.0935	 0.3627	 0.4561	-0.0447	 0.2713	 0.2265	60.2098	99.8307	63.8830	99.9228	
    47	-0.1898	 0.2790	 0.0892	-0.4447	 0.0922	-0.3525	-0.6298	-0.0215	-0.6514	60.1120	99.8349	65.6976	99.9255	
    48	-0.5010	 0.1722	-0.3288	-0.7753	-0.0505	-0.8258	-0.9823	-0.1468	-1.1291	59.9181	99.8395	66.3232	99.9046	
    49	-0.6808	 0.1463	-0.5345	-0.9639	-0.0812	-1.0450	-1.2106	-0.1512	-1.3619	59.5398	99.8403	66.6812	99.9142	
    50	-0.9283	 0.1070	-0.8213	-1.1701	-0.0862	-1.2562	-1.3709	-0.1343	-1.5053	59.4072	99.8415	64.3562	99.8926	
    51	-1.0046	 0.0741	-0.9305	-1.1433	-0.0697	-1.2130	-1.3304	-0.1089	-1.4394	59.4998	99.8316	63.6122	99.8988	
    52	-1.0596	-0.0869	-1.1465	-1.1922	-0.2340	-1.4262	-1.4392	-0.2521	-1.6914	59.3730	99.8279	65.4135	99.9049	
    53	-1.2538	-0.2206	-1.4744	-1.3150	-0.3463	-1.6614	-1.5518	-0.3656	-1.9175	59.5315	99.8200	66.8918	99.9304	
    54	-1.5958	-0.4594	-2.0553	-1.6981	-0.6067	-2.3048	-1.9187	-0.6390	-2.5578	59.5772	99.8228	67.3760	99.9315	
    55	-1.7776	-0.5148	-2.2923	-1.7469	-0.5636	-2.3104	-1.8331	-0.5103	-2.3435	59.5337	99.8319	67.8154	99.9371	
    56	-1.5881	-0.4547	-2.0428	-1.5375	-0.5078	-2.0453	-1.6626	-0.5422	-2.2048	59.9743	99.8114	67.7934	99.9393	
    57	-1.7813	-0.6867	-2.4679	-1.7695	-0.8216	-2.5910	-1.9322	-0.8613	-2.7936	60.2104	99.8168	66.7181	99.9343	
    58	-1.7348	-0.7711	-2.5059	-1.6834	-0.9882	-2.6716	-1.7778	-1.1599	-2.9378	61.6637	99.8063	64.2662	99.9135	
    59	-1.5490	-0.8829	-2.4319	-1.4945	-1.0549	-2.5494	-1.5661	-1.1552	-2.7215	61.4909	99.8173	63.5687	99.9266	
    60	-1.4456	-0.8899	-2.3355	-1.3772	-1.0315	-2.4087	-1.4365	-1.1272	-2.5639	61.5073	99.8154	64.5788	99.9300	
    61	-1.3856	-0.8813	-2.2669	-1.3178	-1.0071	-2.3249	-1.3576	-1.1097	-2.4674	61.5663	99.8148	65.3807	99.9160	
    62	-1.3721	-0.9012	-2.2733	-1.3185	-1.0198	-2.3383	-1.3583	-1.1208	-2.4792	61.5146	99.8152	65.7405	99.9138	
    63	-1.3489	-0.8869	-2.2358	-1.3496	-1.0023	-2.3520	-1.3756	-1.1317	-2.5074	61.5037	99.8152	64.9725	99.9051	
    64	-1.4513	-0.9782	-2.4295	-1.5260	-1.1476	-2.6736	-1.5858	-1.2959	-2.8818	61.5102	99.8187	63.2809	99.8967	
    65	-1.7054	-1.1205	-2.8260	-1.7252	-1.2459	-2.9711	-1.7521	-1.3790	-3.1312	61.4689	99.8147	65.5419	99.9128	
    66	-1.7489	-1.1049	-2.8539	-1.7429	-1.2202	-2.9631	-1.7270	-1.3311	-3.0582	61.4873	99.8206	67.7944	99.9280	
    67	-1.5953	-1.0245	-2.6198	-1.5630	-1.1216	-2.6846	-1.5491	-1.2407	-2.7899	61.5555	99.8157	65.1963	99.9358	
    68	-1.4658	-0.9730	-2.4388	-1.4508	-1.0769	-2.5277	-1.4688	-1.2010	-2.6699	61.5019	99.8138	65.6675	99.9146	
    69	-1.3885	-0.9254	-2.3139	-1.3981	-1.0566	-2.4546	-1.4623	-1.1862	-2.6487	61.4370	99.8129	66.5779	99.9404	
    70	-1.3662	-0.9259	-2.2921	-1.4240	-1.0604	-2.4844	-1.5130	-1.1967	-2.7098	61.2690	99.8128	61.5203	99.8809	
    71	-1.3885	-0.9254	-2.3139	-1.4516	-1.0896	-2.5412	-1.5804	-1.2070	-2.7875	61.1543	99.8156	67.1563	99.9097	
    72	-1.4271	-0.9492	-2.3764	-1.5169	-1.1054	-2.6223	-1.6427	-1.2247	-2.8675	61.0451	99.8163	62.3570	99.8910	
    73	-1.4571	-0.9535	-2.4106	-1.5362	-1.1051	-2.6413	-1.6644	-1.2170	-2.8815	60.9965	99.8160	63.9681	99.9129	
    74	-1.4561	-0.9388	-2.3950	-1.5110	-1.1140	-2.6250	-1.6413	-1.2025	-2.8439	61.0532	99.8212	64.1044	99.9155	
    75	-1.5267	-0.9964	-2.5230	-1.5855	-1.1720	-2.7575	-1.6998	-1.2499	-2.9498	61.0512	99.8249	63.4774	99.9104	
    76	-1.5934	-0.9950	-2.5884	-1.5921	-1.1761	-2.7683	-1.6767	-1.2354	-2.9122	61.2225	99.8278	63.9099	99.9126	
    77	-1.5721	-1.0102	-2.5823	-1.5788	-1.1679	-2.7467	-1.6484	-1.2283	-2.8769	61.1780	99.8271	63.5606	99.9046	
    78	-1.5789	-1.0002	-2.5791	-1.5654	-1.1596	-2.7250	-1.6035	-1.2215	-2.8251	61.3403	99.8291	65.8361	99.9202	
    79	-1.5518	-1.0401	-2.5919	-1.5611	-1.1936	-2.7547	-1.5895	-1.2662	-2.8558	61.3868	99.8291	66.7985	99.9389	
    80	-1.6851	-1.1504	-2.8355	-1.7024	-1.2929	-2.9953	-1.6345	-1.2730	-2.9076	61.2110	99.8540	67.0821	99.9294	
    81	-1.7016	-1.0617	-2.7633	-1.5976	-1.0574	-2.6550	-1.4217	-0.8827	-2.3045	60.4816	99.8670	67.3035	99.9135	
    82	-1.6247	-0.5620	-2.1868	-1.4989	-0.5084	-2.0074	-1.2156	-0.3254	-1.5411	60.1662	99.8736	66.8357	99.9228	
    83	-1.2992	-0.2344	-1.5337	-1.2434	-0.2289	-1.4723	-0.8697	-0.0333	-0.9031	60.2981	99.8931	65.4765	99.9308	
    84	-0.8219	 0.0312	-0.7907	-0.8745	 0.0105	-0.8640	-0.5248	 0.1514	-0.3735	60.3395	99.8933	62.7327	99.9204	
    85	-0.5474	 0.1436	-0.4038	-0.5981	 0.1075	-0.4906	-0.2611	 0.1888	-0.0724	60.7298	99.8862	62.3583	99.9316	
    86	-0.4749	 0.1176	-0.3573	-0.5592	 0.0094	-0.5498	-0.3423	 0.0415	-0.3009	60.8682	99.8776	64.4128	99.9317	
    87	-0.6951	-0.0745	-0.7696	-0.8770	-0.2351	-1.1121	-0.7324	-0.2464	-0.9789	60.7890	99.8742	65.6949	99.9150	
    88	-0.9685	-0.2853	-1.2538	-1.2935	-0.5161	-1.8096	-1.2548	-0.6067	-1.8617	60.6727	99.8663	65.8300	99.9104	
    89	-1.5435	-0.5686	-2.1121	-2.0024	-0.8430	-2.8455	-2.0176	-0.8936	-2.9112	59.9047	99.8777	63.3937	99.8995	
    90	-1.7949	-0.5537	-2.3486	-2.2582	-0.8175	-3.0758	-2.2490	-0.8572	-3.1063	59.6406	99.8801	61.5852	99.8955	
    91	-2.0200	-0.7065	-2.7265	-2.4933	-0.9745	-3.4678	-2.4694	-1.0064	-3.4759	59.6167	99.8826	62.8557	99.9218	
    92	-2.1678	-0.9246	-3.0924	-2.3686	-1.1418	-3.5104	-2.3770	-1.2264	-3.6035	60.5380	99.8478	64.6970	99.9303	
    93	-2.0457	-1.2169	-3.2626	-2.2350	-1.4745	-3.7095	-2.2845	-1.6280	-3.9126	61.3784	99.8342	64.8470	99.9310	
    94	-2.1557	-1.4260	-3.5817	-2.3165	-1.6468	-3.9633	-2.3521	-1.7347	-4.0869	61.1846	99.8403	65.5724	99.9459	
    95	-2.0282	-1.2910	-3.3192	-2.0874	-1.4812	-3.5686	-2.0515	-1.5457	-3.5973	61.4503	99.8426	65.6553	99.9428	
    96	-1.7508	-1.1344	-2.8852	-1.7677	-1.3087	-3.0765	-1.7239	-1.3720	-3.0960	61.5860	99.8405	64.2462	99.9339	
    97	-1.6059	-1.0734	-2.6793	-1.6355	-1.2517	-2.8871	-1.6218	-1.3399	-2.9618	61.6327	99.8348	61.2846	99.9163	
    98	-1.7286	-1.1348	-2.8634	-1.8020	-1.3420	-3.1440	-1.8011	-1.4526	-3.2537	61.6548	99.8351	61.1102	99.9309	
    99	-1.9518	-1.2581	-3.2099	-1.9862	-1.4067	-3.3929	-1.8324	-1.4188	-3.2513	61.5019	99.8578	62.3902	99.9320	
   100	-1.8901	-1.1070	-2.9971	-1.8023	-1.2446	-3.0469	-1.7356	-1.1975	-2.9332	61.1805	99.8505	63.3641	99.9164	
   101	-1.9590	-0.7961	-2.7552	-1.9371	-0.8272	-2.7643	-1.6982	-0.6715	-2.3698	60.1677	99.8782	62.8690	99.9085	
   102	-1.6017	-0.4348	-2.0364	-1.5686	-0.4903	-2.0589	-1.1778	-0.3445	-1.5224	60.7310	99.8931	60.5044	99.9011	
   103	-1.0248	-0.1220	-1.1468	-1.0757	-0.2233	-1.2990	-0.7135	-0.1168	-0.8304	60.8822	99.8959	60.2894	99.9066	
   104	-0.7135	-0.0152	-0.7287	-0.7801	-0.1266	-0.9067	-0.4600	-0.0645	-0.5246	61.0756	99.8890	61.6201	99.9237	
   105	-0.6274	-0.0611	-0.6886	-0.7731	-0.2200	-0.9930	-0.5354	-0.2081	-0.7437	61.1230	99.8837	62.6891	99.9249	
   106	-0.8545	-0.2433	-1.0978	-1.0439	-0.4356	-1.4796	-0.8575	-0.4747	-1.3322	61.2150	99.8764	63.5341	99.9395	
   107	-1.2815	-0.5345	-1.8160	-1.6479	-0.8321	-2.4799	-1.6310	-0.9393	-2.5704	60.8638	99.8693	63.9614	99.9411	
   108	-1.6653	-0.6153	-2.2806	-2.0879	-0.8712	-2.9591	-1.9856	-0.9162	-2.9019	60.2504	99.8845	63.8169	99.9345	
   109	-1.8006	-0.6421	-2.4427	-2.3114	-0.9480	-3.2594	-2.2179	-0.9874	-3.2054	60.0486	99.8938	62.8470	99.9404	
   110	-2.0789	-0.8134	-2.8923	-2.3430	-1.0406	-3.3836	-2.2355	-1.0947	-3.3303	60.5672	99.8699	59.9915	99.9191	
   111	-1.9472	-1.0715	-3.0187	-2.0936	-1.3752	-3.4689	-2.0732	-1.5380	-3.6114	61.9186	99.8432	58.9089	99.9307	
   112	-1.9759	-1.4001	-3.3760	-2.1178	-1.6586	-3.7764	-2.0758	-1.7642	-3.8401	61.8742	99.8489	59.8591	99.9310	
   113	-1.9807	-1.3607	-3.3414	-2.0276	-1.5542	-3.5819	-1.9054	-1.6144	-3.5199	61.8759	99.8517	59.9863	99.9165	
   114	-1.7228	-1.1595	-2.8823	-1.7383	-1.3516	-3.0898	-1.5990	-1.4218	-3.0208	62.0546	99.8510	61.0647	99.9172	
   115	-1.5836	-1.0738	-2.6575	-1.5918	-1.2736	-2.8654	-1.4673	-1.3605	-2.8279	62.1594	99.8477	61.2381	99.9139	
   116	-1.6919	-1.1405	-2.8323	-1.7316	-1.3475	-3.0790	-1.6221	-1.4363	-3.0585	62.0418	99.8481	61.6345	99.9110	
   117	-1.9141	-1.2490	-3.1632	-1.9626	-1.4410	-3.4036	-1.7806	-1.4825	-3.2632	61.8977	99.8612	62.4395	99.9025	
   118	-1.9035	-1.2001	-3.1037	-1.7508	-1.3471	-3.0980	-1.4942	-1.3453	-2.8396	62.3115	99.8585	62.7906	99.8989	
   119	-1.6911	-0.8997	-2.5909	-1.6657	-1.0139	-2.6796	-1.4564	-0.9045	-2.3610	60.9859	99.8769	63.0173	99.9027	
   120	-1.5348	-0.5491	-2.0839	-1.5564	-0.6049	-2.1613	-1.1454	-0.4524	-1.5979	60.7713	99.8983	62.9321	99.8993	
   121	-1.0759	-0.2242	-1.3001	-1.1793	-0.3359	-1.5152	-0.7498	-0.2573	-1.0071	61.1629	99.9005	62.8067	99.8982	
   122	-0.7869	-0.1169	-0.9038	-0.9088	-0.2304	-1.1392	-0.5103	-0.1603	-0.6706	61.1704	99.8989	62.6190	99.8944	
   123	-0.7193	-0.1035	-0.8228	-0.8191	-0.2361	-1.0552	-0.4572	-0.2017	-0.6590	61.4052	99.8919	62.3853	99.8913	
   124	-0.7627	-0.2009	-0.9636	-0.9392	-0.4078	-1.3470	-0.6823	-0.4287	-1.1111	61.4873	99.8861	62.3775	99.8913	
   125	-1.2101	-0.4622	-1.6723	-1.5199	-0.7411	-2.2610	-1.3786	-0.8128	-2.1915	61.1780	99.8812	58.8770	99.8740	
   126	-1.5011	-0.4859	-1.9870	-1.8477	-0.7355	-2.5832	-1.6484	-0.7685	-2.4171	60.7230	99.8903	58.3852	99.8924	
   127	-1.5610	-0.4945	-2.0555	-2.0134	-0.8132	-2.8267	-1.8597	-0.8585	-2.7183	60.5627	99.8968	58.9067	99.9017	
   128	-1.8112	-0.6910	-2.5022	-2.1379	-0.9509	-3.0888	-1.9872	-1.0349	-3.0221	60.8785	99.8771	58.8372	99.9013	
   129	-1.9230	-1.0425	-2.9655	-2.1381	-1.3660	-3.5041	-2.0899	-1.5378	-3.6278	61.9084	99.8514	58.5152	99.8995	
   130	-2.0232	-1.4434	-3.4666	-2.1863	-1.7252	-3.9116	-2.0972	-1.8418	-3.9391	62.1264	99.8554	58.4281	99.8966	
   131	-2.0503	-1.4035	-3.4539	-2.0879	-1.5914	-3.6792	-1.8785	-1.6295	-3.5082	62.0450	99.8624	58.2281	99.8938	
   132	-1.7382	-1.1690	-2.9073	-1.7575	-1.3513	-3.1088	-1.5156	-1.4229	-2.9385	62.3228	99.8600	58.4107	99.8901	
   133	-1.5933	-1.1080	-2.7013	-1.6186	-1.2901	-2.9086	-1.3788	-1.3690	-2.7479	62.3785	99.8595	59.2158	99.8894	
   134	-1.7247	-1.1889	-2.9136	-1.7265	-1.3687	-3.0952	-1.4996	-1.4342	-2.9339	62.3243	99.8582	60.3958	99.8918	
   135	-1.9451	-1.2681	-3.2131	-1.9374	-1.4499	-3.3873	-1.6999	-1.5280	-3.2281	62.3639	99.8558	61.1563	99.8897	
   136	-2.1364	-1.3576	-3.4940	-2.1358	-1.5355	-3.6713	-1.8540	-1.5928	-3.4469	62.3125	99.8627	61.1326	99.9005	
   137	-2.1934	-1.4351	-3.6284	-2.1390	-1.5863	-3.7253	-1.7860	-1.5714	-3.3575	62.2924	99.8744	61.1259	99.9037	
   138	-2.0766	-1.2360	-3.3125	-1.9421	-1.3185	-3.2606	-1.5491	-1.2407	-2.7899	61.9490	99.8771	61.1869	99.9042	
   139	-1.7725	-0.7802	-2.5526	-1.7911	-0.8593	-2.6504	-1.4535	-0.7636	-2.2172	60.9606	99.8853	61.0674	99.9010	
   140	-1.7050	-0.5408	-2.2458	-1.7418	-0.5848	-2.3266	-1.1774	-0.4298	-1.6072	60.9906	99.9094	61.0621	99.8978	
   141	-1.1813	-0.2466	-1.4279	-1.3083	-0.3422	-1.6506	-0.7869	-0.2271	-1.0141	61.0832	99.9114	61.0088	99.8964	
   142	-0.8653	-0.0662	-0.9315	-0.9167	-0.1497	-1.0664	-0.4338	-0.0908	-0.5246	61.4460	99.8976	60.8176	99.8934	
   143	-0.8740	-0.0857	-0.9597	-0.9332	-0.2088	-1.1420	-0.4936	-0.1605	-0.6542	61.5230	99.8967	60.6292	99.8912	
   144	-1.0459	-0.2198	-1.2658	-1.1974	-0.4203	-1.6177	-0.8690	-0.4819	-1.3511	61.7331	99.8834	60.5748	99.8908	
   145	-1.4905	-0.4370	-1.9274	-1.7658	-0.6607	-2.4265	-1.4654	-0.6856	-2.1511	61.0750	99.8936	60.4772	99.8906	
   146	-1.5833	-0.3811	-1.9644	-1.9236	-0.6114	-2.5350	-1.6077	-0.6467	-2.2545	60.8571	99.8973	60.4283	99.8883	
   147	-1.7563	-0.5299	-2.2862	-2.1921	-0.7890	-2.9811	-1.9359	-0.8316	-2.7676	60.5410	99.8984	60.3974	99.8856	
   148	-1.9996	-0.8493	-2.8490	-2.2623	-1.0886	-3.3509	-2.0902	-1.1744	-3.2647	61.0877	99.8720	60.3894	99.8847	
   149	-2.0070	-1.1931	-3.2001	-2.1747	-1.4374	-3.6121	-1.9361	-1.5695	-3.5057	62.2167	99.8645	60.1158	99.8820	
   150	-2.0377	-1.4382	-3.4759	-2.1639	-1.6748	-3.8386	-1.9424	-1.7659	-3.7084	62.3194	99.8654	59.6781	99.8820	
   151	-2.0997	-1.3633	-3.4629	-2.1350	-1.5228	-3.6578	-1.7918	-1.5750	-3.3669	62.3214	99.8696	59.5460	99.8800	
   152	-1.8794	-1.1711	-3.0505	-1.9102	-1.3233	-3.2335	-1.5469	-1.3891	-2.9361	62.3901	99.8694	58.8845	99.8752	
   153	-1.8021	-1.1235	-2.9256	-1.8425	-1.2693	-3.1118	-1.4660	-1.3382	-2.8043	62.3959	99.8704	58.8182	99.8740	
   154	-1.9094	-1.1754	-3.0848	-1.9614	-1.3182	-3.2795	-1.5687	-1.3814	-2.9502	62.3420	99.8726	58.6322	99.8723	
   155	-2.0621	-1.2412	-3.3032	-2.1338	-1.4000	-3.5338	-1.7422	-1.4904	-3.2327	62.4240	99.8704	58.1670	99.8711	
   156	-2.2553	-1.3601	-3.6155	-2.3421	-1.5405	-3.8825	-1.9445	-1.6176	-3.5622	62.4096	99.8752	57.5614	99.8747	
   157	-2.3635	-1.4268	-3.7903	-2.3716	-1.4976	-3.8692	-1.8549	-1.4222	-3.2772	61.8281	99.8926	57.2137	99.8801	
   158	-2.1348	-0.9891	-3.1240	-2.1269	-0.9807	-3.1076	-1.5929	-0.8620	-2.4550	61.0992	99.8936	56.6926	99.8788	
   159	-1.8104	-0.5632	-2.3736	-1.9196	-0.5479	-2.4676	-1.3588	-0.3941	-1.7529	60.4428	99.9071	55.8908	99.8760	
   160	-1.4675	-0.1967	-1.6642	-1.5865	-0.1596	-1.7461	-0.8908	-0.0144	-0.9054	60.6585	99.9151	56.2734	99.8813	
   161	-1.1100	 0.0517	-1.0583	-1.2452	 0.0507	-1.1945	-0.5953	 0.1820	-0.4134	60.7143	99.9154	55.9304	99.8844	
   162	-0.9120	 0.2442	-0.6677	-0.9011	 0.2016	-0.6996	-0.3160	 0.2933	-0.0227	61.2624	99.9036	55.8934	99.8883	
   163	-1.0038	 0.2019	-0.8019	-1.0350	 0.1191	-0.9159	-0.5044	 0.1215	-0.3830	61.5027	99.8928	55.7590	99.8904	
   164	-1.3990	-0.0556	-1.4546	-1.6684	-0.2345	-1.9029	-1.2905	-0.2763	-1.5668	60.8732	99.8941	55.6624	99.8900	
   165	-1.7673	-0.1268	-1.8941	-2.1092	-0.2863	-2.3955	-1.6491	-0.3199	-1.9691	60.5575	99.9023	56.1155	99.8936	
   166	-1.7924	-0.1705	-1.9629	-2.2875	-0.3596	-2.6471	-1.8981	-0.3908	-2.2891	59.9879	99.9072	56.2761	99.8871	
   167	-2.0928	-0.4544	-2.5472	-2.5289	-0.6181	-3.1470	-2.2113	-0.6945	-2.9060	60.0953	99.8890	56.1265	99.8846	
   168	-2.3960	-0.8955	-3.2914	-2.6956	-1.1236	-3.8192	-2.4348	-1.2627	-3.6976	61.1694	99.8715	55.4837	99.8822	
   169	-2.4178	-1.3471	-3.7648	-2.6069	-1.5572	-4.1641	-2.2518	-1.6396	-3.8915	61.9686	99.8791	55.4741	99.8871	
   170	-2.3927	-1.3034	-3.6960	-2.4624	-1.4071	-3.8695	-2.0158	-1.4164	-3.4323	61.7881	99.8812	55.4287	99.8844	
   171	-2.1512	-1.0134	-3.1646	-2.1943	-1.1321	-3.3263	-1.7240	-1.1903	-2.9144	62.1080	99.8771	55.3764	99.8889	
   172	-2.2140	-1.0662	-3.2802	-2.2604	-1.1606	-3.4210	-1.7440	-1.2456	-2.9898	62.2592	99.8745	55.2495	99.8875	
   173	-2.3271	-1.0934	-3.4205	-2.3777	-1.1840	-3.5617	-1.8594	-1.2219	-3.0814	61.9630	99.8813	55.4510	99.8895	
   174	-2.4170	-1.1063	-3.5234	-2.4816	-1.1992	-3.6808	-1.9550	-1.2392	-3.1944	61.9071	99.8824	55.3475	99.8880	
   175	-2.5292	-1.1188	-3.6480	-2.5855	-1.2144	-3.7999	-2.0500	-1.2454	-3.2955	61.8560	99.8840	55.2459	99.8855	
   176	-2.5737	-1.1179	-3.6916	-2.6233	-1.2011	-3.8243	-2.0762	-1.2191	-3.2954	61.7621	99.8852	55.4891	99.8887	
   177	-2.6027	-1.1075	-3.7102	-2.6418	-1.1881	-3.8298	-2.1082	-1.1965	-3.3048	61.6633	99.8847	55.3184	99.8876	
   178	-2.6539	-1.0967	-3.7506	-2.6862	-1.1788	-3.8651	-2.1409	-1.1849	-3.3259	61.6651	99.8857	55.2941	99.8842	
   179	-2.6984	-1.0958	-3.7942	-2.7508	-1.1820	-3.9327	-2.2031	-1.2026	-3.4059	61.6564	99.8851	55.5315	99.8877	
   180	-2.7516	-1.1144	-3.8659	-2.8244	-1.2273	-4.0517	-2.3188	-1.2753	-3.5942	61.6818	99.8810	55.6126	99.8862	
   181	-2.7602	-1.1339	-3.8941	-2.8720	-1.2689	-4.1409	-2.3939	-1.3226	-3.7166	61.6127	99.8821	55.4416	99.8870	
   182	-2.8202	-1.1425	-3.9627	-2.9441	-1.2888	-4.2329	-2.4562	-1.3403	-3.7966	61.6074	99.8848	55.4952	99.8860	
   183	-2.8569	-1.1368	-3.9938	-2.9441	-1.2888	-4.2329	-2.4613	-1.3328	-3.7942	61.6627	99.8839	55.5875	99.8875	
   184	-2.8560	-1.1221	-3.9781	-2.9433	-1.2762	-4.2194	-2.4498	-1.3255	-3.7754	61.7144	99.8843	55.9546	99.8888	
   185	-2.8627	-1.1122	-3.9749	-2.9559	-1.2717	-4.2276	-2.4715	-1.3178	-3.7895	61.6609	99.8849	56.4120	99.8884	
   186	-2.8918	-1.1018	-3.9935	-2.9936	-1.2584	-4.2520	-2.5093	-1.2988	-3.8082	61.5591	99.8858	56.6628	99.8871	
   187	-2.9131	-1.0866	-3.9996	-3.0188	-1.2495	-4.2683	-2.5420	-1.2873	-3.8294	61.5055	99.8864	56.9294	99.8878	
   188	-2.9488	-1.0662	-4.0151	-3.0440	-1.2406	-4.2846	-2.5747	-1.2757	-3.8505	61.5037	99.8867	57.0101	99.8925	
   189	-2.9779	-1.0558	-4.0337	-3.0877	-1.2186	-4.3063	-2.6067	-1.2531	-3.8599	61.4035	99.8874	57.2460	99.8917	
   190	-2.9769	-1.0411	-4.0180	-3.0928	-1.1974	-4.2902	-2.6053	-1.2308	-3.8363	61.3554	99.8878	57.4514	99.8943	
   191	-2.9682	-1.0216	-3.9898	-3.0727	-1.1850	-4.2577	-2.5822	-1.2163	-3.7986	61.4091	99.8885	57.5601	99.8935	
   192	-2.9750	-1.0117	-3.9867	-3.0719	-1.1723	-4.2442	-2.5924	-1.2013	-3.7939	61.3591	99.8873	57.4563	99.8924	
   193	-2.9895	-1.0065	-3.9960	-3.1030	-1.1548	-4.2578	-2.6302	-1.1823	-3.8126	61.2052	99.8867	57.4654	99.8917	
   194	-3.0253	-0.9861	-4.0114	-3.1467	-1.1329	-4.2796	-2.6622	-1.1597	-3.8220	61.1552	99.8880	57.4946	99.8937	
   195	-3.0466	-0.9709	-4.0175	-3.1718	-1.1240	-4.2959	-2.6949	-1.1481	-3.8431	61.1012	99.8886	57.4471	99.8909	
   196	-3.0756	-0.9605	-4.0361	-3.2155	-1.1021	-4.3176	-2.7327	-1.1291	-3.8619	60.9990	99.8883	57.5390	99.8900	
   197	-3.1037	-0.9354	-4.0391	-3.2399	-1.0805	-4.3204	-2.7422	-1.1030	-3.8453	61.0031	99.8903	57.1043	99.8910	
   198	-3.0950	-0.9159	-4.0109	-3.2257	-1.0596	-4.2853	-2.7416	-1.0919	-3.8335	61.0011	99.8874	56.4735	99.8857	
   199	-3.0940	-0.9012	-3.9952	-3.2249	-1.0469	-4.2718	-2.7678	-1.0656	-3.8335	60.8467	99.8874	55.2895	99.8840	
   200	-3.1153	-0.8860	-4.0013	-3.2560	-1.0294	-4.2854	-2.8113	-1.0502	-3.8616	60.7401	99.8864	54.7919	99.8868	
   201	-3.1366	-0.8709	-4.0075	-3.2871	-1.0120	-4.2990	-2.8382	-1.0350	-3.8734	60.6878	99.8867	55.0654	99.8904	
   202	-3.1511	-0.8656	-4.0168	-3.3182	-0.9945	-4.3127	-2.8811	-1.0085	-3.8898	60.4826	99.8868	55.0217	99.8936	
   203	-3.1869	-0.8453	-4.0322	-3.3434	-0.9856	-4.3289	-2.9189	-0.9895	-3.9085	60.4301	99.8877	54.8228	99.8911	
   204	-3.2082	-0.8301	-4.0383	-3.3803	-0.9595	-4.3399	-2.9400	-0.9707	-3.9108	60.3799	99.8878	54.8658	99.8914	
   205	-3.2072	-0.8154	-4.0226	-3.3728	-0.9427	-4.3156	-2.9278	-0.9523	-3.8802	60.3845	99.8879	55.2118	99.8897	
   206	-3.2063	-0.8007	-4.0070	-3.3595	-0.9345	-4.2939	-2.9322	-0.9337	-3.8660	60.3343	99.8879	55.3542	99.8978	
   207	-3.2198	-0.7807	-4.0006	-3.3779	-0.9215	-4.2994	-2.9591	-0.9185	-3.8777	60.2795	99.8885	54.6594	99.8904	
   208	-3.2344	-0.7755	-4.0099	-3.4216	-0.8995	-4.3212	-2.9911	-0.8959	-3.8871	60.1264	99.8895	54.6562	99.8824	
   209	-3.2701	-0.7552	-4.0253	-3.4401	-0.8865	-4.3266	-3.0180	-0.8807	-3.8988	60.1264	99.8889	55.1567	99.8837	
   210	-3.2914	-0.7400	-4.0314	-3.4712	-0.8691	-4.3402	-3.0609	-0.8542	-3.9152	59.9708	99.8895	55.2369	99.8830	
   211	-3.3127	-0.7248	-4.0376	-3.5023	-0.8516	-4.3539	-3.0878	-0.8390	-3.9269	59.9181	99.8898	55.2795	99.8835	
   212	-3.3263	-0.7049	-4.0312	-3.5133	-0.8217	-4.3350	-3.0858	-0.8056	-3.8915	59.8752	99.8904	55.3124	99.8827	
   213	-3.3031	-0.6906	-3.9937	-3.4865	-0.8053	-4.2918	-3.0678	-0.7836	-3.8515	59.8275	99.8901	55.5342	99.8811	
   214	-3.3089	-0.6660	-3.9749	-3.4983	-0.7881	-4.2864	-3.0831	-0.7612	-3.8444	59.7748	99.8917	55.6229	99.8832	
   215	-3.3157	-0.6560	-3.9717	-3.5160	-0.7624	-4.2784	-3.0984	-0.7387	-3.8373	59.6743	99.8905	55.6042	99.8825	
   216	-3.3437	-0.6309	-3.9746	-3.5404	-0.7408	-4.2812	-3.1247	-0.7124	-3.8372	59.6241	99.8912	55.5596	99.8822	
   217	-3.3573	-0.6109	-3.9683	-3.5522	-0.7237	-4.2759	-3.1400	-0.6900	-3.8301	59.5739	99.8919	55.6153	99.8839	
   218	-3.3709	-0.5910	-3.9619	-3.5825	-0.6935	-4.2760	-3.1553	-0.6676	-3.8230	59.5237	99.8919	55.4923	99.8810	
   219	-3.3767	-0.5663	-3.9430	-3.5876	-0.6722	-4.2598	-3.1642	-0.6304	-3.7947	59.4259	99.8942	55.7043	99.8809	
   220	-3.3458	-0.5473	-3.8931	-3.5474	-0.6475	-4.1949	-3.1019	-0.6126	-3.7147	59.5394	99.8941	56.6596	99.8881	
   221	-3.3148	-0.5283	-3.8431	-3.5207	-0.6310	-4.1517	-3.0948	-0.5868	-3.6817	59.4365	99.8944	53.6288	99.8814	
   222	-3.3284	-0.5083	-3.8367	-3.5450	-0.6094	-4.1545	-3.1050	-0.5718	-3.6769	59.4365	99.8950	54.7193	99.9040	
   223	-3.3352	-0.4984	-3.8336	-3.5694	-0.5878	-4.1573	-3.1261	-0.5530	-3.6792	59.3336	99.8947	54.6430	99.9077	
   224	-3.3565	-0.4832	-3.8397	-3.5879	-0.5748	-4.1627	-3.1530	-0.5378	-3.6909	59.2808	99.8944	54.6058	99.8987	
   225	-3.3777	-0.4681	-3.8458	-3.6131	-0.5659	-4.1790	-3.1908	-0.5188	-3.7097	59.1750	99.8956	54.6664	99.9036	
   226	-3.3923	-0.4629	-3.8551	-3.6442	-0.5484	-4.1926	-3.2177	-0.5036	-3.7214	59.0718	99.8953	54.6867	99.9008	
   227	-3.4058	-0.4429	-3.8487	-3.6367	-0.5316	-4.1683	-3.1946	-0.4891	-3.6837	59.1833	99.8955	54.8447	99.9088	
   228	-3.3758	-0.4386	-3.8145	-3.6107	-0.5278	-4.1385	-3.1772	-0.4782	-3.6555	59.1331	99.8961	54.6911	99.9023	
   229	-3.3826	-0.4286	-3.8113	-3.6166	-0.5193	-4.1359	-3.2092	-0.4555	-3.6648	58.9771	99.8961	55.2186	99.9155	
   230	-3.3971	-0.4234	-3.8206	-3.6418	-0.5104	-4.1522	-3.2310	-0.4478	-3.6789	58.9241	99.8964	52.2883	99.8632	
   231	-3.4184	-0.4083	-3.8267	-3.6670	-0.5015	-4.1684	-3.2528	-0.4401	-3.6930	58.9212	99.8973	54.3886	99.9012	
   232	-3.4329	-0.4031	-3.8360	-3.6922	-0.4926	-4.1847	-3.2855	-0.4286	-3.7141	58.8150	99.8973	54.5308	99.9245	
   233	-3.4619	-0.3927	-3.8546	-3.7107	-0.4795	-4.1902	-3.3073	-0.4209	-3.7282	58.8150	99.8955	53.1889	99.8931	
   234	-3.4687	-0.3827	-3.8514	-3.7225	-0.4624	-4.1849	-3.2950	-0.4025	-3.6976	58.8238	99.8971	53.8533	99.9280	
   235	-3.4310	-0.3736	-3.8047	-3.6831	-0.4504	-4.1334	-3.2501	-0.3956	-3.6459	58.8797	99.8966	54.0219	99.9067	
   236	-3.4233	-0.3689	-3.7922	-3.6764	-0.4462	-4.1226	-3.2603	-0.3807	-3.6411	58.7765	99.8969	53.3197	99.9005	
   237	-3.4301	-0.3589	-3.7890	-3.6890	-0.4418	-4.1308	-3.2763	-0.3694	-3.6458	58.7234	99.8984	53.6657	99.9011	
   238	-3.4446	-0.3537	-3.7983	-3.7075	-0.4288	-4.1362	-3.2872	-0.3655	-3.6528	58.7234	99.8972	53.7346	99.9042	
   239	-3.4446	-0.3537	-3.7983	-3.7327	-0.4199	-4.1525	-3.3090	-0.3578	-3.6669	58.6171	99.8978	53.4558	99.9034	
   240	-3.4659	-0.3385	-3.8044	-3.7453	-0.4154	-4.1607	-3.3308	-0.3501	-3.6810	58.6142	99.8980	53.3104	99.9055	
   241	-3.4804	-0.3333	-3.8137	-3.7578	-0.4110	-4.1688	-3.3468	-0.3388	-3.6857	58.5639	99.8987	53.3457	99.9044	
   242	-3.4649	-0.3238	-3.7887	-3.7252	-0.4030	-4.1282	-3.3070	-0.3245	-3.6316	58.6261	99.8994	52.5909	99.8944	
   243	-3.4349	-0.3195	-3.7544	-3.6925	-0.3951	-4.0876	-3.2788	-0.3174	-3.5963	58.6291	99.8986	52.4689	99.8714	
   244	-3.4272	-0.3148	-3.7420	-3.6984	-0.3866	-4.0850	-3.2839	-0.3099	-3.5939	58.5760	99.8989	53.0241	99.8981	
   245	-3.4417	-0.3095	-3.7513	-3.7236	-0.3777	-4.1012	-3.3057	-0.3022	-3.6080	58.5228	99.8991	53.2263	99.9124	
   246	-3.4417	-0.3095	-3.7513	-3.7295	-0.3691	-4.0986	-3.3108	-0.2947	-3.6056	58.4727	99.8986	50.7829	99.8839	
   247	-3.4485	-0.2996	-3.7481	-3.7421	-0.3646	-4.1067	-3.3268	-0.2834	-3.6103	58.4194	99.9001	52.7978	99.9217	
   248	-3.4630	-0.2944	-3.7574	-3.7547	-0.3602	-4.1149	-3.3486	-0.2757	-3.6244	58.3662	99.8998	52.4510	99.9045	
   249	-3.4553	-0.2896	-3.7449	-3.7413	-0.3519	-4.0932	-3.3203	-0.2687	-3.5891	58.4256	99.9002	52.4979	99.9105	
   250	-3.4253	-0.2853	-3.7106	-3.6960	-0.3485	-4.0445	-3.2863	-0.2580	-3.5444	58.4317	99.8997	51.5206	99.9100	
   251	-3.4108	-0.2905	-3.7013	-3.6960	-0.3485	-4.0445	-3.2863	-0.2580	-3.5444	58.3785	99.9000	51.7156	99.9084	
   252	-3.4253	-0.2853	-3.7106	-3.7086	-0.3440	-4.0526	-3.2972	-0.2541	-3.5514	58.3785	99.9000	51.6666	99.9039	
   253	-3.4253	-0.2853	-3.7106	-3.7086	-0.3440	-4.0526	-3.2914	-0.2505	-3.5420	58.3816	99.9009	51.3905	99.9063	
   254	-3.3953	-0.2810	-3.6763	-3.6685	-0.3193	-3.9877	-3.2213	-0.1958	-3.4172	58.3125	99.9049	50.6213	99.8959	
   255	-3.3866	-0.2615	-3.6482	-3.6149	-0.2863	-3.9012	-3.1288	-0.1376	-3.2666	58.4052	99.9078	51.2866	99.9047	
   256	-3.4012	-0.2563	-3.6575	-3.6066	-0.2568	-3.8634	-3.0986	-0.0972	-3.1959	58.3800	99.9076	50.4857	99.9012	
   257	-3.4002	-0.2416	-3.6418	-3.6110	-0.2228	-3.8338	-3.0697	-0.0791	-3.1488	58.4415	99.9066	51.0014	99.9104	
   258	-3.4138	-0.2217	-3.6354	-3.6169	-0.2143	-3.8311	-3.0908	-0.0603	-3.1511	58.3891	99.9074	50.7986	99.9116	
   259	-3.4582	-0.2208	-3.6790	-3.6806	-0.2047	-3.8853	-3.1626	-0.0519	-3.2146	58.2286	99.9068	50.6873	99.9130	
   260	-3.5095	-0.2099	-3.7194	-3.7444	-0.1952	-3.9395	-3.2177	-0.0438	-3.2616	58.1729	99.9079	50.4639	99.9128	
   261	-3.5540	-0.2090	-3.7630	-3.8014	-0.1815	-3.9829	-3.2780	-0.0282	-3.3062	58.0180	99.9073	50.5198	99.9163	
   262	-3.6052	-0.1982	-3.8034	-3.8585	-0.1678	-4.0263	-3.3331	-0.0201	-3.3533	57.9621	99.9067	50.5755	99.9176	
   263	-3.6497	-0.1973	-3.8470	-3.9096	-0.1627	-4.0723	-3.3991	-0.0081	-3.4073	57.8036	99.9064	50.3920	99.9164	
   264	-3.7077	-0.1765	-3.8842	-3.9474	-0.1494	-4.0968	-3.4093	 0.0069	-3.4026	57.9158	99.9082	50.2755	99.9155	
   265	-3.6923	-0.1670	-3.8592	-3.9273	-0.1370	-4.0643	-3.3862	 0.0214	-3.3649	57.9222	99.9083	50.2150	99.9164	
   266	-3.6990	-0.1570	-3.8561	-3.9391	-0.1199	-4.0590	-3.4073	 0.0402	-3.3672	57.8200	99.9075	50.0148	99.9163	
   267	-3.7281	-0.1466	-3.8747	-3.9828	-0.0979	-4.0807	-3.4400	 0.0518	-3.3883	57.7672	99.9066	49.8139	99.9167	
   268	-3.7639	-0.1262	-3.8901	-4.0139	-0.0805	-4.0943	-3.4829	 0.0783	-3.4047	57.6648	99.9069	49.8198	99.9154	
   269	-3.7996	-0.1059	-3.9055	-4.0575	-0.0586	-4.1161	-3.5207	 0.0973	-3.4235	57.6119	99.9072	49.8023	99.9171	
   270	-3.8432	-0.0903	-3.9334	-4.1079	-0.0408	-4.1487	-3.5642	 0.1127	-3.4516	57.5589	99.9074	49.6099	99.9155	
   271	-3.8867	-0.0746	-3.9613	-4.1583	-0.0230	-4.1812	-3.6129	 0.1356	-3.4775	57.4563	99.9083	49.5027	99.9130	
   272	-3.8857	-0.0599	-3.9457	-4.1508	-0.0062	-4.1569	-3.5898	 0.1501	-3.4398	57.5161	99.9086	49.3386	99.9107	
   273	-3.8848	-0.0452	-3.9300	-4.1492	 0.0192	-4.1300	-3.5884	 0.1723	-3.4162	57.4700	99.9073	49.3108	99.9083	
   274	-3.9061	-0.0300	-3.9361	-4.1803	 0.0367	-4.1436	-3.6262	 0.1914	-3.4350	57.3641	99.9073	49.7237	99.9029	
   275	-3.9419	-0.0097	-3.9515	-4.2181	 0.0501	-4.1680	-3.6698	 0.2068	-3.4631	57.3076	99.9078	49.7484	99.9139	
   276	-3.9786	-0.0040	-3.9826	-4.2558	 0.0634	-4.1924	-3.7025	 0.2183	-3.4843	57.2580	99.9073	49.5142	99.9097	
   277	-4.0144	 0.0163	-3.9981	-4.2995	 0.0853	-4.2142	-3.7403	 0.2373	-3.5030	57.2049	99.9075	49.3291	99.9047	
   278	-4.0434	 0.0268	-4.0167	-4.3373	 0.0987	-4.2386	-3.7889	 0.2602	-3.5288	57.0489	99.9081	49.2850	99.9033	
   279	-4.0647	 0.0419	-4.0228	-4.3550	 0.1244	-4.2306	-3.7876	 0.2824	-3.5053	57.0596	99.9080	49.5113	99.9024	
   280	-4.0483	 0.0662	-3.9821	-4.3089	 0.1405	-4.1684	-3.7529	 0.3042	-3.4488	57.1199	99.9073	49.4992	99.9045	
   281	-4.0328	 0.0757	-3.9572	-4.3207	 0.1577	-4.1630	-3.7631	 0.3192	-3.4440	57.0137	99.9078	49.5021	99.9019	
   282	-4.0686	 0.0960	-3.9726	-4.3518	 0.1752	-4.1766	-3.7900	 0.3344	-3.4557	57.0137	99.9078	49.3929	99.9015	
   283	-4.0831	 0.1012	-3.9819	-4.3829	 0.1926	-4.1903	-3.8169	 0.3496	-3.4675	56.9109	99.9075	49.2959	99.9029	
   284	-4.1189	 0.1216	-3.9973	-4.4081	 0.2015	-4.2065	-3.8496	 0.3611	-3.4886	56.9073	99.9078	49.3868	99.9023	
   285	-4.1479	 0.1320	-4.0159	-4.4517	 0.2234	-4.2283	-3.8874	 0.3801	-3.5073	56.8044	99.9075	49.1802	99.9027	
   286	-4.1770	 0.1424	-4.0345	-4.4895	 0.2368	-4.2527	-3.9258	 0.3880	-3.5379	56.7474	99.9069	49.1409	99.9044	
   287	-4.2205	 0.1580	-4.0624	-4.5021	 0.2412	-4.2609	-3.9252	 0.3992	-3.5261	56.8614	99.9081	49.0169	99.9026	
   288	-4.1760	 0.1572	-4.0189	-4.4568	 0.2447	-4.2121	-3.8802	 0.4060	-3.4744	56.8687	99.9082	48.7822	99.9035	
   289	-4.1606	 0.1667	-3.9939	-4.4309	 0.2485	-4.1824	-3.8796	 0.4171	-3.4626	56.8155	99.9074	49.0508	99.9047	
   290	-4.1528	 0.1714	-3.9814	-4.4368	 0.2571	-4.1797	-3.8956	 0.4284	-3.4672	56.7090	99.9074	49.0588	99.9058	
   291	-4.1664	 0.1914	-3.9750	-4.4427	 0.2656	-4.1770	-3.9065	 0.4323	-3.4743	56.7548	99.9071	48.9839	99.9008	
   292	-4.1586	 0.1961	-3.9625	-4.4486	 0.2742	-4.1743	-3.9167	 0.4472	-3.4695	56.6519	99.9079	49.1864	99.8968	
   293	-4.1654	 0.2061	-3.9594	-4.4486	 0.2742	-4.1743	-3.9225	 0.4436	-3.4790	56.6978	99.9076	49.3868	99.8960	
   294	-4.1722	 0.2160	-3.9562	-4.4545	 0.2828	-4.1717	-3.9494	 0.4588	-3.4907	56.5910	99.9070	49.7710	99.8994	
   295	-4.1867	 0.2212	-3.9655	-4.4670	 0.2872	-4.1798	-3.9551	 0.4552	-3.5001	56.6406	99.9064	50.2533	99.9032	
   296	-4.1712	 0.2308	-3.9405	-4.4285	 0.2866	-4.1419	-3.9153	 0.4695	-3.4460	56.7052	99.9083	50.4172	99.9066	
   297	-4.0968	 0.2342	-3.8626	-4.3388	 0.2808	-4.0579	-3.8486	 0.4686	-3.3801	56.7585	99.9075	50.4394	99.9077	
   298	-4.0224	 0.2376	-3.7848	-4.2943	 0.2716	-4.0227	-3.8211	 0.4646	-3.3566	56.6941	99.9096	50.1874	99.9077	
   299	-4.0011	 0.2224	-3.7786	-4.3144	 0.2592	-4.0551	-3.8616	 0.4391	-3.4225	56.5645	99.9081	49.9825	99.9049	
   300	-4.0388	 0.2134	-3.8254	-4.3620	 0.2177	-4.1443	-3.9925	 0.3889	-3.6037	56.4031	99.9041	50.0458	99.9039	
   301	-4.0687	 0.2091	-3.8597	-4.4340	 0.1977	-4.2363	-4.0837	 0.3530	-3.7308	56.3098	99.9039	49.6114	99.9007	
   302	-4.0697	 0.1943	-3.8754	-4.4356	 0.1723	-4.2633	-4.1344	 0.3425	-3.7920	56.1347	99.9032	49.1678	99.8961	
   303	-4.0697	 0.1943	-3.8754	-4.4112	 0.1507	-4.2605	-4.1569	 0.3391	-3.8179	56.0721	99.9027	48.8940	99.8952	
   304	-4.0774	 0.1896	-3.8879	-4.3927	 0.1377	-4.2550	-4.1742	 0.3282	-3.8461	56.0640	99.8995	48.9107	99.8931	
   305	-4.0561	 0.1744	-3.8817	-4.3558	 0.1117	-4.2441	-4.1531	 0.3094	-3.8438	56.1145	99.8994	49.7708	99.9098	
   306	-3.9817	 0.1778	-3.8039	-4.3038	 0.1193	-4.1845	-4.0922	 0.3049	-3.7874	56.1651	99.8994	49.8778	99.8902	
   307	-3.9382	 0.1622	-3.7759	-4.2727	 0.1018	-4.1709	-4.0820	 0.2899	-3.7921	56.1024	99.8990	50.1661	99.9031	
   308	-3.9314	 0.1523	-3.7791	-4.2735	 0.0891	-4.1844	-4.0877	 0.2863	-3.8015	56.0477	99.9004	50.4442	99.9077	
   309	-3.9169	 0.1471	-3.7698	-4.2609	 0.0847	-4.1763	-4.0660	 0.2786	-3.7875	56.1024	99.9008	49.8856	99.9038	
   310	-3.9092	 0.1518	-3.7573	-4.2350	 0.0885	-4.1465	-4.0435	 0.2820	-3.7616	56.1611	99.8996	49.6156	99.9059	
   311	-3.8946	 0.1466	-3.7480	-4.2224	 0.0840	-4.1384	-4.0435	 0.2820	-3.7616	56.1065	99.8993	49.2709	99.9109	
   312	-3.8801	 0.1414	-3.7387	-4.2291	 0.0799	-4.1492	-4.0384	 0.2745	-3.7639	56.1024	99.9008	48.5952	99.9113	
   313	-3.8946	 0.1466	-3.7480	-4.2291	 0.0799	-4.1492	-4.0493	 0.2784	-3.7710	56.1024	99.9001	48.8562	99.9202	
   314	-3.8724	 0.1462	-3.7262	-4.2031	 0.0837	-4.1194	-4.0153	 0.2891	-3.7263	56.1145	99.9012	48.6996	99.9265	
   315	-3.7835	 0.1444	-3.6391	-4.1193	 0.0865	-4.0327	-3.9261	 0.2916	-3.6346	56.1771	99.9016	48.9926	99.9272	
   316	-3.7235	 0.1530	-3.5705	-4.0799	 0.0985	-3.9813	-3.8870	 0.2948	-3.5922	56.1731	99.9013	48.8795	99.9274	
   317	-3.7158	 0.1578	-3.5580	-4.0606	 0.0982	-3.9624	-3.8754	 0.3021	-3.5734	56.1771	99.9016	48.9325	99.9280	
   318	-3.7003	 0.1673	-3.5330	-4.0405	 0.1106	-3.9299	-3.8523	 0.3166	-3.5357	56.1852	99.9017	48.7308	99.9290	
   319	-3.6781	 0.1669	-3.5112	-4.0279	 0.1061	-3.9218	-3.8414	 0.3128	-3.5287	56.1812	99.9025	48.9742	99.9312	
   320	-3.7399	 0.1288	-3.6111	-4.1024	 0.0481	-4.0543	-3.9281	 0.2583	-3.6699	56.1530	99.9042	49.0862	99.9363	
   321	-3.9526	 0.0544	-3.8981	-4.2606	-0.0128	-4.2734	-3.9621	 0.2476	-3.7146	56.3797	99.9155	49.0643	99.9368	
   322	-4.0821	 0.0030	-4.0791	-4.3401	-0.0495	-4.3897	-3.9866	 0.2108	-3.7759	56.6150	99.9155	49.6877	99.9357	
   323	-4.1575	-0.0152	-4.1727	-4.3602	-0.0619	-4.4221	-3.9635	 0.2254	-3.7382	56.7600	99.9186	50.5208	99.9337	
   324	-3.9903	 0.0453	-3.9449	-4.1114	 0.0059	-4.1055	-3.6535	 0.2918	-3.3618	57.2928	99.9187	50.5477	99.9223	
   325	-3.7515	 0.0651	-3.6863	-3.8607	 0.0017	-3.8591	-3.4452	 0.2409	-3.2044	57.6814	99.9119	50.5694	99.9131	
   326	-3.7389	 0.0305	-3.7084	-3.9705	-0.0050	-3.9755	-3.6555	 0.2585	-3.3972	56.7563	99.9112	51.0503	99.9161	
   327	-3.7911	 0.0266	-3.7644	-3.9772	-0.0091	-3.9863	-3.5868	 0.2910	-3.2960	56.9641	99.9188	51.3537	99.9262	
   328	-3.5205	 0.1932	-3.3273	-3.5202	 0.1992	-3.3210	-2.9527	 0.4756	-2.4771	58.1349	99.9170	48.9963	99.9010	
   329	-3.3775	 0.2247	-3.1527	-3.3754	 0.2518	-3.1235	-2.8261	 0.5444	-2.2818	58.0082	99.9163	51.0846	99.8949	
   330	-3.3456	 0.2585	-3.0871	-3.3285	 0.2807	-3.0478	-2.7857	 0.5699	-2.2159	58.0627	99.9153	51.9285	99.9118	
   331	-3.3678	 0.2589	-3.1089	-3.3687	 0.2560	-3.1127	-2.8884	 0.5267	-2.3618	57.9706	99.9114	51.8696	99.9042	
   332	-3.4800	 0.2464	-3.2335	-3.5103	 0.2541	-3.2562	-3.0449	 0.5139	-2.5311	57.7471	99.9093	52.0371	99.9254	
   333	-3.5273	 0.2031	-3.3241	-3.4891	 0.1818	-3.3074	-2.9958	 0.4057	-2.5902	58.3445	99.9056	51.8146	99.9234	
   334	-3.5185	 0.1096	-3.4089	-3.5364	 0.0428	-3.4937	-3.1302	 0.2999	-2.8304	58.0385	99.9098	52.5382	99.9221	
   335	-3.6693	 0.0733	-3.5960	-3.7501	 0.0210	-3.7292	-3.3643	 0.2918	-3.0726	57.5533	99.9116	52.7857	99.9171	
   336	-3.8955	 0.0189	-3.8766	-3.9997	-0.0595	-4.0592	-3.6147	 0.1986	-3.4161	57.5059	99.9126	52.7026	99.9229	
   337	-4.1013	-0.0654	-4.1668	-4.1898	-0.1156	-4.3054	-3.7334	 0.1668	-3.5667	57.4802	99.9171	52.6886	99.9225	
   338	-3.9032	 0.0141	-3.8891	-3.8757	-0.0320	-3.9077	-3.3547	 0.2657	-3.0891	58.0730	99.9183	53.2812	99.9267	
   339	-3.6026	 0.0720	-3.5306	-3.5774	 0.0053	-3.5720	-3.0635	 0.2991	-2.7645	58.3385	99.9197	50.1556	99.8652	
   340	-3.5117	 0.0997	-3.4121	-3.5289	 0.0596	-3.4694	-3.0512	 0.3174	-2.7339	58.1707	99.9129	51.5673	99.8747	
   341	-3.5881	 0.0668	-3.5213	-3.6159	 0.0060	-3.6100	-3.1251	 0.2924	-2.8327	58.1156	99.9192	51.5066	99.8991	
   342	-3.2227	 0.2069	-3.0159	-2.9712	 0.2323	-2.7389	-2.2841	 0.5857	-1.6985	59.1261	99.9219	52.0498	99.9106	
   343	-2.5298	 0.4780	-2.0518	-2.3977	 0.4514	-1.9463	-1.8983	 0.7105	-1.1879	59.0654	99.9090	51.8576	99.9102	
   344	-2.7474	 0.5561	-2.1913	-2.8049	 0.6277	-2.1772	-2.3423	 1.0944	-1.2480	56.7959	99.9315	51.7420	99.8869	
   345	-2.5247	 1.2444	-1.2803	-2.6014	 1.4121	-1.1893	-2.1192	 1.7479	-0.3714	56.4319	99.9129	53.7260	99.9105	
   346	-2.2949	 1.5837	-0.7112	-2.4096	 1.7012	-0.7084	-1.9517	 2.0349	 0.0832	56.2969	99.9178	53.5652	99.9007	
   347	-2.2640	 1.6028	-0.6612	-2.4741	 1.6980	-0.7761	-2.0517	 2.0362	-0.0156	55.9508	99.9219	54.2415	99.9021	
   348	-2.1839	 1.6945	-0.4893	-2.3029	 1.8646	-0.4383	-1.8371	 2.1818	 0.3446	56.1410	99.9128	54.6498	99.9079	
   349	-2.1936	 1.7733	-0.4203	-2.2954	 1.8814	-0.4140	-1.8758	 2.0933	 0.2174	56.6515	99.9007	54.7118	99.9061	
   350	-2.2872	 1.5885	-0.6987	-2.3624	 1.6326	-0.7298	-1.9760	 1.8165	-0.1596	57.1240	99.8980	55.2401	99.9091	
   351	-2.2745	 1.4408	-0.8336	-2.3385	 1.5009	-0.8376	-1.9365	 1.7344	-0.2022	57.0967	99.9035	51.4499	99.8729	
   352	-2.1720	 1.4191	-0.7528	-2.2814	 1.4872	-0.7942	-1.8493	 1.7036	-0.1458	57.1923	99.9052	53.1229	99.8947	
   353	-2.2744	 1.3278	-0.9465	-2.4251	 1.3498	-1.0753	-2.0370	 1.5429	-0.4943	57.2168	99.9044	53.5369	99.9041	
   354	-2.4667	 1.2236	-1.2431	-2.6109	 1.2598	-1.3511	-2.1751	 1.4668	-0.7085	57.2202	99.9076	52.4176	99.9098	
   355	-2.4957	 1.2340	-1.2617	-2.6227	 1.2769	-1.3458	-2.1745	 1.4779	-0.6967	57.2785	99.9063	53.5931	99.8863	
   356	-2.5257	 1.2297	-1.2960	-2.6495	 1.2604	-1.3891	-2.2143	 1.4636	-0.7508	57.2684	99.9064	54.8796	99.9319	
   357	-2.7652	 0.9691	-1.7961	-2.9594	 0.9353	-2.0241	-2.5938	 1.0754	-1.5185	57.4242	99.9009	54.8401	99.9165	
   358	-3.1479	 0.7901	-2.3578	-3.2440	 0.8088	-2.4352	-2.8612	 1.0677	-1.7936	56.9326	99.9072	54.8570	99.9068	
   359	-2.9123	 1.1047	-1.8075	-2.9250	 1.1761	-1.7489	-2.5144	 1.4674	-1.0471	56.8119	99.9060	55.3192	99.9064	
   360	-2.3172	 1.5842	-0.7330	-2.2738	 1.7116	-0.5622	-1.8209	 1.9887	 0.1677	56.9622	99.9022	55.8928	99.9128	
   361	-1.9413	 1.7732	-0.1680	-1.9156	 1.8834	-0.0322	-1.5430	 2.0779	 0.5348	57.1815	99.8885	55.7451	99.9201	
   362	-2.0388	 1.6425	-0.3963	-2.1164	 1.7597	-0.3566	-1.8665	 1.9708	 0.1042	56.4060	99.8851	52.6983	99.8608	
   363	-2.3413	 1.5552	-0.7861	-2.4733	 1.7107	-0.7626	-2.2405	 1.9497	-0.2909	55.7287	99.8862	54.6386	99.8848	
   364	-2.5318	 1.5934	-0.9384	-2.6067	 1.7384	-0.8684	-2.3501	 1.9770	-0.3732	55.8406	99.8856	54.4773	99.8862	
   365	-2.4642	 1.6068	-0.8574	-2.5733	 1.7590	-0.8143	-2.3110	 1.9802	-0.3308	55.8327	99.8850	54.3910	99.8847	
   366	-2.4864	 1.6072	-0.8792	-2.5741	 1.7463	-0.8278	-2.3283	 1.9693	-0.3591	55.8768	99.8839	54.4885	99.9010	
   367	-2.4564	 1.6115	-0.8449	-2.5540	 1.7587	-0.7953	-2.2943	 1.9800	-0.3144	55.8847	99.8847	54.4614	99.8991	
   368	-2.4564	 1.6115	-0.8449	-2.5674	 1.7504	-0.8170	-2.3392	 1.9732	-0.3661	55.7648	99.8837	55.0490	99.9109	
   369	-2.5154	 1.6176	-0.8978	-2.6193	 1.7428	-0.8765	-2.4124	 1.9593	-0.4532	55.7449	99.8818	56.1317	99.8880	
   370	-2.5754	 1.6090	-0.9664	-2.7032	 1.7400	-0.9632	-2.5022	 1.9456	-0.5567	55.6242	99.8803	56.7219	99.8884	
   371	-2.6566	 1.6155	-1.0410	-2.7803	 1.7413	-1.0390	-2.5798	 1.9503	-0.6296	55.5678	99.8809	57.3934	99.8900	
   372	-2.7011	 1.6164	-1.0846	-2.8382	 1.7423	-1.0959	-2.6465	 1.9512	-0.6954	55.4546	99.8807	57.9806	99.8972	
   373	-2.7523	 1.6273	-1.1250	-2.8700	 1.7471	-1.1230	-2.6683	 1.9589	-0.7095	55.5112	99.8814	58.4038	99.8927	
   374	-2.7387	 1.6074	-1.1314	-2.8456	 1.7255	-1.1202	-2.6587	 1.9328	-0.7260	55.5555	99.8790	55.3634	99.8514	
   375	-2.7629	 1.5784	-1.1845	-2.8791	 1.7049	-1.1742	-2.6992	 1.9074	-0.7919	55.4948	99.8773	56.6220	99.8602	
   376	-2.8074	 1.5792	-1.2281	-2.9244	 1.7014	-1.2230	-2.7434	 1.9116	-0.8319	55.4422	99.8788	57.1999	99.8992	
   377	-2.8364	 1.5896	-1.2467	-2.9429	 1.7144	-1.2284	-2.7703	 1.9268	-0.8436	55.3937	99.8775	55.4546	99.8813	
   378	-2.8509	 1.5949	-1.2560	-2.9739	 1.7319	-1.2421	-2.7921	 1.9345	-0.8577	55.3410	99.8767	57.6081	99.9101	
   379	-2.8722	 1.6100	-1.2622	-2.9991	 1.7408	-1.2583	-2.8190	 1.9497	-0.8694	55.2883	99.8782	56.6632	99.8538	
   380	-2.8867	 1.6152	-1.2715	-2.9983	 1.7535	-1.2449	-2.8068	 1.9681	-0.8388	55.3051	99.8785	56.0580	99.8739	
   381	-2.8239	 1.6680	-1.1559	-2.9054	 1.7985	-1.1069	-2.7040	 2.0112	-0.6929	55.4793	99.8784	57.7817	99.8917	
   382	-2.7485	 1.6862	-1.0623	-2.8460	 1.8229	-1.0231	-2.6462	 2.0476	-0.5987	55.3909	99.8805	58.3355	99.8937	
   383	-2.7089	 1.7247	-0.9842	-2.8117	 1.8562	-0.9555	-2.6102	 2.0916	-0.5186	55.3509	99.8832	59.0432	99.8916	
   384	-2.6780	 1.7437	-0.9343	-2.8034	 1.8857	-0.9177	-2.5921	 2.1136	-0.4786	55.3026	99.8834	59.4423	99.9052	
   385	-2.6993	 1.7589	-0.9404	-2.8286	 1.8946	-0.9340	-2.6197	 2.1177	-0.5021	55.2943	99.8832	57.5518	99.8822	
   386	-2.7669	 1.7455	-1.0214	-2.9066	 1.8832	-1.0233	-2.7146	 2.1115	-0.6032	55.1283	99.8827	57.6453	99.8920	
   387	-2.8278	 1.7221	-1.1057	-2.9727	 1.8547	-1.1180	-2.7731	 2.0640	-0.7092	55.2082	99.8812	56.2629	99.8768	
   388	-2.8606	 1.6737	-1.1870	-2.9684	 1.8207	-1.1476	-2.7752	 2.0307	-0.7446	55.2692	99.8771	57.0255	99.8728	
   389	-2.8162	 1.6728	-1.1434	-2.9239	 1.8115	-1.1124	-2.7527	 2.0341	-0.7187	55.2166	99.8779	57.0703	99.8608	
   390	-2.8084	 1.6775	-1.1309	-2.9113	 1.8071	-1.1043	-2.7425	 2.0192	-0.7234	55.3093	99.8768	58.1023	99.9098	
   391	-2.8248	 1.6533	-1.1716	-2.9574	 1.7909	-1.1665	-2.7881	 2.0012	-0.7870	55.1955	99.8774	57.8355	99.9074	
   392	-2.8925	 1.6399	-1.2526	-2.9975	 1.7662	-1.2314	-2.8337	 1.9833	-0.8505	55.2440	99.8772	58.8372	99.9115	
   393	-2.9379	 1.6261	-1.3119	-3.0495	 1.7586	-1.2909	-2.8843	 1.9728	-0.9117	55.1871	99.8765	59.3132	99.8890	
   394	-2.9834	 1.6122	-1.3711	-3.0770	 1.7294	-1.3477	-2.9248	 1.9473	-0.9776	55.2272	99.8762	59.3521	99.8864	
   395	-2.9843	 1.5975	-1.3868	-3.0460	 1.7119	-1.3341	-2.8761	 1.9245	-0.9518	55.4422	99.8753	59.4611	99.8792	
   396	-2.9379	 1.6261	-1.3119	-2.9924	 1.7449	-1.2475	-2.8139	 1.9422	-0.8718	55.5515	99.8732	58.5636	99.8738	
   397	-2.8780	 1.6347	-1.2433	-2.9220	 1.7395	-1.1825	-2.7472	 1.9413	-0.8059	55.6564	99.8745	57.4496	99.8909	
   398	-2.7253	 1.7004	-1.0249	-2.7027	 1.8501	-0.8526	-2.4152	 2.0965	-0.3188	55.9392	99.8833	58.9204	99.8954	
   399	-2.6122	 1.7277	-0.8846	-2.6571	 1.7562	-0.9009	-2.4293	 1.8631	-0.5663	56.6810	99.8734	58.7188	99.9026	
   400	-3.3018	 0.9356	-2.3661	-3.5903	 0.8273	-2.7630	-3.4754	 0.9384	-2.5370	56.2871	99.8871	58.8829	99.9119	
   401	-4.0186	 0.2965	-3.7221	-4.1633	 0.2059	-3.9574	-3.9967	 0.5039	-3.4929	56.1104	99.9045	59.7702	99.9175	
   402	-4.1627	 0.3632	-3.7994	-4.1632	 0.4134	-3.7497	-3.8023	 0.7758	-3.0266	56.1786	99.9084	60.1539	99.9262	
   403	-3.8243	 0.4302	-3.3942	-3.8774	 0.4552	-3.4222	-3.5201	 0.7499	-2.7703	56.6083	99.9051	60.1607	99.9239	
   404	-3.7343	 0.3301	-3.4042	-3.8267	 0.3400	-3.4868	-3.4577	 0.5859	-2.8719	56.9723	99.9028	59.7510	99.9231	
   405	-3.8066	 0.1301	-3.6765	-3.9055	 0.1083	-3.7972	-3.5770	 0.3613	-3.2158	57.0704	99.9031	59.2884	99.9150	
   406	-3.9119	-0.0054	-3.9173	-4.0040	-0.0256	-4.0296	-3.6504	 0.2510	-3.3995	57.1199	99.9071	59.3104	99.9099	
   407	-3.5016	 0.6006	-2.9010	-3.6438	 1.0019	-2.6418	-2.8478	 1.2900	-1.5578	56.3006	99.9091	59.4254	99.9078	
   408	-3.4595	 0.1035	-3.3560	-3.9594	 0.1728	-3.7867	-3.5414	 0.4906	-3.0509	55.6725	99.9288	59.7470	99.9108	
   409	-3.8560	 0.1704	-3.6856	-3.9303	 0.2273	-3.7029	-3.4693	 0.5787	-2.8907	56.7468	99.9175	59.7453	99.9083	
   410	-3.7062	 0.1920	-3.5142	-3.7827	 0.2206	-3.5621	-3.3161	 0.5359	-2.7803	57.1377	99.9162	59.7226	99.9043	
   411	-3.6114	 0.1655	-3.4459	-3.6745	 0.2018	-3.4726	-3.2001	 0.5233	-2.6769	57.2561	99.9164	59.6165	99.9056	
   412	-3.5388	 0.1395	-3.3993	-3.5871	 0.1580	-3.4291	-3.1296	 0.4927	-2.6370	57.3570	99.9176	59.6271	99.9050	
   413	-3.5176	 0.1243	-3.3932	-3.5427	 0.1488	-3.3939	-3.0687	 0.4882	-2.5806	57.4746	99.9178	59.7934	99.9050	
   414	-3.4441	 0.1130	-3.3310	-3.4907	 0.1564	-3.3343	-2.9956	 0.5021	-2.4935	57.4394	99.9196	59.8248	99.9068	
   415	-3.3735	 0.1706	-3.2029	-3.4163	 0.2144	-3.2019	-2.9146	 0.5530	-2.3617	57.5013	99.9192	60.0230	99.9065	
   416	-3.2953	 0.2329	-3.0624	-3.3411	 0.2852	-3.0559	-2.8272	 0.6186	-2.2087	57.5179	99.9191	60.2001	99.9071	
   417	-3.2189	 0.2658	-2.9532	-3.2549	 0.3261	-2.9288	-2.7251	 0.6507	-2.0746	57.6342	99.9183	60.1982	99.9075	
   418	-3.1281	 0.2934	-2.8346	-3.1384	 0.3368	-2.8016	-2.6186	 0.6641	-1.9546	57.7919	99.9183	60.2885	99.9082	
   419	-3.0536	 0.2969	-2.7568	-3.0613	 0.3355	-2.7258	-2.5359	 0.6519	-1.8841	57.9428	99.9178	60.2528	99.9067	
   420	-3.0101	 0.2813	-2.7288	-3.0235	 0.3221	-2.7013	-2.5090	 0.6368	-1.8724	57.9397	99.9170	60.3839	99.9071	
   421	-3.0120	 0.2518	-2.7602	-3.0259	 0.2841	-2.7418	-2.5111	 0.6034	-1.9077	57.9848	99.9182	60.2941	99.9085	
   422	-3.0207	 0.2323	-2.7884	-3.0275	 0.2587	-2.7688	-2.5080	 0.5626	-1.9455	58.1264	99.9168	60.5471	99.9068	
   423	-3.0390	 0.1787	-2.8604	-3.0692	 0.2086	-2.8606	-2.5549	 0.5224	-2.0326	58.0175	99.9182	60.3821	99.9057	
   424	-3.0149	 0.2077	-2.8072	-3.0031	 0.2371	-2.7660	-2.4804	 0.5585	-1.9220	58.1386	99.9180	60.7019	99.9083	
   425	-2.9423	 0.1816	-2.7607	-2.9401	 0.2148	-2.7253	-2.4099	 0.5280	-1.8821	58.2380	99.9177	60.8365	99.9092	
   426	-2.8679	 0.1851	-2.6828	-2.8563	 0.2177	-2.6386	-2.3099	 0.5267	-1.7833	58.3972	99.9181	60.8023	99.9076	
   427	-2.8166	 0.1742	-2.6424	-2.7874	 0.1868	-2.6006	-2.2779	 0.5040	-1.7740	58.4395	99.9174	61.0681	99.9115	
   428	-2.8263	 0.1400	-2.6863	-2.7957	 0.1573	-2.6384	-2.2741	 0.4743	-1.7999	58.4905	99.9177	61.0649	99.9114	
   429	-2.8282	 0.1106	-2.7176	-2.8048	 0.1151	-2.6897	-2.2826	 0.4262	-1.8565	58.5781	99.9183	61.1103	99.9131	
   430	-2.8533	 0.0668	-2.7864	-2.8398	 0.0691	-2.7707	-2.3020	 0.3820	-1.9201	58.6234	99.9200	61.1197	99.9137	
   431	-2.8619	 0.0474	-2.8146	-2.8414	 0.0437	-2.7977	-2.3149	 0.3525	-1.9625	58.6659	99.9189	61.1275	99.9163	
   432	-2.8648	 0.0032	-2.8616	-2.8505	 0.0015	-2.8490	-2.3227	 0.3155	-2.0073	58.6630	99.9196	61.2116	99.9168	
   433	-2.8290	-0.0172	-2.8462	-2.8068	-0.0204	-2.8272	-2.2580	 0.2813	-1.9768	58.8643	99.9194	61.4818	99.9168	
   434	-2.7961	-0.0817	-2.8778	-2.7990	-0.1010	-2.9000	-2.2685	 0.1998	-2.0688	58.8932	99.9204	61.7580	99.9220	
   435	-2.7989	-0.1259	-2.9248	-2.7947	-0.1350	-2.9296	-2.2525	 0.1885	-2.0641	58.8560	99.9226	61.8880	99.9258	
   436	-2.7467	-0.1220	-2.8687	-2.7384	-0.1613	-2.8997	-2.2160	 0.1472	-2.0689	59.0382	99.9218	61.9989	99.9273	
   437	-2.7583	-0.1856	-2.9439	-2.7743	-0.2200	-2.9943	-2.2419	 0.0882	-2.1537	59.0301	99.9230	61.9363	99.9287	
   438	-2.7756	-0.2246	-3.0002	-2.7707	-0.2667	-3.0374	-2.2497	 0.0513	-2.1985	59.0785	99.9229	61.8066	99.9258	
   439	-2.7679	-0.2198	-2.9877	-2.7440	-0.2502	-2.9942	-2.2150	 0.0731	-2.1420	59.0919	99.9224	61.7637	99.9241	
   440	-2.6867	-0.2264	-2.9130	-2.6483	-0.2645	-2.9129	-2.1272	 0.0534	-2.0739	59.2421	99.9213	61.9063	99.9260	
   441	-2.6296	-0.2619	-2.8915	-2.5736	-0.3039	-2.8775	-2.0400	 0.0226	-2.0175	59.3997	99.9227	62.0240	99.9297	
   442	-2.5078	-0.2152	-2.7230	-2.4405	-0.2341	-2.6747	-1.8917	 0.0837	-1.8081	59.4706	99.9207	62.1903	99.9266	
   443	-2.4198	-0.2317	-2.6515	-2.3859	-0.2859	-2.6718	-1.8630	 0.0055	-1.8577	59.6381	99.9202	62.4060	99.9290	
   444	-2.5232	-0.3377	-2.8609	-2.4760	-0.3903	-2.8663	-1.9447	-0.0565	-2.0013	59.5442	99.9246	62.3138	99.9302	
   445	-2.4082	-0.2811	-2.6892	-2.3615	-0.3075	-2.6690	-1.7964	 0.0046	-1.7918	59.6627	99.9226	62.2738	99.9286	
   446	-2.3279	-0.3023	-2.6302	-2.3178	-0.3294	-2.6472	-1.7759	-0.0253	-1.8013	59.5998	99.9219	62.2715	99.9308	
   447	-2.2970	-0.2833	-2.5803	-2.2367	-0.2672	-2.5039	-1.6531	 0.0732	-1.5800	59.5510	99.9235	62.1503	99.9277	
   448	-2.0312	-0.1903	-2.2215	-1.9419	-0.1833	-2.1251	-1.3837	 0.1143	-1.2695	59.8995	99.9168	62.1526	99.9308	
   449	-1.8939	-0.1341	-2.0281	-1.7852	-0.1478	-1.9330	-1.2380	 0.1309	-1.1072	60.1446	99.9148	61.9439	99.9276	
   450	-1.8746	-0.1787	-2.0533	-1.7900	-0.2239	-2.0139	-1.2247	 0.0751	-1.1497	60.2355	99.9220	61.9927	99.9300	
   451	-1.8271	-0.2485	-2.0756	-1.7605	-0.2668	-2.0273	-1.1941	 0.0302	-1.1639	60.1878	99.9205	62.1598	99.9302	
   452	-1.8164	-0.3125	-2.1290	-1.7602	-0.3642	-2.1244	-1.2123	-0.0882	-1.3006	60.4069	99.9198	62.1681	99.9319	
   453	-1.8676	-0.4147	-2.2823	-1.8228	-0.4394	-2.2622	-1.2889	-0.1576	-1.4466	60.2546	99.9176	62.1175	99.9316	
   454	-1.8251	-0.3320	-2.1571	-1.6988	-0.4119	-2.1107	-1.1946	-0.1626	-1.3573	60.7379	99.9125	62.0800	99.9302	
   455	-1.6820	-0.3005	-1.9825	-1.5280	-0.3555	-1.8834	-0.9353	-0.1066	-1.0420	61.0651	99.9156	62.0775	99.9310	
   456	-1.4800	-0.2750	-1.7550	-1.3158	-0.3590	-1.6749	-0.7359	-0.1203	-0.8563	61.3555	99.9158	61.9927	99.9309	
   457	-1.3814	-0.2426	-1.6240	-1.2178	-0.3353	-1.5531	-0.6396	-0.0918	-0.7316	61.4082	99.9172	61.9464	99.9285	
   458	-1.2935	-0.1461	-1.4396	-1.1300	-0.2690	-1.3990	-0.5645	-0.0446	-0.6092	61.5488	99.9168	61.8262	99.9305	
   459	-1.3399	-0.1747	-1.5146	-1.2119	-0.3438	-1.5558	-0.6757	-0.1359	-0.8116	61.6187	99.9180	61.6109	99.9306	
   460	-1.4983	-0.3287	-1.8270	-1.3773	-0.5190	-1.8963	-0.8590	-0.3152	-1.1743	61.6928	99.9177	61.7461	99.9310	
   461	-1.6722	-0.4923	-2.1645	-1.5821	-0.7061	-2.2882	-1.0916	-0.4828	-1.5745	61.5696	99.9208	61.7181	99.9308	
   462	-1.8268	-0.5875	-2.4143	-1.7352	-0.7883	-2.5234	-1.2232	-0.5441	-1.7675	61.4713	99.9231	61.8097	99.9283	
   463	-1.7697	-0.6230	-2.3927	-1.6655	-0.8064	-2.4719	-1.1188	-0.5640	-1.6829	61.6297	99.9234	62.2230	99.9319	
   464	-1.6827	-0.6542	-2.3369	-1.5841	-0.8416	-2.4257	-1.0605	-0.6130	-1.6736	61.7210	99.9209	61.7154	99.9334	
   465	-1.7387	-0.7170	-2.4557	-1.6066	-0.8921	-2.4986	-1.1255	-0.6752	-1.8007	61.7144	99.9137	61.0852	99.9286	
   466	-1.7367	-0.8006	-2.5372	-1.6416	-0.9381	-2.5797	-1.1313	-0.6788	-1.8102	61.4319	99.9195	60.8198	99.9220	
   467	-1.6332	-0.8075	-2.4407	-1.5267	-0.9527	-2.4794	-1.0274	-0.7098	-1.7373	61.6263	99.9170	60.2389	99.9201	
   468	-1.6651	-0.8413	-2.5064	-1.5291	-0.9908	-2.5199	-1.0070	-0.7397	-1.7468	61.7790	99.9184	60.1778	99.9164	
   469	-1.6283	-0.8469	-2.4753	-1.4830	-0.9747	-2.4577	-0.9165	-0.7149	-1.6315	61.8431	99.9204	60.1930	99.9145	
   470	-1.4476	-0.8063	-2.2539	-1.2736	-0.9189	-2.1925	-0.6515	-0.6553	-1.3069	62.1094	99.9225	60.0240	99.9072	
   471	-1.2378	-0.7761	-2.0139	-1.0473	-0.9015	-1.9489	-0.4058	-0.6399	-1.0458	62.4086	99.9242	59.0460	99.8979	
   472	-1.1353	-0.7978	-1.9331	-0.9769	-0.9070	-1.8838	-0.3122	-0.6560	-0.9683	62.4586	99.9247	59.4936	99.9033	
   473	-1.0773	-0.8186	-1.8959	-0.9206	-0.9333	-1.8540	-0.2693	-0.6825	-0.9519	62.5047	99.9244	59.8368	99.9012	
   474	-1.0492	-0.8438	-1.8930	-0.8962	-0.9549	-1.8512	-0.2431	-0.7088	-0.9520	62.5521	99.9239	60.5206	99.9050	
   475	-1.0134	-0.8641	-1.8775	-0.8467	-0.9854	-1.8321	-0.2009	-0.7464	-0.9474	62.6942	99.9228	60.5589	99.9043	
   476	-1.0153	-0.8936	-1.9089	-0.8608	-1.0063	-1.8672	-0.2304	-0.7757	-1.0062	62.6418	99.9206	60.3787	99.9035	
   477	-1.0327	-0.9325	-1.9652	-0.8884	-1.0355	-1.9239	-0.2382	-0.8127	-1.0510	62.6892	99.9205	60.5436	99.9029	
   478	-0.9669	-0.9486	-1.9155	-0.7810	-1.0670	-1.8480	-0.1229	-0.8364	-0.9594	62.9347	99.9214	61.0345	99.9072	
   479	-0.9040	-1.0088	-1.9128	-0.7338	-1.1356	-1.8694	-0.0871	-0.8888	-0.9760	62.9324	99.9239	61.2139	99.9070	
   480	-0.8857	-0.9551	-1.8408	-0.6704	-1.0477	-1.7181	 0.0425	-0.8608	-0.8183	63.3246	99.9166	61.7097	99.9065	
   481	-0.8595	-1.0097	-1.8692	-0.6692	-1.1324	-1.8017	-0.0211	-0.9007	-0.9219	63.0778	99.9211	61.8408	99.9082	
   482	-0.8296	-1.0054	-1.8349	-0.6307	-1.1331	-1.7638	 0.0232	-0.9050	-0.8820	63.1746	99.9211	61.7237	99.9039	
   483	-0.8083	-1.0206	-1.8288	-0.6256	-1.1543	-1.7799	 0.0103	-0.9345	-0.9244	63.1693	99.9202	61.6826	99.9078	
   484	-0.8488	-1.0738	-1.9226	-0.6866	-1.2041	-1.8907	-0.0598	-0.9892	-1.0491	63.1154	99.9195	61.0136	99.9065	
   485	-0.8807	-1.1075	-1.9882	-0.6957	-1.2464	-1.9420	-0.0560	-1.0190	-1.0751	63.2135	99.9213	58.3115	99.8611	
   486	-0.8227	-1.1284	-1.9510	-0.6067	-1.2648	-1.8715	 0.0593	-1.0427	-0.9834	63.4584	99.9210	59.2193	99.8672	
   487	-0.7501	-1.1544	-1.9045	-0.5438	-1.2870	-1.8308	 0.1087	-1.0544	-0.9459	63.4111	99.9215	59.7646	99.8960	
   488	-0.7202	-1.1501	-1.8702	-0.5245	-1.2874	-1.8119	 0.1305	-1.0621	-0.9318	63.4575	99.9217	58.0752	99.8787	
   489	-0.6989	-1.1652	-1.8641	-0.5060	-1.3004	-1.8064	 0.1407	-1.0771	-0.9365	63.4565	99.9209	60.8065	99.8947	
   490	-0.6844	-1.1704	-1.8548	-0.4934	-1.3048	-1.7983	 0.1574	-1.0773	-0.9200	63.4575	99.9217	61.1215	99.9109	
   491	-0.6612	-1.1562	-1.8173	-0.4608	-1.2969	-1.7577	 0.1914	-1.0666	-0.8753	63.5067	99.9222	61.7732	99.9239	
   492	-0.6235	-1.1471	-1.7706	-0.4407	-1.2845	-1.7252	 0.2196	-1.0596	-0.8400	63.5067	99.9227	61.1577	99.9038	
   493	-0.5703	-1.1285	-1.6988	-0.3561	-1.2690	-1.6251	 0.3319	-1.0425	-0.7107	63.7036	99.9237	62.1989	99.9045	
   494	-0.4514	-1.1259	-1.5773	-0.2337	-1.2669	-1.5005	 0.4711	-1.0406	-0.5696	63.8498	99.9248	62.2365	99.9062	
   495	-0.4001	-1.1368	-1.5369	-0.1833	-1.2847	-1.4680	 0.4980	-1.0558	-0.5579	63.8482	99.9243	61.9487	99.9046	
   496	-0.3934	-1.1468	-1.5401	-0.1900	-1.2888	-1.4788	 0.4915	-1.0705	-0.5791	63.8466	99.9232	58.7161	99.8762	
   497	-0.3934	-1.1468	-1.5401	-0.1900	-1.2888	-1.4788	 0.5024	-1.0744	-0.5720	63.8945	99.9234	59.2446	99.8765	
   498	-0.3634	-1.1424	-1.5058	-0.1640	-1.2850	-1.4490	 0.5140	-1.0671	-0.5532	63.8466	99.9232	59.8783	99.8869	
   499	-0.3566	-1.1524	-1.5090	-0.1707	-1.2891	-1.4598	 0.4966	-1.0780	-0.5814	63.7971	99.9218	59.4515	99.8941	
   500	-0.3798	-1.1667	-1.5465	-0.1975	-1.3056	-1.5031	 0.4677	-1.0962	-0.6285	63.7954	99.9218	59.0728	99.8886	
   501	-0.3730	-1.1766	-1.5497	-0.1723	-1.3145	-1.4868	 0.5178	-1.0968	-0.5791	63.8945	99.9234	60.1387	99.8995	
   502	-0.2686	-1.1689	-1.4375	-0.0558	-1.3038	-1.3596	 0.6627	-1.0912	-0.4286	64.0885	99.9241	60.3401	99.9079	
   503	-0.2096	-1.1750	-1.3846	-0.0054	-1.3216	-1.3270	 0.6896	-1.1064	-0.4169	64.0864	99.9242	60.7316	99.8998	
   504	-0.2174	-1.1798	-1.3971	 0.0005	-1.3301	-1.3297	 0.6672	-1.1098	-0.4428	64.0380	99.9227	61.1214	99.8900	
   505	-0.2174	-1.1798	-1.3971	-0.0121	-1.3257	-1.3378	 0.6614	-1.1135	-0.4522	64.0372	99.9224	62.1423	99.8949	
   506	-0.2038	-1.1997	-1.4035	-0.0255	-1.3339	-1.3594	 0.6491	-1.1319	-0.4828	63.9879	99.9215	62.3295	99.8939	
   507	-0.2270	-1.2140	-1.4410	-0.0464	-1.3590	-1.4054	 0.6196	-1.1611	-0.5417	64.0328	99.9212	62.4847	99.9001	
   508	-0.2724	-1.2278	-1.5002	-0.0983	-1.3666	-1.4649	 0.5580	-1.1678	-0.6099	63.9362	99.9203	62.6190	99.9029	
   509	-0.2724	-1.2278	-1.5002	-0.0731	-1.3755	-1.4486	 0.5689	-1.1716	-0.6029	63.9842	99.9196	62.5139	99.8922	
   510	-0.1980	-1.2244	-1.4224	 0.0257	-1.3390	-1.3134	 0.7390	-1.1182	-0.3793	64.0914	99.9227	58.0606	99.8457	
   511	 0.0166	-1.1206	-1.1040	 0.2323	-1.2239	-0.9916	 0.9560	-1.0246	-0.0687	64.1905	99.9209	59.7581	99.8643	
   512	 0.2234	-1.0215	-0.7981	 0.3937	-1.1123	-0.7185	 1.1070	-0.9190	 0.1879	64.0517	99.9210	61.0442	99.9112	
   513	 0.3925	-0.9315	-0.5391	 0.5343	-1.0257	-0.4914	 1.2335	-0.8502	 0.3833	64.0517	99.9199	59.8430	99.8899	
   514	 0.4775	-0.8792	-0.4017	 0.5953	-0.9759	-0.3806	 1.2805	-0.8100	 0.4704	64.0035	99.9194	61.7112	99.9170	
   515	 0.5210	-0.8948	-0.3738	 0.5854	-1.0308	-0.4453	 1.1941	-0.9498	 0.2443	64.2208	99.9094	60.1524	99.8584	
   516	-0.0316	-1.2916	-1.3232	-0.0342	-1.4736	-1.5078	 0.4509	-1.3740	-0.9232	63.8022	99.9082	62.0109	99.8982	
   517	-0.3602	-1.4373	-1.7975	-0.2720	-1.5712	-1.8432	 0.2655	-1.4050	-1.1396	63.6226	99.9112	62.8576	99.8869	
   518	-0.0937	-1.1036	-1.1973	 0.1485	-1.2267	-1.0782	 0.7866	-1.0669	-0.2804	64.1804	99.9106	62.9100	99.8845	
   519	 0.5634	-0.6991	-0.1357	 0.8095	-0.8440	-0.0345	 1.4301	-0.7266	 0.7034	64.4743	99.9077	63.4223	99.8984	
   520	 0.9238	-0.5196	 0.4042	 1.1496	-0.7565	 0.3930	 1.6085	-0.7215	 0.8868	64.7911	99.8948	58.7457	99.8460	
   521	 0.7035	-0.5987	 0.1047	 0.8429	-0.8233	 0.0196	 1.2151	-0.7869	 0.4281	64.1606	99.8908	60.1419	99.8623	
   522	 0.3661	-0.6509	-0.2849	 0.4927	-0.8683	-0.3756	 0.8732	-0.8307	 0.0424	63.9143	99.8907	61.2941	99.8882	
   523	 0.3738	-0.6462	-0.2724	 0.5631	-0.8737	-0.3106	 0.9892	-0.8433	 0.1458	64.3038	99.8910	57.4665	99.8424	
   524	 0.3661	-0.6509	-0.2849	 0.5170	-0.8898	-0.3728	 0.9045	-0.8645	 0.0399	64.1536	99.8903	63.8580	99.9372	
   525	 0.3062	-0.6596	-0.3534	 0.4592	-0.8889	-0.4297	 0.8436	-0.8600	-0.0165	64.0575	99.8893	60.7082	99.8635	
   526	 0.2704	-0.6392	-0.3688	 0.4340	-0.8800	-0.4460	 0.8218	-0.8523	-0.0306	64.1052	99.8899	62.3612	99.8918	
   527	 0.2781	-0.6345	-0.3564	 0.4407	-0.8758	-0.4351	 0.8160	-0.8559	-0.0400	64.1037	99.8879	62.9424	99.8839	
   528	 0.2549	-0.6487	-0.3938	 0.4072	-0.8965	-0.4892	 0.7320	-0.8660	-0.1341	63.9063	99.8863	63.2264	99.8849	
   529	 0.1660	-0.6469	-0.4810	 0.3167	-0.9034	-0.5867	 0.6473	-0.8871	-0.2400	63.9511	99.8854	63.7337	99.8977	
   530	 0.0973	-0.6751	-0.5777	 0.2321	-0.9189	-0.6868	 0.5408	-0.9006	-0.3599	63.7541	99.8833	59.1634	99.8395	
   531	 0.0297	-0.6884	-0.6588	 0.1542	-0.9303	-0.7761	 0.4618	-0.9181	-0.4564	63.7025	99.8825	60.5396	99.8692	
   532	-0.0525	-0.6966	-0.7491	 0.0821	-0.9503	-0.8681	 0.3778	-0.9281	-0.5505	63.6516	99.8833	61.5606	99.8839	
   533	-0.1047	-0.7005	-0.8052	 0.0176	-0.9534	-0.9358	 0.3162	-0.9348	-0.6187	63.6006	99.8835	60.4957	99.8988	
   534	-0.1492	-0.6996	-0.8488	-0.0143	-0.9486	-0.9629	 0.2835	-0.9232	-0.6398	63.5533	99.8832	62.4271	99.9015	
   535	-0.1415	-0.6949	-0.8363	-0.0009	-0.9404	-0.9413	 0.2951	-0.9159	-0.6210	63.5542	99.8823	62.0828	99.8684	
   536	-0.1482	-0.6849	-0.8331	-0.0194	-0.9274	-0.9468	 0.2900	-0.9085	-0.6186	63.5542	99.8830	62.7875	99.8863	
   537	-0.1782	-0.6892	-0.8674	-0.0587	-0.9394	-0.9982	 0.2284	-0.9151	-0.6868	63.4529	99.8831	63.5527	99.8856	
   538	-0.2304	-0.6931	-0.9235	-0.1166	-0.9384	-1.0550	 0.1719	-0.9292	-0.7574	63.4499	99.8807	63.4869	99.8934	
   539	-0.2903	-0.7017	-0.9921	-0.1811	-0.9416	-1.1227	 0.0885	-0.9281	-0.8397	63.3006	99.8792	63.8084	99.8958	
   540	-0.3397	-0.6614	-1.0011	-0.2358	-0.8898	-1.1257	 0.0419	-0.8719	-0.8301	63.1564	99.8798	59.5560	99.8464	
   541	-0.3291	-0.6125	-0.9416	-0.2326	-0.8391	-1.0717	 0.0503	-0.8238	-0.7736	63.1091	99.8803	60.6235	99.8620	
   542	-0.2953	-0.5493	-0.8446	-0.1700	-0.7639	-0.9339	 0.1602	-0.7548	-0.5947	63.2670	99.8809	61.9301	99.8828	
   543	-0.1504	-0.4883	-0.6387	 0.0016	-0.6948	-0.6932	 0.3759	-0.6834	-0.3076	63.4743	99.8833	60.4414	99.8845	
   544	 0.0400	-0.4135	-0.3735	 0.2075	-0.5923	-0.3849	 0.6218	-0.5716	 0.0501	63.5382	99.8852	62.7238	99.9092	
   545	 0.1405	-0.3516	-0.2111	 0.2843	-0.4962	-0.2119	 0.6932	-0.4946	 0.1985	63.3974	99.8805	63.2990	99.9136	
   546	 0.1453	-0.2780	-0.1327	 0.2780	-0.3902	-0.1122	 0.6744	-0.3461	 0.3282	62.9277	99.8834	62.5695	99.8909	
   547	 0.2390	-0.2062	 0.0328	 0.3438	-0.2642	 0.0796	 0.7897	-0.1881	 0.6014	62.6136	99.8889	62.9947	99.8789	
   548	 0.1590	-0.4110	-0.2520	 0.1190	-0.4638	-0.3448	 0.5254	-0.4183	 0.1070	62.3348	99.8878	63.6220	99.8823	
   549	-0.2324	-0.6095	-0.8419	-0.3065	-0.5794	-0.8859	 0.2022	-0.4290	-0.2269	61.6321	99.9030	63.9952	99.8907	
   550	-0.1911	-0.3155	-0.5067	-0.1891	-0.3484	-0.5375	 0.2347	-0.2588	-0.0242	61.8637	99.8909	63.0670	99.8920	
   551	-0.8241	-0.6910	-1.5151	-1.0064	-0.8641	-1.8705	-0.5224	-0.8201	-1.3426	62.2101	99.9084	59.2644	99.8466	
   552	-1.1942	-0.9047	-2.0989	-1.2729	-1.1138	-2.3867	-0.8448	-1.0014	-1.8463	62.1508	99.9102	60.9641	99.8652	
   553	-1.3979	-1.1857	-2.5835	-1.5143	-1.3723	-2.8866	-1.0937	-1.2540	-2.3479	62.0297	99.9094	61.2303	99.8882	
   554	-1.5301	-1.3943	-2.9244	-1.6242	-1.5865	-3.2107	-1.1848	-1.4716	-2.6565	62.3188	99.9090	60.9430	99.8699	
   555	-1.5136	-1.4831	-2.9967	-1.5523	-1.7741	-3.3264	-1.0802	-1.6732	-2.7535	63.2054	99.9150	62.5479	99.9177	
   556	-1.4072	-1.5589	-2.9661	-1.3776	-1.8617	-3.2394	-0.9188	-1.7643	-2.6832	63.6063	99.9114	59.7076	99.8235	
   557	-1.6662	-1.6618	-3.3280	-1.7598	-1.9019	-3.6617	-1.3527	-1.6734	-3.0262	62.1095	99.9240	62.4421	99.9020	
   558	-1.8424	-1.4028	-3.2452	-1.6864	-1.5515	-3.2380	-0.9804	-1.3111	-2.2916	62.8936	99.9270	62.3179	99.8944	
   559	-1.2897	-1.1190	-2.4087	-1.1935	-1.2845	-2.4781	-0.5565	-1.1089	-1.6655	62.9895	99.9203	62.1315	99.8870	
   560	-1.2211	-1.0909	-2.3120	-1.1298	-1.2941	-2.4239	-0.5201	-1.1502	-1.6704	63.2220	99.9180	62.4905	99.8848	
   561	-1.2384	-1.1299	-2.3683	-1.1589	-1.3487	-2.5076	-0.5915	-1.2271	-1.8187	63.2585	99.9141	62.5020	99.8830	
   562	-1.3669	-1.2796	-2.6465	-1.3881	-1.5142	-2.9023	-0.8902	-1.3827	-2.2730	62.8376	99.9159	60.6818	99.8680	
   563	-1.5920	-1.4324	-3.0243	-1.6058	-1.5995	-3.2053	-1.0596	-1.4250	-2.4847	62.5039	99.9180	60.2306	99.8816	
   564	-1.5978	-1.4077	-3.0055	-1.5624	-1.5240	-3.0864	-0.9695	-1.3150	-2.2845	62.3846	99.9191	60.3640	99.8845	
   565	-1.4664	-1.3268	-2.7932	-1.4648	-1.4028	-2.8676	-0.8345	-1.1980	-2.0326	62.2526	99.9197	60.4935	99.8920	
   566	-1.2712	-1.1784	-2.4496	-1.2541	-1.2242	-2.4783	-0.6257	-1.0561	-1.6819	62.3150	99.9126	60.6597	99.8955	
   567	-1.1253	-1.1027	-2.2280	-1.0943	-1.1380	-2.2322	-0.4420	-0.9621	-1.4041	62.3797	99.9141	60.8649	99.8970	
   568	-0.9494	-1.0226	-1.9721	-0.9160	-1.0647	-1.9807	-0.2334	-0.9166	-1.1500	62.6766	99.9136	60.8649	99.8992	
   569	-0.8267	-0.9612	-1.7879	-0.7904	-1.0118	-1.8022	-0.1416	-0.8695	-1.0112	62.6766	99.9115	60.8723	99.8958	
   570	-0.7813	-0.9474	-1.7287	-0.7636	-0.9953	-1.7589	-0.1300	-0.8623	-0.9924	62.6251	99.9100	60.8641	99.8937	
   571	-0.8007	-0.9028	-1.7034	-0.7577	-1.0039	-1.7616	-0.1531	-0.8768	-1.0300	62.8099	99.9106	60.9069	99.8942	
   572	-0.8645	-0.8573	-1.7218	-0.7904	-1.0118	-1.8022	-0.1936	-0.9022	-1.0959	63.0922	99.9108	60.7784	99.8891	
   573	-0.9118	-0.9006	-1.8124	-0.8431	-1.0321	-1.8752	-0.2501	-0.9163	-1.1665	62.9474	99.9095	60.9196	99.8885	
   574	-0.9264	-0.8954	-1.8217	-0.8793	-0.9933	-1.8727	-0.2589	-0.8791	-1.1382	62.8074	99.9094	60.9286	99.8879	
   575	-0.9148	-0.8317	-1.7465	-0.8341	-0.9899	-1.8239	-0.2372	-0.8868	-1.1241	63.0911	99.9099	61.0830	99.8918	
   576	-0.8926	-0.8322	-1.7247	-0.7872	-0.9610	-1.7482	-0.1678	-0.8432	-1.0111	63.0545	99.9098	61.1239	99.8935	
   577	-0.7795	-0.8049	-1.5844	-0.7305	-0.8772	-1.6077	-0.0964	-0.7663	-0.8628	62.7719	99.9082	61.0264	99.8927	
   578	-0.7562	-0.9037	-1.6598	-0.8167	-0.9181	-1.7349	-0.2382	-0.8127	-1.0510	62.1754	99.9036	61.0743	99.8906	
   579	-0.9320	-1.0967	-2.0286	-1.0746	-1.0282	-2.1027	-0.4931	-0.8872	-1.3804	61.4888	99.9044	61.0795	99.8910	
   580	-1.0933	-1.1819	-2.2752	-1.2352	-1.1271	-2.3623	-0.6659	-0.9851	-1.6511	61.4731	99.9043	61.1290	99.8906	
   581	-1.2083	-1.2386	-2.4469	-1.3356	-1.1889	-2.5245	-0.7642	-1.0469	-1.8112	61.5161	99.9039	61.0352	99.8896	
   582	-1.2230	-1.1204	-2.3433	-1.2965	-1.0795	-2.3760	-0.7799	-0.9392	-1.7192	61.4212	99.8981	61.2260	99.8924	
   583	-1.2530	-1.0117	-2.2647	-1.3504	-1.0150	-2.3654	-0.8456	-0.8308	-1.6765	61.1742	99.9082	61.1784	99.8938	
   584	-1.2947	-0.9666	-2.2613	-1.3465	-0.9515	-2.2980	-0.7742	-0.7538	-1.5282	61.3001	99.9110	61.1750	99.8919	
   585	-1.2163	-1.0173	-2.2336	-1.2819	-0.9484	-2.2303	-0.6671	-0.7293	-1.3964	61.1764	99.9128	61.1204	99.8919	
   586	-1.0625	-1.0499	-2.1124	-1.1855	-0.9500	-2.1355	-0.5061	-0.7351	-1.2413	61.2370	99.9167	61.1135	99.8910	
   587	-0.9484	-1.1209	-2.0693	-1.0907	-0.9771	-2.0677	-0.3754	-0.7812	-1.1567	61.3431	99.9140	61.0299	99.8892	
   588	-0.5484	-0.7899	-1.3383	-0.5965	-0.5872	-1.1838	 0.2402	-0.3516	-0.1115	61.5286	99.9191	61.0830	99.8918	
   589	-0.5106	-0.8938	-1.4044	-0.6690	-0.7173	-1.3863	 0.0940	-0.5611	-0.4671	61.5690	99.9114	61.1342	99.8913	
   590	-0.5327	-1.0064	-1.5391	-0.6510	-0.8405	-1.4914	 0.0989	-0.6650	-0.5662	61.7123	99.9118	61.1427	99.8928	
   591	-0.4534	-1.0424	-1.4958	-0.5294	-0.8510	-1.3804	 0.2643	-0.6894	-0.4252	62.0152	99.9091	61.2361	99.8938	
   592	-0.3664	-1.0736	-1.4400	-0.4377	-0.9288	-1.3665	 0.3191	-0.7939	-0.4748	62.3332	99.9071	61.0951	99.8931	
   593	-0.5044	-1.2576	-1.7620	-0.5795	-1.1382	-1.7177	 0.1307	-0.9657	-0.8351	62.2204	99.9103	61.0968	99.8922	
   594	-0.5915	-1.2263	-1.8178	-0.6138	-1.1715	-1.7853	 0.1301	-0.9769	-0.8469	62.5586	99.9181	61.0491	99.8925	
   595	-0.6468	-1.0483	-1.6951	-0.5728	-1.1341	-1.7069	 0.1866	-0.9627	-0.7763	63.3648	99.9235	61.1376	99.8935	
   596	-0.5097	-0.8791	-1.3888	-0.3469	-1.0193	-1.3661	 0.2807	-0.7860	-0.5054	63.1317	99.9234	61.0474	99.8944	
   597	-0.4797	-0.8748	-1.3545	-0.3567	-1.0742	-1.4309	 0.2904	-0.9938	-0.7035	64.0150	99.9127	61.0968	99.8940	
   598	-0.7802	-1.0457	-1.8259	-0.6362	-1.2219	-1.8582	 0.0587	-1.0538	-0.9952	63.6863	99.9229	61.1886	99.8959	
   599	-0.6536	-1.0384	-1.6919	-0.4221	-1.0900	-1.5121	 0.3366	-0.9647	-0.6282	63.8522	99.9082	61.1393	99.8952	
   600	-0.3023	-1.3451	-1.6474	-0.3529	-1.2183	-1.5711	 0.2734	-1.0899	-0.8166	62.4492	99.8972	61.0474	99.8944	
   601	-0.1641	-1.2742	-1.4383	-0.1631	-1.0647	-1.2278	 0.5050	-0.8482	-0.3433	62.0212	99.9028	61.0934	99.8932	
   602	 0.2813	-0.9293	-0.6480	 0.3286	-0.7130	-0.3844	 0.9124	-0.5494	 0.3629	62.0857	99.8884	61.0456	99.8942	
   603	 0.5073	-0.6489	-0.1416	 0.4913	-0.4785	 0.0128	 0.9977	-0.3354	 0.6622	61.8366	99.8881	61.0864	99.8937	
   604	 0.4385	-0.5640	-0.1254	 0.3965	-0.4515	-0.0550	 0.9181	-0.3641	 0.5539	62.1490	99.8881	61.0882	99.8935	
   605	 0.3159	-0.7384	-0.4225	 0.2228	-0.6561	-0.4333	 0.7399	-0.5509	 0.1889	62.1271	99.8947	61.0456	99.8931	
   606	 0.0358	-1.0522	-1.0163	-0.1163	-1.0359	-1.1521	 0.3567	-0.9093	-0.5528	62.1290	99.9017	61.2311	99.8974	
   607	-0.6147	-1.2406	-1.8553	-0.6045	-1.4343	-2.0387	-0.0359	-1.1453	-1.1812	62.8050	99.9355	61.1410	99.8965	
   608	-0.3530	-0.8675	-1.2205	-0.1142	-0.9004	-1.0146	 0.7499	-0.6622	 0.0875	63.6497	99.9275	61.0934	99.8950	
   609	 0.2142	-0.5890	-0.3747	 0.2747	-0.6485	-0.3738	 1.0097	-0.4134	 0.5961	63.0291	99.9299	61.0439	99.8954	
   610	 0.4374	-0.3527	 0.0847	 0.4613	-0.5458	-0.0844	 1.0645	-0.5180	 0.5464	63.9331	99.9099	61.0439	99.8961	
   611	 0.1304	-0.8526	-0.7222	-0.0584	-1.0369	-1.0953	 0.4646	-1.0553	-0.5908	63.5486	99.9057	61.0422	99.8962	
   612	-0.2765	-1.0607	-1.3371	-0.2419	-1.2964	-1.5383	 0.3518	-1.2652	-0.9135	64.3343	99.9099	61.0847	99.8952	
   613	-0.4147	-1.1316	-1.5463	-0.3608	-1.3452	-1.7060	 0.2514	-1.1786	-0.9274	63.7208	99.9246	61.0422	99.8958	
   614	-0.3423	-0.9316	-1.2739	-0.1923	-1.1193	-1.3116	 0.4520	-0.9884	-0.5365	63.9758	99.9168	61.0951	99.8955	
   615	-0.2245	-0.8308	-1.0552	-0.0812	-0.9899	-1.0711	 0.5935	-0.8568	-0.2634	63.8898	99.9175	61.0509	99.8973	
   616	-0.0081	-0.5845	-0.5927	 0.2389	-0.7072	-0.4683	 0.9662	-0.5797	 0.3864	64.1019	99.9136	61.0014	99.8967	
   617	 0.2817	-0.3495	-0.0679	 0.4303	-0.5283	-0.0981	 0.9947	-0.4763	 0.5183	63.8929	99.9029	61.0014	99.8967	
   618	 0.0731	-0.5910	-0.5180	 0.1322	-0.8706	-0.7385	 0.5574	-0.9008	-0.3435	64.1381	99.8935	60.9979	99.8966	
   619	-0.3665	-0.9606	-1.3271	-0.3084	-1.2275	-1.5359	 0.1847	-1.1778	-0.9932	63.9899	99.9066	61.0422	99.8951	
   620	-0.6911	-1.1605	-1.8516	-0.5895	-1.4006	-1.9901	 0.0112	-1.2868	-1.2757	63.9991	99.9171	60.9039	99.8945	
   621	-0.8167	-1.2661	-2.0828	-0.6998	-1.5174	-2.2171	-0.1091	-1.4373	-1.5465	64.2329	99.9119	60.9926	99.8962	
   622	-1.0756	-1.4820	-2.5576	-0.9612	-1.7883	-2.7495	-0.4132	-1.6818	-2.0951	64.2678	99.9160	60.9500	99.8957	
   623	-1.2659	-1.6698	-2.9357	-1.1333	-1.9675	-3.1008	-0.4924	-1.7957	-2.2882	64.3228	99.9278	61.0934	99.8978	
   624	-1.2244	-1.6018	-2.8263	-1.0156	-1.8340	-2.8495	-0.2642	-1.6096	-1.8739	64.2974	99.9326	60.9996	99.8986	
   625	-0.6031	-1.1770	-1.7801	-0.4163	-1.3061	-1.7224	 0.2925	-1.1421	-0.8497	63.9339	99.9178	60.9500	99.8968	
   626	-0.2775	-0.9624	-1.2399	-0.1765	-1.0730	-1.2495	 0.5394	-0.9228	-0.3835	63.7019	99.9198	60.9500	99.8951	
   627	-0.1712	-0.9252	-1.0964	-0.1320	-1.0822	-1.2142	 0.5432	-0.9525	-0.4094	63.7372	99.9213	60.8578	99.8967	
   628	-0.2659	-1.0117	-1.2776	-0.2891	-1.2278	-1.5169	 0.3143	-1.1498	-0.8356	63.8552	99.9175	60.9039	99.8962	
   629	-0.5827	-1.3199	-1.9026	-0.5723	-1.5365	-2.1087	 0.0035	-1.5055	-1.5020	64.1778	99.9069	60.8098	99.8959	
   630	-0.7953	-1.3942	-2.1896	-0.5923	-1.5488	-2.1412	 0.1501	-1.3813	-1.2313	64.2608	99.9210	60.8079	99.8967	
   631	-0.4494	-1.2095	-1.6589	-0.2700	-1.4357	-1.7056	 0.4345	-1.2774	-0.8430	64.4978	99.9249	60.9571	99.8970	
   632	-0.4117	-1.2004	-1.6121	-0.2263	-1.4576	-1.6839	 0.3678	-1.2766	-0.9088	64.2530	99.9227	60.9093	99.8983	
   633	-0.4166	-1.1610	-1.5776	-0.2542	-1.3894	-1.6435	 0.3756	-1.2396	-0.8641	64.2543	99.9202	60.9057	99.8982	
   634	-0.4041	-1.0827	-1.4867	-0.2360	-1.3049	-1.5410	 0.3977	-1.1509	-0.7533	64.1620	99.9204	60.9057	99.8972	
   635	-0.3365	-0.9563	-1.2928	-0.1494	-1.1539	-1.3033	 0.4956	-1.0038	-0.5083	64.0742	99.9182	60.8153	99.8969	
   636	-0.2052	-0.7624	-0.9676	 0.0310	-0.9452	-0.9142	 0.6989	-0.7691	-0.0703	63.9947	99.9201	60.7229	99.8969	
   637	 0.0576	-0.6006	-0.5429	 0.2896	-0.8225	-0.5329	 0.8888	-0.7567	 0.1319	64.4584	99.9059	60.7229	99.8962	
   638	 0.0732	-0.7041	-0.6309	 0.2506	-0.9319	-0.6813	 0.8140	-0.8893	-0.0754	64.4498	99.9032	60.7229	99.8962	
   639	-0.1567	-0.9304	-1.0871	-0.0679	-1.1892	-1.2571	 0.4542	-1.1368	-0.6827	64.2410	99.9074	60.7783	99.8972	
   640	-0.5036	-1.1298	-1.6334	-0.4159	-1.4036	-1.8195	 0.1490	-1.3071	-1.1582	64.1882	99.9162	60.9200	99.8987	
   641	-0.7423	-1.2626	-2.0049	-0.6561	-1.5393	-2.1954	-0.0520	-1.4121	-1.4642	64.1381	99.9222	60.7820	99.8984	
   642	-0.8824	-1.3630	-2.2454	-0.7915	-1.6471	-2.4387	-0.1806	-1.5142	-1.6949	64.1827	99.9233	60.7820	99.8973	
   643	-0.9848	-1.4543	-2.4391	-0.8943	-1.7471	-2.6414	-0.2924	-1.6166	-1.9091	64.2261	99.9228	60.7820	99.8969	
   644	-1.1462	-1.5395	-2.6857	-1.0148	-1.8213	-2.8360	-0.3676	-1.6638	-2.0315	64.2791	99.9258	60.7396	99.8969	
   645	-1.1085	-1.5305	-2.6389	-0.9293	-1.7931	-2.7224	-0.2707	-1.6243	-1.8951	64.3343	99.9244	60.7801	99.8978	
   646	-1.0331	-1.5123	-2.5454	-0.8699	-1.7687	-2.6386	-0.2135	-1.5991	-1.8127	64.2870	99.9247	60.6898	99.8962	
   647	-1.0244	-1.4928	-2.5172	-0.8431	-1.7522	-2.5953	-0.1897	-1.5734	-1.7632	64.2889	99.9251	60.6973	99.8964	
   648	-0.9722	-1.4890	-2.4611	-0.8180	-1.7611	-2.5790	-0.1461	-1.5888	-1.7351	64.3842	99.9277	60.7470	99.8981	
   649	-0.8455	-1.4817	-2.3272	-0.7979	-1.7487	-2.5466	-0.1359	-1.6038	-1.7398	64.2322	99.9283	60.6973	99.8985	
   650	-0.8706	-1.5254	-2.3960	-0.8128	-1.7823	-2.5952	-0.1686	-1.5922	-1.7609	63.9930	99.9310	60.6973	99.8985	
   651	-0.8021	-1.3843	-2.1864	-0.5837	-1.6168	-2.2005	 0.0749	-1.4285	-1.3537	64.2999	99.9234	60.6973	99.8981	
   652	-0.6890	-1.3570	-2.0461	-0.4999	-1.6139	-2.1138	 0.1634	-1.4371	-1.2738	64.4416	99.9258	60.6512	99.8980	
   653	-0.6117	-1.3095	-1.9212	-0.3826	-1.5905	-1.9731	 0.2148	-1.4155	-1.2008	64.4881	99.9216	60.7396	99.8979	
   654	-0.6108	-1.2947	-1.9055	-0.4054	-1.5435	-1.9489	 0.2399	-1.3676	-1.1278	64.3964	99.9234	60.6493	99.8977	
   655	-0.5663	-1.2956	-1.8619	-0.3877	-1.5693	-1.9569	 0.2264	-1.4082	-1.1820	64.4387	99.9228	60.6606	99.8997	
   656	-0.6445	-1.3579	-2.0025	-0.4814	-1.6270	-2.1084	 0.1229	-1.4625	-1.3397	64.3394	99.9227	60.5647	99.9006	
   657	-0.7316	-1.3267	-2.0583	-0.5243	-1.5924	-2.1166	 0.1114	-1.4698	-1.3585	64.6286	99.9174	60.6767	99.9023	
   658	-0.7026	-1.3371	-2.0397	-0.5192	-1.6136	-2.1328	 0.1090	-1.4178	-1.3090	64.2954	99.9275	60.5745	99.9007	
   659	-0.6253	-1.2895	-1.9148	-0.4196	-1.5645	-1.9840	 0.2335	-1.3824	-1.1490	64.4910	99.9266	60.5533	99.8997	
   660	-0.5480	-1.2419	-1.7899	-0.3526	-1.5232	-1.8759	 0.2913	-1.3460	-1.0548	64.4910	99.9266	60.5024	99.8986	
   661	-0.4852	-1.1891	-1.6743	-0.3042	-1.4690	-1.7732	 0.3222	-1.2945	-0.9724	64.3952	99.9259	60.3489	99.8959	
   662	-0.4620	-1.1749	-1.6369	-0.2908	-1.4608	-1.7516	 0.3222	-1.2945	-0.9724	64.3934	99.9250	60.2789	99.8906	
   663	-0.4697	-1.1796	-1.6493	-0.3101	-1.4604	-1.7705	 0.2947	-1.2904	-0.9959	64.2967	99.9250	60.2934	99.8871	
   664	-0.4997	-1.1839	-1.6836	-0.3428	-1.4683	-1.8111	 0.2549	-1.3048	-1.0500	64.2948	99.9242	60.1545	99.8839	
   665	-0.5297	-1.1883	-1.7179	-0.3754	-1.4763	-1.8517	 0.2273	-1.3007	-1.0735	64.2470	99.9262	60.7911	99.8811	
   666	-0.5006	-1.1987	-1.6993	-0.3444	-1.4937	-1.8381	 0.2664	-1.2975	-1.0312	64.2490	99.9295	62.9301	99.9231	
   667	-0.4407	-1.1900	-1.6307	-0.2774	-1.4525	-1.7299	 0.3576	-1.2616	-0.9041	64.2543	99.9278	62.4375	99.9027	
   668	-0.3808	-1.1814	-1.5622	-0.2448	-1.4446	-1.6894	 0.3518	-1.2652	-0.9135	64.1543	99.9254	62.6272	99.9038	
   669	-0.4417	-1.2048	-1.6464	-0.2983	-1.4776	-1.7759	 0.2882	-1.3052	-1.0171	64.1993	99.9242	62.7651	99.9007	
   670	-0.4958	-1.2381	-1.7338	-0.3585	-1.5147	-1.8732	 0.2137	-1.3413	-1.1277	64.1480	99.9238	63.1182	99.9028	
   671	-0.5412	-1.2519	-1.7931	-0.4038	-1.5181	-1.9220	 0.1688	-1.3482	-1.1795	64.0994	99.9225	63.0702	99.9071	
   672	-0.5547	-1.2320	-1.7867	-0.4097	-1.5096	-1.9193	 0.1477	-1.3293	-1.1818	64.0508	99.9233	63.0854	99.9070	
   673	-0.5547	-1.2320	-1.7867	-0.4282	-1.4966	-1.9248	 0.1484	-1.3182	-1.1700	64.0037	99.9241	58.3367	99.8486	
   674	-0.5470	-1.2272	-1.7742	-0.4282	-1.4966	-1.9248	 0.1695	-1.3370	-1.1677	64.1473	99.9240	60.4353	99.8685	
   675	-0.5257	-1.2424	-1.7681	-0.3853	-1.5312	-1.9165	 0.2406	-1.3565	-1.1160	64.3426	99.9281	60.5164	99.8678	
   676	-0.4377	-1.2589	-1.6966	-0.3743	-1.5610	-1.9353	 0.2597	-1.4087	-1.1490	64.3848	99.9304	59.7720	99.8855	
   677	-0.5237	-1.3260	-1.8497	-0.4637	-1.6527	-2.1164	 0.1158	-1.4884	-1.3727	64.2811	99.9302	61.4698	99.8949	
   678	-0.6542	-1.3921	-2.0463	-0.5649	-1.7272	-2.2921	 0.0046	-1.5796	-1.5751	64.4225	99.9267	61.6015	99.8950	
   679	-0.7566	-1.4834	-2.2400	-0.6779	-1.7846	-2.4625	-0.1019	-1.5931	-1.6951	64.0855	99.9297	61.2775	99.8741	
   680	-0.6919	-1.4012	-2.0931	-0.5952	-1.6971	-2.2922	-0.0070	-1.5869	-1.5940	64.4719	99.9200	62.4398	99.8805	
   681	-0.8861	-1.5349	-2.4210	-0.8294	-1.8414	-2.6708	-0.3434	-1.7235	-2.0670	64.0669	99.9160	62.9019	99.8793	
   682	-1.1519	-1.6279	-2.7797	-1.0821	-1.9726	-3.0548	-0.6125	-1.8498	-2.4624	64.1060	99.9174	63.1795	99.8804	
   683	-1.3055	-1.7083	-3.0138	-1.2152	-2.0424	-3.2576	-0.7486	-1.8925	-2.6412	63.9584	99.9182	63.1917	99.8778	
   684	-1.3992	-1.7801	-3.1794	-1.2518	-2.1138	-3.3656	-0.8091	-1.9733	-2.7825	64.1045	99.9122	59.0998	99.8399	
   685	-1.4456	-1.8087	-3.2543	-1.2904	-2.1131	-3.4035	-0.8448	-1.9210	-2.7659	63.7669	99.9160	60.3495	99.8599	
   686	-1.2235	-1.5871	-2.8106	-1.1561	-1.9206	-3.0767	-0.5935	-1.7203	-2.3139	63.8755	99.9318	61.2210	99.8792	
   687	-1.0824	-1.4720	-2.5544	-1.0612	-1.7400	-2.8012	-0.4218	-1.5482	-1.9701	63.6945	99.9329	58.9819	99.8588	
   688	-0.6699	-1.1756	-1.8455	-0.6387	-1.4676	-2.1063	-0.0940	-1.2780	-1.3721	63.5552	99.9295	62.3841	99.9140	
   689	-0.5752	-1.0891	-1.6643	-0.5509	-1.4013	-1.9522	-0.0810	-1.2485	-1.3297	63.5457	99.9225	60.0334	99.8306	
   690	-0.5723	-1.0449	-1.6173	-0.5662	-1.3375	-1.9037	-0.0930	-1.1705	-1.2636	63.3058	99.9238	62.4740	99.8915	
   691	-0.5830	-0.9808	-1.5639	-0.5757	-1.2823	-1.8579	-0.0961	-1.1297	-1.2259	63.3542	99.9233	62.6716	99.8746	
   692	-0.6179	-0.9457	-1.5636	-0.5926	-1.2439	-1.8364	-0.0999	-1.1000	-1.1999	63.4056	99.9220	63.0606	99.8776	
   693	-0.5628	-0.8977	-1.4605	-0.5189	-1.1985	-1.7175	-0.0580	-1.0523	-1.1104	63.3583	99.9197	63.4452	99.8845	
   694	-0.5513	-0.8341	-1.3853	-0.5083	-1.1309	-1.6392	-0.0656	-0.9929	-1.0586	63.2607	99.9174	58.7669	99.8423	
   695	-0.5880	-0.8284	-1.4164	-0.5736	-1.1468	-1.7204	-0.1428	-1.0735	-1.2163	63.4895	99.9115	60.4683	99.8720	
   696	-0.8401	-1.0543	-1.8945	-0.8410	-1.4091	-2.2501	-0.4410	-1.3143	-1.7555	63.4708	99.9148	61.0551	99.8779	
   697	-1.0257	-1.1685	-2.1942	-1.0016	-1.5080	-2.5097	-0.5829	-1.3607	-1.9437	63.2784	99.9196	59.7319	99.8914	
   698	-1.0624	-1.1629	-2.2253	-1.0386	-1.4820	-2.5206	-0.5758	-1.3349	-1.9107	63.2848	99.9210	60.9587	99.8681	
   699	-1.0837	-1.1477	-2.2314	-1.0638	-1.4731	-2.5369	-0.6098	-1.3455	-1.9554	63.3293	99.9186	61.3606	99.8806	
   700	-1.1523	-1.1758	-2.3281	-1.1224	-1.4848	-2.6072	-0.6482	-1.3376	-1.9860	63.2361	99.9205	63.5243	99.9134	
   701	-1.0431	-1.0945	-2.1376	-0.9886	-1.4024	-2.3909	-0.5037	-1.2468	-1.7506	63.2954	99.9213	63.2135	99.9015	
   702	-0.9842	-1.1006	-2.0847	-0.9516	-1.4284	-2.3800	-0.4846	-1.2989	-1.7836	63.4340	99.9197	63.1252	99.8822	
   703	-1.0634	-1.1776	-2.2410	-1.0528	-1.5029	-2.5557	-0.5836	-1.3718	-1.9555	63.3792	99.9205	63.1895	99.8785	
   704	-1.1542	-1.2053	-2.3595	-1.1071	-1.5486	-2.6557	-0.6587	-1.4191	-2.0779	63.4738	99.9185	63.2752	99.8832	
   705	-1.2325	-1.2676	-2.5001	-1.2110	-1.5638	-2.7748	-0.7397	-1.4699	-2.2097	63.4219	99.9127	63.5270	99.8947	
   706	-1.2953	-1.3204	-2.6156	-1.2677	-1.6476	-2.9153	-0.8346	-1.4761	-2.3109	63.1251	99.9216	61.8826	99.8828	
   707	-1.4590	-0.9830	-2.4420	-1.2520	-1.6012	-2.8532	-0.7897	-1.4693	-2.2591	64.7414	99.9337	58.9316	99.8444	
   708	-1.3224	-1.2805	-2.6029	-1.2862	-1.6346	-2.9208	-0.8629	-1.4832	-2.3461	63.2677	99.9203	60.7136	99.8724	
   709	-1.3475	-1.3242	-2.6717	-1.3197	-1.6552	-2.9748	-0.8751	-1.5016	-2.3768	63.2208	99.9204	61.1970	99.8978	
   710	-1.3349	-1.3589	-2.6938	-1.3028	-1.6936	-2.9963	-0.8611	-1.5462	-2.4075	63.3178	99.9195	60.0922	99.8655	
   711	-1.3899	-1.4069	-2.7969	-1.3630	-1.7307	-3.0937	-0.9247	-1.5862	-2.5110	63.2655	99.9181	62.2755	99.9243	
   712	-1.4325	-1.3766	-2.8091	-1.3681	-1.7094	-3.0775	-0.9285	-1.5565	-2.4851	63.3188	99.9182	64.1946	99.9371	
   713	-1.4093	-1.3623	-2.7716	-1.3472	-1.6844	-3.0316	-0.8982	-1.5161	-2.4144	63.2252	99.9200	61.7337	99.8662	
   714	-1.3707	-1.3385	-2.7092	-1.3205	-1.6679	-2.9883	-0.8867	-1.5088	-2.3956	63.2219	99.9191	62.8309	99.8829	
   715	-1.3852	-1.3333	-2.7185	-1.3398	-1.6675	-3.0073	-0.9142	-1.5048	-2.4191	63.1707	99.9196	63.5298	99.8898	
   716	-1.4402	-1.3813	-2.8216	-1.4193	-1.7043	-3.1236	-0.9901	-1.5631	-2.5533	63.1640	99.9172	63.2188	99.8887	
   717	-1.4992	-1.3752	-2.8745	-1.3815	-1.7177	-3.0992	-0.9925	-1.5112	-2.5038	63.0762	99.9193	60.3616	99.8639	
   718	-1.3755	-1.2991	-2.6746	-1.2913	-1.6133	-2.9046	-0.8479	-1.4203	-2.2684	63.0865	99.9212	60.0942	99.8611	
   719	-1.2528	-1.2377	-2.4905	-1.1976	-1.5556	-2.7532	-0.7459	-1.3883	-2.1343	63.1840	99.9206	61.5799	99.8894	
   720	-1.2374	-1.2282	-2.4655	-1.2019	-1.5216	-2.7235	-0.7503	-1.3697	-2.1201	63.0853	99.9177	62.0862	99.9124	
   721	-1.2828	-1.2420	-2.5248	-1.2362	-1.5549	-2.7911	-0.8075	-1.3949	-2.2025	63.0807	99.9181	59.9763	99.8961	
   722	-1.3601	-1.2896	-2.6497	-1.3106	-1.6130	-2.9236	-0.8942	-1.4494	-2.3437	63.0750	99.9181	60.7379	99.8727	
   723	-1.4210	-1.3129	-2.7339	-1.3759	-1.6288	-3.0047	-0.9513	-1.4746	-2.4261	63.0727	99.9170	63.1993	99.9284	
   724	-1.5060	-1.3653	-2.8713	-1.4370	-1.6786	-3.1156	-1.0425	-1.5105	-2.5532	62.9711	99.9149	60.8649	99.8899	
   725	-1.5418	-1.3449	-2.8867	-1.4999	-1.6564	-3.1563	-1.0847	-1.4729	-2.5577	62.8239	99.9194	61.7038	99.8946	
   726	-1.5495	-1.3497	-2.8992	-1.5133	-1.6646	-3.1779	-1.0970	-1.4913	-2.5884	62.8705	99.9188	62.0678	99.8911	
   727	-1.5273	-1.3501	-2.8774	-1.4614	-1.6570	-3.1184	-1.0347	-1.4736	-2.5084	62.9281	99.9187	62.5913	99.8868	
   728	-1.5128	-1.3553	-2.8681	-1.4621	-1.6697	-3.1318	-1.0361	-1.4958	-2.5319	62.9735	99.9189	62.2642	99.8781	
   729	-1.5659	-1.3739	-2.9399	-1.4956	-1.6903	-3.1859	-1.0643	-1.5028	-2.5672	62.9759	99.9200	59.4873	99.8683	
   730	-1.5891	-1.3882	-2.9773	-1.5224	-1.7068	-3.2292	-1.0939	-1.5321	-2.6261	63.0213	99.9185	61.4254	99.8899	
   731	-1.6838	-1.4747	-3.1585	-1.6393	-1.8277	-3.4670	-1.2405	-1.6563	-2.8969	63.0541	99.9195	61.3575	99.8928	
   732	-1.8616	-1.5842	-3.4458	-1.8310	-1.9092	-3.7402	-1.4330	-1.7132	-3.1463	62.7518	99.9203	61.2808	99.9062	
   733	-1.9496	-1.5677	-3.5173	-1.9125	-1.8739	-3.7864	-1.4964	-1.6567	-3.1532	62.5596	99.9222	60.3747	99.8831	
   734	-1.9631	-1.5478	-3.5109	-1.9428	-1.8437	-3.7865	-1.5168	-1.6268	-3.1437	62.4609	99.9228	63.1676	99.9172	
   735	-1.9400	-1.5335	-3.4735	-1.8967	-1.8276	-3.7243	-1.4545	-1.6091	-3.0637	62.5678	99.9230	63.2601	99.9113	
   736	-1.8713	-1.5054	-3.3767	-1.7971	-1.7784	-3.5755	-1.3556	-1.5362	-2.8918	62.4833	99.9228	63.7538	99.8897	
   737	-1.7999	-1.4331	-3.2330	-1.7093	-1.7121	-3.4214	-1.2848	-1.4703	-2.7553	62.4874	99.9216	63.7914	99.8947	
   738	-1.7380	-1.3950	-3.1331	-1.6676	-1.6620	-3.3296	-1.2437	-1.4338	-2.6776	62.4385	99.9201	63.8243	99.8968	
   739	-1.6994	-1.3712	-3.0706	-1.6274	-1.6373	-3.2647	-1.2141	-1.4045	-2.6187	62.3909	99.9199	63.6901	99.8880	
   740	-1.6830	-1.3470	-3.0300	-1.6199	-1.6204	-3.2404	-1.2083	-1.4009	-2.6093	62.4371	99.9192	63.8684	99.8966	
   741	-1.6897	-1.3370	-3.0268	-1.6250	-1.5992	-3.2242	-1.2107	-1.3489	-2.5598	62.2471	99.9221	61.3925	99.8898	
   742	-1.6782	-1.2734	-2.9516	-1.5833	-1.5490	-3.1323	-1.1869	-1.3233	-2.5103	62.3938	99.9177	59.9368	99.8541	
   743	-1.6482	-1.2691	-2.9173	-1.5640	-1.5494	-3.1134	-1.1767	-1.3382	-2.5151	62.4385	99.9162	61.3949	99.8883	
   744	-1.6434	-1.3085	-2.9518	-1.5589	-1.5706	-3.1295	-1.1369	-1.3239	-2.4609	62.3520	99.9215	59.8990	99.8940	
   745	-1.5825	-1.2851	-2.8676	-1.5003	-1.5589	-3.0592	-1.1036	-1.3243	-2.4280	62.3966	99.9194	60.6639	99.8502	
   746	-1.5989	-1.3094	-2.9083	-1.5597	-1.5833	-3.1430	-1.1890	-1.3566	-2.5457	62.2353	99.9186	61.8902	99.9060	
   747	-1.6733	-1.3128	-2.9861	-1.6250	-1.5992	-3.2242	-1.2519	-1.3855	-2.6375	62.3290	99.9176	62.9742	99.9006	
   748	-1.7815	-1.3794	-3.1610	-1.7471	-1.6988	-3.4459	-1.3760	-1.5062	-2.8823	62.5103	99.9179	62.9111	99.8941	
   749	-1.8511	-1.4223	-3.2734	-1.7963	-1.7657	-3.5620	-1.4243	-1.5687	-2.9930	62.6556	99.9193	63.3909	99.8964	
   750	-1.8443	-1.4322	-3.2766	-1.8156	-1.7654	-3.5810	-1.4358	-1.5759	-3.0119	62.6035	99.9193	63.6480	99.8839	
   751	-1.8734	-1.4218	-3.2952	-1.8349	-1.7651	-3.6000	-1.4634	-1.5719	-3.0354	62.6022	99.9195	63.6790	99.8836	
   752	-1.8579	-1.4123	-3.2702	-1.8132	-1.7273	-3.5405	-1.4107	-1.5280	-2.9388	62.5637	99.9199	63.5535	99.8850	
   753	-1.7815	-1.3794	-3.1610	-1.7085	-1.6994	-3.4080	-1.3029	-1.4923	-2.7953	62.6715	99.9203	63.6112	99.8926	
   754	-1.7052	-1.3466	-3.0518	-1.6424	-1.6709	-3.3133	-1.2457	-1.4671	-2.7129	62.6715	99.9203	63.8681	99.8908	
   755	-1.6897	-1.3370	-3.0268	-1.6475	-1.6496	-3.2971	-1.2392	-1.4524	-2.6917	62.6223	99.9204	58.9885	99.8415	
   756	-1.6801	-1.3028	-2.9829	-1.6199	-1.6204	-3.2404	-1.2206	-1.4192	-2.6399	62.6250	99.9199	61.2216	99.8803	
   757	-1.6560	-1.2738	-2.9298	-1.5983	-1.5827	-3.1810	-1.1845	-1.3752	-2.5598	62.5813	99.9212	60.5890	99.9000	
   758	-1.5854	-1.2163	-2.8017	-1.5298	-1.5161	-3.0458	-1.1080	-1.3058	-2.4139	62.5391	99.9217	61.1239	99.8729	
   759	-1.5304	-1.1683	-2.6986	-1.4754	-1.4704	-2.9458	-1.0726	-1.2728	-2.3456	62.5377	99.9193	63.5758	99.9051	
   760	-1.5149	-1.1587	-2.6737	-1.4813	-1.4618	-2.9431	-1.0726	-1.2728	-2.3456	62.5350	99.9197	62.9695	99.8735	
   761	-1.5371	-1.1583	-2.6954	-1.4821	-1.4745	-2.9566	-1.0675	-1.2803	-2.3479	62.6356	99.9208	63.5368	99.8871	
   762	-1.5014	-1.1787	-2.6800	-1.4317	-1.4923	-2.9241	-1.0131	-1.2996	-2.3127	62.7374	99.9201	63.7538	99.8742	
   763	-1.4868	-1.1839	-2.6707	-1.4251	-1.4882	-2.9132	-1.0124	-1.2884	-2.3009	62.6396	99.9201	63.4228	99.8733	
   764	-1.4868	-1.1839	-2.6707	-1.4251	-1.4882	-2.9132	-1.0175	-1.2810	-2.2986	62.5907	99.9207	60.0077	99.8731	
   765	-1.4859	-1.1692	-2.6550	-1.4243	-1.4755	-2.8998	-1.0110	-1.2662	-2.2774	62.5920	99.9215	60.5653	99.8928	
   766	-1.4704	-1.1596	-2.6301	-1.4101	-1.4545	-2.8646	-0.9937	-1.2553	-2.2491	62.5934	99.9197	61.5902	99.8726	
   767	-1.4695	-1.1449	-2.6144	-1.4219	-1.4374	-2.8593	-1.0039	-1.2403	-2.2444	62.5432	99.9200	61.9354	99.8826	
   768	-1.4908	-1.1298	-2.6205	-1.4471	-1.4285	-2.8756	-1.0141	-1.2254	-2.2396	62.5445	99.9224	62.1130	99.8901	
   769	-1.4367	-1.0964	-2.5331	-1.3994	-1.3870	-2.7864	-0.9390	-1.1781	-2.1172	62.5527	99.9247	61.7599	99.8824	
   770	-1.3497	-1.0146	-2.3644	-1.3116	-1.3207	-2.6323	-0.8618	-1.0976	-1.9594	62.5080	99.9271	61.6470	99.8936	
   771	-1.2628	-0.9329	-2.1956	-1.2222	-1.2290	-2.4512	-0.7397	-1.0101	-1.7499	62.5688	99.9282	61.8430	99.9044	
   772	-1.1400	-0.8714	-2.0115	-1.1093	-1.1716	-2.2808	-0.6087	-0.9599	-1.5687	62.6722	99.9296	61.5051	99.8934	
   773	-1.0869	-0.8528	-1.9397	-1.0766	-1.1637	-2.2403	-0.5992	-0.9860	-1.5853	62.7602	99.9260	60.9603	99.8692	
   774	-1.2521	-0.9969	-2.2490	-1.2813	-1.3508	-2.6322	-0.9025	-1.2194	-2.1220	62.7685	99.9185	61.8497	99.8815	
   775	-1.6791	-1.2881	-2.9673	-1.7865	-1.7108	-3.4973	-1.5219	-1.6193	-3.1413	62.6517	99.9133	63.4387	99.9051	
   776	-1.9768	-1.4148	-3.3917	-2.0100	-1.7875	-3.7976	-1.6893	-1.6283	-3.3177	62.4211	99.9173	62.8324	99.8851	
   777	-1.9170	-1.2932	-3.2102	-1.9427	-1.6362	-3.5788	-1.6054	-1.4365	-3.0421	62.0924	99.9210	63.2359	99.8830	
   778	-1.8302	-1.0984	-2.9286	-1.8378	-1.4007	-3.2386	-1.4912	-1.2044	-2.6957	61.8659	99.9177	63.5475	99.8840	
   779	-1.7790	-0.9962	-2.7753	-1.7886	-1.3338	-3.1224	-1.4681	-1.1899	-2.6581	62.1018	99.9125	63.6868	99.8873	
   780	-1.8137	-1.0742	-2.8879	-1.8445	-1.4048	-3.2494	-1.4514	-1.1901	-2.6416	61.9694	99.9265	63.7259	99.8830	
   781	-1.8349	-1.1720	-3.0069	-1.8816	-1.5864	-3.4680	-1.6183	-1.4660	-3.0845	62.4125	99.9131	63.5818	99.8756	
   782	-2.0987	-1.3485	-3.4472	-2.1544	-1.7300	-3.8845	-1.8462	-1.5558	-3.4022	62.1125	99.9200	63.6701	99.8738	
   783	-2.0166	-1.2273	-3.2440	-2.0619	-1.5876	-3.6494	-1.7477	-1.3976	-3.1454	61.9290	99.9205	63.6233	99.8704	
   784	-1.9713	-1.1005	-3.0718	-2.0071	-1.4318	-3.4388	-1.6767	-1.2354	-2.9122	61.7469	99.9199	63.6225	99.8693	
   785	-1.9019	-0.9447	-2.8465	-1.9389	-1.2677	-3.2066	-1.6179	-1.0915	-2.7095	61.6530	99.9166	63.6634	99.8672	
   786	-1.8662	-0.8520	-2.7182	-1.9133	-1.1665	-3.0798	-1.5874	-0.9547	-2.5422	61.3670	99.9213	63.6540	99.8654	
   787	-1.7474	-0.7365	-2.4838	-1.8121	-1.0919	-2.9040	-1.5265	-0.9592	-2.4858	61.6939	99.9133	63.9688	99.8711	
   788	-1.8788	-0.8174	-2.6961	-1.9353	-1.1068	-3.0421	-1.5834	-0.8880	-2.4715	61.2283	99.9225	59.5238	99.8634	
   789	-1.6576	-0.6105	-2.2681	-1.7321	-0.9450	-2.6772	-1.3925	-0.7681	-2.1608	61.4748	99.9218	60.6558	99.8898	
   790	-1.6121	-0.5967	-2.2088	-1.6601	-0.9251	-2.5852	-1.2796	-0.7399	-2.0196	61.6417	99.9240	61.6436	99.8909	
   791	-1.4807	-0.5158	-1.9965	-1.5255	-0.8299	-2.3554	-1.0683	-0.6499	-1.7184	61.8641	99.9276	62.6662	99.8868	
   792	-1.4526	-0.6539	-2.1065	-1.5708	-1.0409	-2.6118	-1.1852	-0.9265	-2.1118	62.2083	99.9239	63.0427	99.8732	
   793	-1.7713	-0.9915	-2.7628	-1.9425	-1.4286	-3.3712	-1.6089	-1.3104	-2.9194	62.2079	99.9260	62.8020	99.8702	
   794	-2.0679	-1.2165	-3.2844	-2.2209	-1.6611	-3.8820	-1.8803	-1.5665	-3.4469	62.4395	99.9225	63.3430	99.8756	
   795	-2.3008	-1.3740	-3.6747	-2.4500	-1.8267	-4.2767	-2.1405	-1.7300	-3.8706	62.3685	99.9203	63.5722	99.8752	
   796	-2.4380	-1.4302	-3.8682	-2.5799	-1.8457	-4.4256	-2.2776	-1.6986	-3.9763	61.9164	99.9223	63.7086	99.8754	
   797	-2.5376	-1.3643	-3.9020	-2.6031	-1.7013	-4.3043	-2.2822	-1.4983	-3.7806	61.4499	99.9204	63.8055	99.8764	
   798	-2.5387	-1.2660	-3.8047	-2.5582	-1.6004	-4.1585	-2.2203	-1.3952	-3.6157	61.5182	99.9196	63.8063	99.8767	
   799	-2.4769	-1.2280	-3.7048	-2.4896	-1.5337	-4.0234	-2.0925	-1.3042	-3.3968	61.4954	99.9243	63.7152	99.8766	
   800	-2.2285	-1.0610	-3.2895	-2.1944	-1.3396	-3.5340	-1.7513	-1.0898	-2.8412	61.5908	99.9263	63.7627	99.8764	
   801	-1.8401	-0.7936	-2.6337	-1.7896	-1.0415	-2.8311	-1.3156	-0.7840	-2.0997	61.5870	99.9272	63.7160	99.8757	
   802	-1.4054	-0.3846	-1.7901	-1.3821	-0.5951	-1.9772	-0.8552	-0.3449	-1.2002	61.4407	99.9296	63.7160	99.8764	
   803	-0.9378	-0.0402	-0.9780	-0.9891	-0.2798	-1.2690	-0.4793	-0.1087	-0.5882	61.6347	99.9263	63.7152	99.8746	
   804	-0.7513	 0.0887	-0.6626	-0.8395	-0.1511	-0.9906	-0.3328	 0.0154	-0.3174	61.5437	99.9276	63.7619	99.8741	
   805	-0.6035	 0.1939	-0.4097	-0.6982	-0.0518	-0.7500	-0.1896	 0.0841	-0.1056	61.6928	99.9254	63.8023	99.8762	
   806	-0.5803	 0.2081	-0.3722	-0.7049	-0.0559	-0.7608	-0.2634	 0.0590	-0.2044	61.5730	99.9214	64.0239	99.8758	
   807	-0.6857	 0.1857	-0.5000	-0.7651	-0.0930	-0.8581	-0.3437	 0.0193	-0.3245	61.6661	99.9187	60.6761	99.8562	
   808	-0.7243	 0.1619	-0.5625	-0.7919	-0.1095	-0.9014	-0.3559	 0.0009	-0.3551	61.7177	99.9182	60.8659	99.8739	
   809	-0.6721	 0.1658	-0.5064	-0.7340	-0.1105	-0.8445	-0.2885	 0.0112	-0.2775	61.7724	99.9204	61.3120	99.9037	
   810	-0.6489	 0.1800	-0.4689	-0.7140	-0.0981	-0.8121	-0.2719	 0.0110	-0.2610	61.8190	99.9190	61.0173	99.8946	
   811	-0.6721	 0.1658	-0.5064	-0.7407	-0.1146	-0.8553	-0.3290	-0.0143	-0.3434	61.7610	99.9162	63.0627	99.8704	
   812	-0.7485	 0.1329	-0.6156	-0.8077	-0.1558	-0.9635	-0.4042	-0.0615	-0.4658	61.8028	99.9149	63.3478	99.8749	
   813	-0.7949	 0.1043	-0.6905	-0.8344	-0.1723	-1.0067	-0.4215	-0.0724	-0.4940	61.8076	99.9142	63.6860	99.8889	
   814	-0.7930	 0.1338	-0.6592	-0.8135	-0.1473	-0.9608	-0.4086	-0.0429	-0.4516	61.8109	99.9137	63.6868	99.8924	
   815	-0.8084	 0.1243	-0.6842	-0.8529	-0.1593	-1.0122	-0.4651	-0.0570	-0.5222	61.7044	99.9135	63.6975	99.8947	
   816	-0.8452	 0.1299	-0.7153	-0.8781	-0.1504	-1.0285	-0.4644	-0.0459	-0.5104	61.7593	99.9148	63.8812	99.8998	
   817	-0.8152	 0.1342	-0.6810	-0.8387	-0.1384	-0.9771	-0.4079	-0.0318	-0.4398	61.8158	99.9152	63.7724	99.9052	
   818	-0.8229	 0.1295	-0.6935	-0.8529	-0.1593	-1.0122	-0.4484	-0.0572	-0.5057	61.8060	99.9144	63.7983	99.9027	
   819	-0.8829	 0.1208	-0.7620	-0.9167	-0.1497	-1.0664	-0.4927	-0.0529	-0.5457	61.7593	99.9137	64.0596	99.8973	
   820	-0.9051	 0.1213	-0.7838	-0.9485	-0.1450	-1.0935	-0.5369	-0.0487	-0.5857	61.6577	99.9128	61.8008	99.8749	
   821	-0.9496	 0.1222	-0.8274	-0.9745	-0.1488	-1.1233	-0.5594	-0.0521	-0.6115	61.7077	99.9125	59.7295	99.8660	
   822	-0.9718	 0.1226	-0.8492	-0.9997	-0.1399	-1.1396	-0.5920	-0.0405	-0.6327	61.6093	99.9117	61.3705	99.8863	
   823	-0.9999	 0.1477	-0.8521	-1.0174	-0.1142	-1.1316	-0.6016	-0.0145	-0.6161	61.6127	99.9118	61.1476	99.8949	
   824	-0.9844	 0.1573	-0.8272	-1.0158	-0.0888	-1.1046	-0.5720	 0.0148	-0.5573	61.5713	99.9137	60.5711	99.8879	
   825	-0.9535	 0.1763	-0.7772	-0.9513	-0.0856	-1.0369	-0.4988	 0.0287	-0.4702	61.7259	99.9155	61.0399	99.8917	
   826	-0.9226	 0.1953	-0.7273	-0.9312	-0.0733	-1.0044	-0.4873	 0.0360	-0.4514	61.7226	99.9154	60.5733	99.8850	
   827	-0.9526	 0.1910	-0.7615	-0.9697	-0.0726	-1.0424	-0.5380	 0.0255	-0.5126	61.6678	99.9131	61.9175	99.8906	
   828	-0.9902	 0.1819	-0.8083	-1.0150	-0.0761	-1.0911	-0.5771	 0.0223	-0.5549	61.6178	99.9133	61.4746	99.8778	
   829	-1.0270	 0.1876	-0.8394	-1.0402	-0.0672	-1.1074	-0.6098	 0.0338	-0.5760	61.5696	99.9123	62.0380	99.8827	
   830	-1.0260	 0.2023	-0.8237	-1.0327	-0.0504	-1.0831	-0.6078	 0.0672	-0.5407	61.4766	99.9135	62.4379	99.8787	
   831	-1.0319	 0.2270	-0.8049	-1.0378	-0.0291	-1.0669	-0.6129	 0.0747	-0.5383	61.5230	99.9121	61.6767	99.8823	
   832	-1.0696	 0.2179	-0.8516	-1.0772	-0.0411	-1.1183	-0.6585	 0.0567	-0.6018	61.5178	99.9111	60.4786	99.8823	
   833	-1.0860	 0.1937	-0.8923	-1.0780	-0.0538	-1.1318	-0.6309	 0.0527	-0.5783	61.5764	99.9124	60.8189	99.8942	
   834	-1.0560	 0.1980	-0.8580	-1.0520	-0.0500	-1.1020	-0.5758	 0.0445	-0.5313	61.7259	99.9133	61.1445	99.8968	
   835	-1.0560	 0.1980	-0.8580	-1.0461	-0.0586	-1.1047	-0.5975	 0.0522	-0.5454	61.6263	99.9138	61.2279	99.9042	
   836	-1.0705	 0.2032	-0.8673	-1.0713	-0.0497	-1.1210	-0.6302	 0.0638	-0.5665	61.5265	99.9138	61.3084	99.9064	
   837	-1.0928	 0.2036	-0.8891	-1.0906	-0.0494	-1.1399	-0.6527	 0.0604	-0.5924	61.5248	99.9129	61.3163	99.9075	
   838	-1.1305	 0.1946	-0.9359	-1.1232	-0.0573	-1.1805	-0.6816	 0.0422	-0.6395	61.5713	99.9115	61.4240	99.9097	
   839	-1.1536	 0.1803	-0.9734	-1.1559	-0.0652	-1.2211	-0.7265	 0.0353	-0.6913	61.4695	99.9106	61.3116	99.9111	
   840	-1.2059	 0.1764	-1.0294	-1.1953	-0.0773	-1.2725	-0.7663	 0.0210	-0.7454	61.5161	99.9102	61.4275	99.9140	
   841	-1.2136	 0.1717	-1.0419	-1.2204	-0.0684	-1.2888	-0.7772	 0.0249	-0.7524	61.4678	99.9103	61.5810	99.9206	
   842	-1.2117	 0.2011	-1.0106	-1.1870	-0.0478	-1.2347	-0.7354	 0.0725	-0.6629	61.4801	99.9136	61.5781	99.9206	
   843	-1.1517	 0.2097	-0.9420	-1.1157	-0.0405	-1.1562	-0.6411	 0.0676	-0.5736	61.6811	99.9134	61.6823	99.9249	
   844	-1.1527	 0.1950	-0.9577	-1.1299	-0.0614	-1.1913	-0.6700	 0.0495	-0.6207	61.6263	99.9138	61.6447	99.9251	
   845	-1.1759	 0.1807	-0.9951	-1.1685	-0.0608	-1.2293	-0.7092	 0.0462	-0.6630	61.5265	99.9127	61.5087	99.9244	
   846	-1.2126	 0.1864	-1.0262	-1.1878	-0.0605	-1.2482	-0.7367	 0.0503	-0.6865	61.5265	99.9121	61.5522	99.9254	
   847	-1.2271	 0.1916	-1.0356	-1.2063	-0.0474	-1.2537	-0.7469	 0.0653	-0.6818	61.4801	99.9125	61.4339	99.9288	
   848	-1.2194	 0.1963	-1.0231	-1.1996	-0.0433	-1.2429	-0.7520	 0.0728	-0.6794	61.4301	99.9122	61.3394	99.9274	
   849	-1.2416	 0.1968	-1.0449	-1.2314	-0.0385	-1.2700	-0.7694	 0.0619	-0.7076	61.4766	99.9113	61.4339	99.9260	
   850	-1.2716	 0.1925	-1.0791	-1.2582	-0.0550	-1.3132	-0.8034	 0.0512	-0.7523	61.4731	99.9123	61.4369	99.9285	
   851	-1.3016	 0.1882	-1.1134	-1.2716	-0.0633	-1.3349	-0.8259	 0.0478	-0.7782	61.4731	99.9118	61.3920	99.9286	
   852	-1.3084	 0.1981	-1.1102	-1.2641	-0.0465	-1.3106	-0.7803	 0.0657	-0.7147	61.5816	99.9134	61.3669	99.9266	
   853	-1.2562	 0.2020	-1.0542	-1.1996	-0.0433	-1.2429	-0.6969	 0.0646	-0.6324	61.7342	99.9138	61.7244	99.9321	
   854	-1.2503	 0.1773	-1.0730	-1.2204	-0.0684	-1.2888	-0.7323	 0.0317	-0.7007	61.6761	99.9130	61.5484	99.9321	
   855	-1.2967	 0.1488	-1.1480	-1.2740	-0.1014	-1.3753	-0.8119	 0.0031	-0.8089	61.5696	99.9123	61.6014	99.9321	
   856	-1.3276	 0.1297	-1.1979	-1.3008	-0.1178	-1.4186	-0.8401	-0.0040	-0.8442	61.5213	99.9128	61.5986	99.9334	
   857	-1.3499	 0.1302	-1.2197	-1.3267	-0.1216	-1.4484	-0.8626	-0.0074	-0.8701	61.5196	99.9136	61.4800	99.9337	
   858	-1.3653	 0.1206	-1.2447	-1.3401	-0.1299	-1.4700	-0.8857	-0.0219	-0.9077	61.5161	99.9119	61.7369	99.9377	
   859	-1.3808	 0.1111	-1.2697	-1.3661	-0.1337	-1.4998	-0.9082	-0.0253	-0.9336	61.4660	99.9122	61.2340	99.9325	
   860	-1.4040	 0.0969	-1.3071	-1.3996	-0.1543	-1.5538	-0.9429	-0.0471	-0.9901	61.4607	99.9129	61.6057	99.9359	
   861	-1.4485	 0.0977	-1.3507	-1.4255	-0.1581	-1.5836	-0.9595	-0.0469	-1.0066	61.5126	99.9135	61.7136	99.9356	
   862	-1.4485	 0.0977	-1.3507	-1.4314	-0.1495	-1.5810	-0.9698	-0.0320	-1.0018	61.4159	99.9135	61.5243	99.9344	
   863	-1.4475	 0.1125	-1.3350	-1.4113	-0.1372	-1.5485	-0.9191	-0.0215	-0.9407	61.5713	99.9148	62.0299	99.9394	
   864	-1.4185	 0.1021	-1.3164	-1.3795	-0.1419	-1.5214	-0.9024	-0.0217	-0.9242	61.5230	99.9137	61.6270	99.9353	
   865	-1.4339	 0.0925	-1.3414	-1.3937	-0.1629	-1.5565	-0.9371	-0.0435	-0.9807	61.5161	99.9130	62.0842	99.9424	
   866	-1.4571	 0.0783	-1.3789	-1.4263	-0.1708	-1.5971	-0.9544	-0.0544	-1.0089	61.5161	99.9135	61.5958	99.9342	
   867	-1.4716	 0.0835	-1.3882	-1.4389	-0.1663	-1.6053	-0.9544	-0.0544	-1.0089	61.5661	99.9138	61.8635	99.9441	
   868	-1.4794	 0.0787	-1.4007	-1.4456	-0.1705	-1.6161	-0.9711	-0.0542	-1.0254	61.5161	99.9135	61.1620	99.9323	
   869	-1.4794	 0.0787	-1.4007	-1.4515	-0.1619	-1.6134	-0.9704	-0.0431	-1.0136	61.4695	99.9139	61.5256	99.9391	
   870	-1.4862	 0.0887	-1.3975	-1.4574	-0.1533	-1.6107	-0.9755	-0.0356	-1.0112	61.4695	99.9139	61.5568	99.9270	
   871	-1.4862	 0.0887	-1.3975	-1.4574	-0.1533	-1.6107	-0.9806	-0.0281	-1.0089	61.4212	99.9145	62.2323	99.9362	
   872	-1.4997	 0.1086	-1.3911	-1.4566	-0.1406	-1.5972	-0.9800	-0.0170	-0.9971	61.4713	99.9142	60.5076	99.9178	
   873	-1.5074	 0.1038	-1.4036	-1.4633	-0.1447	-1.6081	-0.9698	-0.0320	-1.0018	61.5696	99.9139	60.0069	99.9007	
   874	-1.5152	 0.0991	-1.4161	-1.4574	-0.1533	-1.6107	-0.9698	-0.0320	-1.0018	61.5713	99.9142	61.4122	99.9022	
   875	-1.5161	 0.0844	-1.4318	-1.4649	-0.1701	-1.6350	-0.9762	-0.0467	-1.0230	61.5696	99.9150	60.9839	99.9151	
   876	-1.5239	 0.0796	-1.4443	-1.4716	-0.1743	-1.6458	-0.9929	-0.0465	-1.0395	61.5196	99.9147	58.7977	99.8574	
   877	-1.5229	 0.0943	-1.4286	-1.4767	-0.1530	-1.6297	-0.9806	-0.0281	-1.0089	61.5230	99.9153	62.2454	99.9242	
   878	-1.5306	 0.0896	-1.4411	-1.4901	-0.1612	-1.6513	-1.0038	-0.0427	-1.0465	61.5178	99.9144	62.0438	99.9087	
   879	-1.5616	 0.0705	-1.4910	-1.5235	-0.1819	-1.7054	-1.0494	-0.0606	-1.1101	61.4643	99.9140	62.5409	99.9055	
   880	-1.5847	 0.0562	-1.5285	-1.5436	-0.1942	-1.7378	-1.0667	-0.0715	-1.1383	61.4643	99.9140	62.9279	99.9138	
   881	-1.5847	 0.0562	-1.5285	-1.5554	-0.1771	-1.7325	-1.0603	-0.0568	-1.1171	61.4195	99.9142	63.0745	99.9182	
   882	-1.5838	 0.0710	-1.5128	-1.5487	-0.1730	-1.7217	-1.0487	-0.0495	-1.0983	61.4695	99.9155	63.0787	99.9136	
   883	-1.5983	 0.0762	-1.5221	-1.5554	-0.1771	-1.7325	-1.0494	-0.0606	-1.1101	61.5661	99.9155	63.1744	99.9087	
   884	-1.6215	 0.0619	-1.5596	-1.5629	-0.1939	-1.7568	-1.0667	-0.0715	-1.1383	61.5661	99.9149	63.0340	99.8988	
   885	-1.6369	 0.0524	-1.5846	-1.5822	-0.1936	-1.7758	-1.0776	-0.0677	-1.1454	61.5196	99.9153	63.0840	99.8903	
   886	-1.6292	 0.0571	-1.5721	-1.5755	-0.1894	-1.7649	-1.0827	-0.0602	-1.1430	61.4695	99.9150	63.4424	99.8904	
   887	-1.6515	 0.0576	-1.5939	-1.5948	-0.1891	-1.7839	-1.0943	-0.0674	-1.1618	61.5178	99.9144	63.5606	99.8929	
   888	-1.6746	 0.0433	-1.6313	-1.6282	-0.2097	-1.8380	-1.1296	-0.1004	-1.2301	61.5592	99.9137	63.1703	99.8834	
   889	-1.7210	 0.0147	-1.7063	-1.6877	-0.2341	-1.9218	-1.1977	-0.1217	-1.3195	61.4554	99.9136	63.1876	99.8887	
   890	-1.7597	-0.0090	-1.7687	-1.7345	-0.2630	-1.9975	-1.2382	-0.1472	-1.3854	61.4519	99.9151	63.2321	99.8880	
   891	-1.8206	-0.0324	-1.8530	-1.7999	-0.2788	-2.0787	-1.3062	-0.1685	-1.4748	61.3980	99.9137	63.3791	99.8862	
   892	-1.9192	-0.0648	-1.9840	-1.8928	-0.3239	-2.2166	-1.3923	-0.2119	-1.6043	61.4412	99.9149	63.2855	99.8844	
   893	-1.9655	-0.0934	-2.0589	-1.9069	-0.3448	-2.2518	-1.3647	-0.2160	-1.5808	61.5541	99.9176	63.3299	99.8856	
   894	-1.9027	-0.0406	-1.9433	-1.8384	-0.2782	-2.1166	-1.2811	-0.1207	-1.4018	61.4248	99.9209	63.3744	99.8842	
   895	-1.8545	 0.0174	-1.8370	-1.8227	-0.2319	-2.0545	-1.2797	-0.0984	-1.3782	61.4141	99.9197	63.2777	99.8820	
   896	-1.9569	-0.0739	-2.0307	-1.9656	-0.3565	-2.3221	-1.4661	-0.2369	-1.7031	61.3800	99.9192	63.2806	99.8813	
   897	-2.3481	-0.3854	-2.7336	-2.3668	-0.7013	-3.0681	-1.9051	-0.5984	-2.5036	61.4766	99.9163	63.2777	99.8801	
   898	-3.0466	-0.9709	-4.0175	-3.0319	-1.3551	-4.3870	-2.6979	-1.2890	-3.9869	61.7316	99.9035	63.2748	99.8790	
   899	-3.8554	-1.4264	-5.2818	-3.6771	-1.6916	-5.3686	-3.1717	-1.4905	-4.6624	61.4810	99.9131	63.3184	99.8773	
   900	-3.8322	-1.4122	-5.2444	-3.6066	-1.6970	-5.3036	-3.0839	-1.5102	-4.5942	61.8394	99.9120	63.3641	99.8769	
   901	-3.7848	-1.4819	-5.2667	-3.5669	-1.7824	-5.3493	-3.0226	-1.6000	-4.6227	62.0877	99.9147	63.3631	99.8773	
   902	-3.7383	-1.5664	-5.3046	-3.5741	-1.8966	-5.4707	-3.0055	-1.6855	-4.6911	62.1312	99.9248	63.3165	99.8764	
   903	-3.6165	-1.5197	-5.1362	-3.5071	-1.8554	-5.3626	-2.9144	-1.6496	-4.5640	62.1312	99.9289	63.3622	99.8748	
   904	-3.3846	-1.3769	-4.7615	-3.3370	-1.6041	-4.9411	-2.6260	-1.2973	-3.9235	61.3981	99.9422	63.3194	99.8736	
   905	-3.2118	-1.1150	-4.3268	-3.0547	-1.3082	-4.3628	-2.3180	-0.9861	-3.3042	61.4537	99.9393	63.3650	99.8740	
   906	-2.7181	-0.7122	-3.4303	-2.5546	-0.9269	-3.4815	-1.8592	-0.6657	-2.5250	61.6678	99.9330	63.3641	99.8722	
   907	-2.4775	-0.5499	-3.0274	-2.3255	-0.7613	-3.0868	-1.6279	-0.5204	-2.1483	61.7292	99.9318	63.4097	99.8713	
   908	-2.2901	-0.4063	-2.6964	-2.1432	-0.6246	-2.7678	-1.4646	-0.3964	-1.8611	61.7358	99.9305	63.3697	99.8693	
   909	-2.1732	-0.3202	-2.4933	-2.0353	-0.5460	-2.5813	-1.3843	-0.3566	-1.7411	61.8270	99.9256	63.7324	99.8691	
   910	-2.1664	-0.3301	-2.4965	-2.0259	-0.6012	-2.6271	-1.4224	-0.4340	-1.8565	62.0024	99.9234	63.6362	99.8663	
   911	-2.2823	-0.5145	-2.7968	-2.1693	-0.8360	-3.0053	-1.6240	-0.7318	-2.3558	62.3506	99.9165	63.1328	99.8622	
   912	-2.7430	-0.9819	-3.7249	-2.6973	-1.3566	-4.0539	-2.2681	-1.2648	-3.5330	62.2262	99.9124	62.0613	99.8666	
   913	-3.2454	-1.2912	-4.5367	-3.1206	-1.6417	-4.7622	-2.6722	-1.5081	-4.1804	62.1702	99.9116	61.0263	99.8833	
   914	-3.4261	-1.4448	-4.8709	-3.3178	-1.8120	-5.1298	-2.8657	-1.6724	-4.5382	62.2033	99.9142	60.9560	99.8880	
   915	-3.5604	-1.5699	-5.1303	-3.4548	-1.9453	-5.4001	-3.0007	-1.7894	-4.7902	62.1941	99.9167	61.8177	99.8764	
   916	-3.6164	-1.6327	-5.2490	-3.5359	-2.0074	-5.5434	-3.0765	-1.8477	-4.9243	62.1360	99.9185	62.5607	99.8959	
   917	-3.6241	-1.6374	-5.2615	-3.5686	-2.0153	-5.5840	-3.0881	-1.8550	-4.9432	62.1344	99.9215	62.2434	99.8998	
   918	-3.6222	-1.6080	-5.2302	-3.5737	-1.9941	-5.5678	-3.0796	-1.8069	-4.8866	62.0385	99.9267	62.4207	99.8856	
   919	-3.5180	-1.3742	-4.8922	-3.3008	-1.6429	-4.9437	-2.5603	-1.4057	-3.9661	62.3952	99.9325	63.1538	99.8895	
   920	-2.9091	-1.1407	-4.0498	-2.8922	-1.4888	-4.3810	-2.3130	-1.2717	-3.5848	61.9581	99.9359	63.4285	99.8898	
   921	-2.9217	-1.1061	-4.0278	-2.8044	-1.4225	-4.2269	-2.2269	-1.2283	-3.4553	62.1757	99.9266	63.4415	99.8895	
   922	-2.9536	-1.1398	-4.0934	-2.8336	-1.4771	-4.3107	-2.2977	-1.2941	-3.5919	62.2113	99.9239	63.6182	99.8991	
   923	-3.1062	-1.3186	-4.4248	-3.0332	-1.6855	-4.7187	-2.5857	-1.5500	-4.1358	62.2140	99.9159	63.4303	99.8974	
   924	-3.3603	-1.4609	-4.8212	-3.2667	-1.8171	-5.0838	-2.7990	-1.6733	-4.4724	62.2079	99.9158	63.5426	99.9013	
   925	-3.4531	-1.5180	-4.9711	-3.3753	-1.9085	-5.2838	-2.9218	-1.7718	-4.6937	62.2915	99.9172	59.1149	99.8458	
   926	-3.5342	-1.6245	-5.1587	-3.4923	-2.0293	-5.5216	-3.0792	-1.8922	-4.9715	62.1676	99.9168	61.2062	99.8706	
   927	-3.6338	-1.6716	-5.3054	-3.5852	-2.0744	-5.6595	-3.1473	-1.9136	-5.0609	62.1202	99.9208	60.7766	99.8962	
   928	-3.5255	-1.6050	-5.1305	-3.4749	-1.9576	-5.4325	-2.9248	-1.7310	-4.6560	61.9642	99.9324	60.9743	99.8701	
   929	-3.1382	-1.2393	-4.3775	-2.9709	-1.5129	-4.4838	-2.3150	-1.3050	-3.6201	62.2902	99.9272	63.6526	99.9298	
   930	-2.9304	-1.1256	-4.0560	-2.8095	-1.4013	-4.2108	-2.2287	-1.1652	-3.3940	61.8429	99.9283	61.3167	99.8995	
   931	-2.8164	-1.0836	-3.9000	-2.6997	-1.3946	-4.0944	-2.1865	-1.2029	-3.3894	62.0218	99.9219	61.8241	99.8880	
   932	-2.8560	-1.1221	-3.9781	-2.7289	-1.4492	-4.1781	-2.2296	-1.2728	-3.5025	62.1620	99.9197	60.8273	99.8811	
   933	-2.9361	-1.2139	-4.1500	-2.8198	-1.5663	-4.3861	-2.3660	-1.4119	-3.7780	62.2383	99.9160	60.4241	99.8698	
   934	-3.0840	-1.3190	-4.4030	-2.9687	-1.6824	-4.6510	-2.5061	-1.5213	-4.0275	62.2790	99.9179	62.4013	99.9114	
   935	-3.1777	-1.3908	-4.5685	-3.0773	-1.7737	-4.8511	-2.6398	-1.6160	-4.2559	62.2625	99.9177	61.0815	99.8969	
   936	-3.2810	-1.4969	-4.7779	-3.2002	-1.8860	-5.0862	-2.7697	-1.7404	-4.5102	62.2975	99.9167	61.3068	99.9144	
   937	-3.3389	-1.5891	-4.9280	-3.3230	-1.9983	-5.3213	-2.8989	-1.8537	-4.7527	62.2259	99.9206	61.5002	99.9196	
   938	-3.3940	-1.6371	-5.0311	-3.3900	-2.0395	-5.4295	-2.9778	-1.8712	-4.8492	62.0191	99.9225	61.8160	99.9180	
   939	-3.3574	-1.5297	-4.8871	-3.2840	-1.8888	-5.1729	-2.7945	-1.6919	-4.4865	62.0625	99.9249	61.6200	99.9126	
   940	-3.1777	-1.3908	-4.5685	-3.0750	-1.7356	-4.8106	-2.5741	-1.5427	-4.1170	62.1343	99.9233	61.8605	99.9107	
   941	-3.0549	-1.3294	-4.3844	-2.9620	-1.6782	-4.6402	-2.4714	-1.4995	-3.9710	62.1856	99.9220	61.9210	99.9044	
   942	-3.0018	-1.3108	-4.3126	-2.9033	-1.6665	-4.5699	-2.4156	-1.4966	-3.9123	62.2864	99.9211	61.7893	99.9004	
   943	-2.9795	-1.3113	-4.2908	-2.8715	-1.6713	-4.5428	-2.3823	-1.4970	-3.8793	62.3390	99.9217	62.0033	99.8980	
   944	-2.9041	-1.2931	-4.1973	-2.7927	-1.6472	-4.4400	-2.2975	-1.4758	-3.7735	62.3944	99.9213	62.0817	99.9009	
   945	-2.8210	-1.2702	-4.0912	-2.7274	-1.6314	-4.3588	-2.2462	-1.4542	-3.7005	62.3434	99.9226	61.0154	99.9066	
   946	-2.8123	-1.2507	-4.0631	-2.7266	-1.6187	-4.3453	-2.2397	-1.4395	-3.6793	62.3434	99.9242	61.2921	99.9087	
   947	-2.7814	-1.2317	-4.0131	-2.6998	-1.6022	-4.3020	-2.2115	-1.4324	-3.6440	62.3930	99.9236	60.7219	99.9128	
   948	-2.7737	-1.2270	-4.0006	-2.6923	-1.5854	-4.2777	-2.1992	-1.4141	-3.6134	62.3463	99.9232	62.6654	99.9385	
   949	-2.7573	-1.2027	-3.9600	-2.6782	-1.5644	-4.2426	-2.1812	-1.3920	-3.5734	62.3478	99.9241	61.0327	99.8917	
   950	-2.7254	-1.1690	-3.8944	-2.6506	-1.5353	-4.1859	-2.1407	-1.3666	-3.5074	62.4002	99.9252	60.9532	99.8920	
   951	-2.6722	-1.1504	-3.8226	-2.5786	-1.5153	-4.0939	-2.0669	-1.3416	-3.4086	62.4567	99.9250	61.3508	99.8951	
   952	-2.5891	-1.1275	-3.7166	-2.4998	-1.4912	-3.9911	-1.9764	-1.3168	-3.2933	62.5117	99.9262	61.5087	99.8934	
   953	-2.5360	-1.1089	-3.6448	-2.4664	-1.4706	-3.9370	-1.9366	-1.3025	-3.2392	62.5117	99.9267	61.1947	99.8872	
   954	-2.5418	-1.0842	-3.6260	-2.4530	-1.4623	-3.9153	-1.9359	-1.2914	-3.2274	62.5610	99.9267	61.3408	99.8943	
   955	-2.5350	-1.0941	-3.6291	-2.4597	-1.4665	-3.9262	-1.9475	-1.2986	-3.2462	62.5089	99.9261	61.9209	99.9147	
   956	-2.5572	-1.0937	-3.6509	-2.4790	-1.4661	-3.9451	-1.9642	-1.2984	-3.2627	62.5089	99.9261	60.7617	99.8977	
   957	-2.5572	-1.0937	-3.6509	-2.4916	-1.4617	-3.9533	-1.9751	-1.2946	-3.2698	62.4581	99.9264	60.9979	99.8940	
   958	-2.5418	-1.0842	-3.6260	-2.4589	-1.4538	-3.9127	-1.9244	-1.2841	-3.2086	62.5637	99.9273	61.3741	99.9107	
   959	-2.4741	-1.0708	-3.5449	-2.3877	-1.4465	-3.8342	-1.8403	-1.2741	-3.1145	62.6675	99.9289	62.4171	99.9107	
   960	-2.4296	-1.0717	-3.5013	-2.3617	-1.4427	-3.8044	-1.8288	-1.2668	-3.0957	62.5664	99.9289	61.1700	99.9066	
   961	-2.4441	-1.0665	-3.5106	-2.3743	-1.4383	-3.8125	-1.8454	-1.2666	-3.1121	62.5651	99.9281	61.5435	99.9042	
   962	-2.4441	-1.0665	-3.5106	-2.3810	-1.4424	-3.8233	-1.8512	-1.2702	-3.1215	62.5637	99.9288	61.6670	99.9119	
   963	-2.4587	-1.0613	-3.5199	-2.3936	-1.4379	-3.8315	-1.8621	-1.2664	-3.1286	62.5637	99.9288	61.3922	99.9069	
   964	-2.4664	-1.0660	-3.5324	-2.4003	-1.4421	-3.8423	-1.8795	-1.2773	-3.1568	62.5610	99.9272	61.4721	99.9089	
   965	-2.4741	-1.0708	-3.5449	-2.4128	-1.4376	-3.8504	-1.8737	-1.2736	-3.1474	62.5637	99.9278	61.2255	99.9045	
   966	-2.4364	-1.0617	-3.4981	-2.3424	-1.4430	-3.7854	-1.7954	-1.2672	-3.0627	62.7193	99.9294	61.1735	99.9057	
   967	-2.3842	-1.0579	-3.4421	-2.2971	-1.4396	-3.7367	-1.7505	-1.2604	-3.0110	62.7206	99.9302	60.9893	99.9063	
   968	-2.3842	-1.0579	-3.4421	-2.3223	-1.4307	-3.7530	-1.7839	-1.2600	-3.0439	62.6170	99.9291	60.9442	99.9066	
   969	-2.3987	-1.0526	-3.4514	-2.3290	-1.4348	-3.7638	-1.7896	-1.2636	-3.0533	62.6662	99.9296	60.9893	99.9079	
   970	-2.3987	-1.0526	-3.4514	-2.3408	-1.4176	-3.7585	-1.7839	-1.2600	-3.0439	62.6675	99.9284	61.2621	99.9077	
   971	-2.3987	-1.0526	-3.4514	-2.3475	-1.4218	-3.7693	-1.8114	-1.2559	-3.0674	62.5651	99.9286	61.1700	99.9062	
   972	-2.4210	-1.0522	-3.4732	-2.3609	-1.4300	-3.7909	-1.8121	-1.2670	-3.0792	62.6649	99.9293	61.5487	99.9054	
   973	-2.3910	-1.0479	-3.4389	-2.3030	-1.4310	-3.7340	-1.7447	-1.2568	-3.0016	62.7710	99.9305	61.5121	99.9023	
   974	-2.3465	-1.0488	-3.3953	-2.2704	-1.4231	-3.6934	-1.7056	-1.2536	-2.9592	62.7723	99.9303	61.3927	99.9002	
   975	-2.3542	-1.0535	-3.4078	-2.2963	-1.4269	-3.7232	-1.7396	-1.2642	-3.0040	62.7180	99.9296	61.4256	99.9007	
   976	-2.3842	-1.0579	-3.4421	-2.3164	-1.4392	-3.7557	-1.7787	-1.2674	-3.0463	62.6662	99.9296	61.7484	99.8959	
   977	-2.3919	-1.0626	-3.4546	-2.3298	-1.4475	-3.7773	-1.7852	-1.2822	-3.0675	62.7141	99.9298	61.8103	99.8919	
   978	-2.4074	-1.0721	-3.4795	-2.3432	-1.4557	-3.7989	-1.8185	-1.2818	-3.1004	62.6130	99.9293	61.7766	99.8896	
   979	-2.4296	-1.0717	-3.5013	-2.3625	-1.4554	-3.8179	-1.8192	-1.2929	-3.1122	62.7128	99.9290	61.5431	99.8848	
   980	-2.3929	-1.0773	-3.4702	-2.3172	-1.4519	-3.7691	-1.7518	-1.2826	-3.0346	62.7697	99.9302	62.0145	99.9010	
   981	-2.3484	-1.0782	-3.4266	-2.2787	-1.4526	-3.7312	-1.7076	-1.2869	-2.9946	62.8201	99.9304	61.6358	99.8950	
   982	-2.3629	-1.0730	-3.4359	-2.2979	-1.4523	-3.7502	-1.7410	-1.2865	-3.0275	62.7672	99.9301	61.4321	99.8953	
   983	-2.3774	-1.0678	-3.4452	-2.3172	-1.4519	-3.7691	-1.7685	-1.2824	-3.0510	62.7154	99.9306	61.4321	99.8942	
   984	-2.3852	-1.0726	-3.4577	-2.3239	-1.4561	-3.7800	-1.7801	-1.2897	-3.0699	62.7141	99.9298	61.1718	99.8929	
   985	-2.4006	-1.0821	-3.4827	-2.3373	-1.4643	-3.8016	-1.8083	-1.2967	-3.1052	62.6622	99.9287	61.2295	99.8981	
   986	-2.4084	-1.0869	-3.4952	-2.3566	-1.4640	-3.8206	-1.8083	-1.2967	-3.1052	62.6636	99.9300	61.0984	99.9013	
   987	-2.3784	-1.0825	-3.4609	-2.3046	-1.4564	-3.7610	-1.7352	-1.2828	-3.0181	62.7710	99.9310	61.1061	99.8958	
   988	-2.3330	-1.0687	-3.4017	-2.2720	-1.4485	-3.7204	-1.6960	-1.2796	-2.9758	62.8201	99.9319	60.6240	99.8891	
   989	-2.3330	-1.0687	-3.4017	-2.2845	-1.4440	-3.7286	-1.7236	-1.2756	-2.9993	62.7180	99.9311	61.9476	99.9102	
   990	-2.3224	-1.0198	-3.3421	-2.2680	-1.3850	-3.6530	-1.6862	-1.2093	-2.8956	62.6767	99.9323	61.5917	99.9143	
   991	-2.2287	-0.9480	-3.1766	-2.1861	-1.3101	-3.4962	-1.5930	-1.1401	-2.7332	62.6820	99.9329	61.2839	99.9076	
   992	-2.1494	-0.8709	-3.0204	-2.1101	-1.2267	-3.3368	-1.5152	-1.0484	-2.5636	62.5907	99.9339	60.9555	99.9017	
   993	-2.0693	-0.7792	-2.8485	-2.0333	-1.1306	-3.1639	-1.4155	-0.9644	-2.3800	62.6475	99.9340	61.0179	99.9056	
   994	-1.9707	-0.7467	-2.7174	-1.9345	-1.0941	-3.0286	-1.3026	-0.9361	-2.2388	62.7514	99.9339	61.4101	99.9089	
   995	-1.9175	-0.7282	-2.6457	-1.9010	-1.0735	-2.9745	-1.2686	-0.9255	-2.1941	62.7501	99.9336	61.4282	99.9114	
   996	-1.9098	-0.7234	-2.6332	-1.9069	-1.0649	-2.9719	-1.2903	-0.9178	-2.2082	62.6488	99.9328	60.8191	99.9003	
   997	-1.9002	-0.6892	-2.5894	-1.8861	-1.0399	-2.9259	-1.2774	-0.8883	-2.1658	62.6501	99.9331	61.2246	99.8944	
   998	-1.8451	-0.6412	-2.4863	-1.8242	-0.9774	-2.8016	-1.2240	-0.8333	-2.0575	62.6054	99.9306	61.6608	99.9276	
   999	-1.7523	-0.5841	-2.3364	-1.7372	-0.9238	-2.6610	-1.1540	-0.7786	-1.9327	62.5580	99.9304	61.6893	99.9274	
  1000	-1.5794	-0.4352	-2.0146	-1.5652	-0.7445	-2.3097	-0.9694	-0.5771	-1.5465	62.3348	99.9319	61.7818	99.9186	
  1001	-1.3950	-0.2227	-1.6177	-1.4175	-0.5437	-1.9612	-0.8310	-0.4046	-1.2356	62.2879	99.9312	62.0119	99.9194	
  1002	-1.3148	-0.1309	-1.4457	-1.3615	-0.4726	-1.8342	-0.8116	-0.3603	-1.1720	62.2778	99.9288	62.1406	99.9226	
  1003	-1.3738	-0.1249	-1.4986	-1.4395	-0.4840	-1.9235	-0.9072	-0.3776	-1.2850	62.2175	99.9291	62.0432	99.9216	
  1004	-1.4501	-0.1577	-1.6079	-1.5450	-0.5246	-2.0696	-1.0280	-0.4428	-1.4709	62.2012	99.9269	61.9013	99.9205	
  1005	-1.5651	-0.2144	-1.7795	-1.6595	-0.6074	-2.2669	-1.1668	-0.5300	-1.6969	62.2353	99.9266	62.2340	99.9194	
  1006	-1.6820	-0.3005	-1.9825	-1.7749	-0.7029	-2.4778	-1.2902	-0.6397	-1.9300	62.3217	99.9247	62.3264	99.9174	
  1007	-1.8086	-0.4208	-2.2294	-1.8801	-0.8409	-2.7209	-1.3765	-0.7795	-2.1561	62.5637	99.9257	61.9767	99.9098	
  1008	-1.9553	-0.6242	-2.5796	-2.0218	-1.0503	-3.0721	-1.5054	-0.9780	-2.4835	62.7037	99.9275	62.1267	99.9131	
  1009	-2.2248	-0.8891	-3.1139	-2.2707	-1.3256	-3.5963	-1.7774	-1.2452	-3.0227	62.7845	99.9259	61.9801	99.9067	
  1010	-2.5920	-1.1716	-3.7636	-2.6034	-1.6038	-4.2072	-2.1264	-1.4966	-3.6230	62.7191	99.9250	62.1157	99.9056	
  1011	-2.8161	-1.3096	-4.1258	-2.7597	-1.7367	-4.4965	-2.3063	-1.6203	-3.9267	62.7651	99.9203	62.0486	99.9079	
  1012	-3.0239	-1.4234	-4.4473	-2.9211	-1.8484	-4.7695	-2.4978	-1.7514	-4.2492	62.8549	99.9126	61.3976	99.8992	
  1013	-3.2568	-1.5809	-4.8377	-3.1821	-2.0092	-5.1913	-2.7675	-1.8888	-4.6564	62.6367	99.9158	61.2011	99.8903	
  1014	-3.2452	-1.5172	-4.7625	-3.1113	-1.9045	-5.0157	-2.6485	-1.7605	-4.4091	62.6138	99.9161	61.2460	99.8888	
  1015	-3.0018	-1.3108	-4.3126	-2.8404	-1.6888	-4.5291	-2.3496	-1.5085	-3.8582	62.5445	99.9214	61.0612	99.8866	
  1016	-2.4482	-0.8993	-3.3475	-2.2852	-1.2491	-3.5344	-1.7428	-1.0417	-2.7847	62.4469	99.9276	61.1579	99.8863	
  1017	-1.7457	-0.4810	-2.2267	-1.6663	-0.8191	-2.4854	-1.1748	-0.6634	-1.8383	62.3148	99.9230	61.0505	99.8869	
  1018	-1.5505	-0.3326	-1.8831	-1.5738	-0.6766	-2.2504	-1.2015	-0.5518	-1.7534	61.7939	99.9169	60.8843	99.8810	
  1019	-1.6608	-0.3157	-1.9764	-1.7910	-0.6518	-2.4428	-1.4400	-0.5413	-1.9814	61.3176	99.9178	60.7766	99.8813	
  1020	-1.7758	-0.3723	-2.1481	-1.8033	-0.7447	-2.5480	-1.4416	-0.6600	-2.1017	61.9168	99.9131	60.9173	99.8853	
  1021	-1.7747	-0.4706	-2.2453	-1.8147	-0.8250	-2.6397	-1.4341	-0.7194	-2.1536	61.8708	99.9160	60.8501	99.8842	
  1022	-1.7747	-0.4706	-2.2453	-1.8214	-0.8292	-2.6506	-1.4508	-0.7192	-2.1700	61.8182	99.9165	60.8068	99.8824	
  1023	-1.7979	-0.4849	-2.2828	-1.8482	-0.8456	-2.6938	-1.4803	-0.7485	-2.2289	61.8626	99.9150	60.8068	99.8817	
  1024	-1.8588	-0.5082	-2.3670	-1.9076	-0.8701	-2.7777	-1.5426	-0.7662	-2.3089	61.8099	99.9155	60.8402	99.8809	
  1025	-1.8887	-0.5125	-2.4013	-1.9277	-0.8824	-2.8101	-1.5708	-0.7732	-2.3442	61.8082	99.9157	60.8212	99.8802	
  1026	-1.9110	-0.5121	-2.4231	-1.9277	-0.8824	-2.8101	-1.5760	-0.7658	-2.3418	61.8115	99.9152	60.8677	99.8797	
  1027	-1.8801	-0.4931	-2.3731	-1.9009	-0.8659	-2.7669	-1.5477	-0.7587	-2.3065	61.8609	99.9146	60.8768	99.8802	
  1028	-1.8723	-0.4883	-2.3606	-1.8883	-0.8704	-2.7587	-1.5535	-0.7623	-2.3159	61.8576	99.9139	60.8359	99.8807	
  1029	-1.8878	-0.4978	-2.3856	-1.9269	-0.8697	-2.7966	-1.5817	-0.7694	-2.3512	61.8049	99.9139	60.8931	99.8793	
  1030	-1.9100	-0.4974	-2.4074	-1.9462	-0.8694	-2.8156	-1.6144	-0.7579	-2.3724	61.7042	99.9142	60.9483	99.8812	
  1031	-1.9323	-0.4969	-2.4292	-1.9596	-0.8777	-2.8372	-1.6318	-0.7688	-2.4006	61.7520	99.9138	61.0422	99.8792	
  1032	-1.9622	-0.5012	-2.4635	-1.9981	-0.8770	-2.8751	-1.6600	-0.7758	-2.4359	61.7503	99.9135	60.9660	99.8823	
  1033	-1.9922	-0.5056	-2.4978	-2.0048	-0.8811	-2.8859	-1.6767	-0.7756	-2.4524	61.7520	99.9121	61.0699	99.8850	
  1034	-1.9845	-0.5008	-2.4853	-1.9922	-0.8856	-2.8778	-1.6549	-0.7833	-2.4383	61.8527	99.9129	61.0543	99.8884	
  1035	-1.9777	-0.5108	-2.4885	-1.9989	-0.8897	-2.8886	-1.6773	-0.7867	-2.4642	61.7486	99.9120	60.9961	99.8842	
  1036	-2.0077	-0.5151	-2.5227	-2.0316	-0.8976	-2.9292	-1.6947	-0.7976	-2.4924	61.7982	99.9132	60.8650	99.8823	
  1037	-2.0376	-0.5194	-2.5570	-2.0576	-0.9014	-2.9590	-1.7229	-0.8047	-2.5277	61.7965	99.9123	60.9836	99.8799	
  1038	-2.0531	-0.5289	-2.5820	-2.0836	-0.9052	-2.9888	-1.7563	-0.8042	-2.5606	61.6939	99.9122	61.0293	99.8823	
  1039	-2.0831	-0.5332	-2.6163	-2.1036	-0.9176	-3.0212	-1.7845	-0.8113	-2.5959	61.6922	99.9124	60.9236	99.8806	
  1040	-2.0985	-0.5427	-2.6413	-2.1229	-0.9173	-3.0402	-1.7903	-0.8149	-2.6053	61.6939	99.9122	60.9307	99.8815	
  1041	-2.0908	-0.5380	-2.6288	-2.1162	-0.9131	-3.0293	-1.7736	-0.8151	-2.5889	61.7452	99.9126	60.9289	99.8824	
  1042	-2.0908	-0.5380	-2.6288	-2.1103	-0.9217	-3.0320	-1.7794	-0.8188	-2.5983	61.7435	99.9128	60.7875	99.8822	
  1043	-2.1063	-0.5475	-2.6538	-2.1489	-0.9210	-3.0699	-1.8077	-0.8258	-2.6336	61.6904	99.9128	60.7709	99.8861	
  1044	-2.1362	-0.5518	-2.6880	-2.1690	-0.9334	-3.1024	-1.8359	-0.8329	-2.6689	61.6887	99.9130	60.8006	99.8861	
  1045	-2.1662	-0.5561	-2.7223	-2.1890	-0.9458	-3.1348	-1.8641	-0.8399	-2.7042	61.6870	99.9132	60.6835	99.8850	
  1046	-2.1894	-0.5704	-2.7598	-2.2091	-0.9582	-3.1673	-1.8873	-0.8545	-2.7418	61.6853	99.9123	60.7840	99.8845	
  1047	-2.2193	-0.5747	-2.7941	-2.2477	-0.9575	-3.2052	-1.9097	-0.8579	-2.7677	61.6853	99.9129	60.8286	99.8914	
  1048	-2.1971	-0.5752	-2.7723	-2.2158	-0.9623	-3.1781	-1.8815	-0.8508	-2.7324	61.6887	99.9140	60.6502	99.8903	
  1049	-2.1826	-0.5804	-2.7630	-2.2091	-0.9582	-3.1673	-1.8655	-0.8622	-2.7277	61.7384	99.9124	60.6304	99.8905	
