OxySoft export of:	C:\Users\TO3 TechSupport\Documents\Train2Adapt\Post_tests\T2A_04_POST_NIRS
Export date:	2022/12/21 08:06:35
Start of measurement:	2022-12-21 07:18:05.249

Datafile sample rate:	10.00	Hz
Datafile duration:	2886.200	s
Datafile total number of samples:	28862

Description:	

Optode-template:	PortaMon TSI Fit Factor
Optode distance (mm):	 35.00
Optode gradients (mm):	 5.00
DPF:	6.20

Device id:	291
# Receivers:	1
# Light sources:	6
# ADC:	2

Light source wavelengths:
device	index	wavelength
1	1	847	nm
1	2	761	nm
1	3	848	nm
1	4	761	nm
1	5	848	nm
1	6	762	nm

Export sample rate:	10.00	Hz
Selected time span:	0	2886.200
Selected time span (sample numbers):	0	28862


Legend:
Column	Trace (Measurement)
1	(Sample number)
2	Rx1-Tx1 O2Hb (T2A_04_POST_NIRS)
3	Rx1-Tx1 HHb (T2A_04_POST_NIRS)
4	Rx1-Tx1 tHb (T2A_04_POST_NIRS)
5	Rx1-Tx1 HbDiff (T2A_04_POST_NIRS)
6	Rx1-Tx2 O2Hb (T2A_04_POST_NIRS)
7	Rx1-Tx2 HHb (T2A_04_POST_NIRS)
8	Rx1-Tx2 tHb (T2A_04_POST_NIRS)
9	Rx1-Tx2 HbDiff (T2A_04_POST_NIRS)
10	Rx1-Tx3 O2Hb (T2A_04_POST_NIRS)
11	Rx1-Tx3 HHb (T2A_04_POST_NIRS)
12	Rx1-Tx3 tHb (T2A_04_POST_NIRS)
13	Rx1-Tx3 HbDiff (T2A_04_POST_NIRS)
14	Rx1-Tx1,Tx2,Tx3 TSI% (T2A_04_POST_NIRS)
15	Rx1-Tx1,Tx2,Tx3 TSI Fit Factor (T2A_04_POST_NIRS)
16	(Event)


1	2	3	4	5	6	7	8	9	10	11	12	13	14	15	16
     0	119.5344	55.9943	175.5289	63.5401	93.1449	42.7974	135.9422	50.3475	76.7108	37.4511	114.1624	39.2597	43.7250	98.5201	
     1	 0.5423	 0.6139	 1.1563	-0.0715	 0.8056	 0.3175	 1.1230	 0.4881	 0.8366	 0.1362	 0.9733	 0.7003	66.2690	99.9509	
     2	 0.5932	 0.7966	 1.3899	-0.2033	 0.8322	 0.6601	 1.4922	 0.1722	 0.8687	 0.6414	 1.5106	 0.2273	65.1036	99.9552	
     3	 0.6766	 1.2575	 1.9342	-0.5809	 0.9156	 1.2719	 2.1873	-0.3563	 1.0212	 1.2657	 2.2874	-0.2446	64.4283	99.9529	
     4	 0.7211	 1.6038	 2.3250	-0.8828	 0.9627	 1.6137	 2.5764	-0.6510	 1.0037	 1.6252	 2.6294	-0.6216	64.0336	99.9511	
     5	 0.7757	 1.8497	 2.6255	-1.0740	 1.1084	 1.8847	 2.9930	-0.7762	 1.1712	 1.9578	 3.1295	-0.7868	63.8344	99.9520	
     6	 0.9682	 1.9801	 2.9484	-1.0119	 1.3000	 2.0005	 3.3004	-0.7005	 1.3263	 2.0517	 3.3785	-0.7255	63.8708	99.9497	
     7	 1.0015	 2.0001	 3.0017	-0.9985	 1.3015	 2.0276	 3.3290	-0.7260	 1.3853	 2.0296	 3.4154	-0.6444	64.0498	99.9501	
     8	 1.0015	 2.0001	 3.0017	-0.9985	 1.3954	 1.9929	 3.3882	-0.5975	 1.4399	 2.0395	 3.4799	-0.5997	64.1250	99.9495	
     9	 1.0940	 1.9337	 3.0278	-0.8396	 1.4206	 1.9560	 3.3765	-0.5353	 1.4666	 1.9747	 3.4418	-0.5082	64.0860	99.9487	
    10	 0.8821	 1.8829	 2.7652	-1.0008	 1.1179	 1.9295	 3.0473	-0.8116	 1.0985	 2.0642	 3.1632	-0.9658	63.2905	99.9546	
    11	 0.7970	 2.0756	 2.8727	-1.2785	 1.1367	 2.1368	 3.2734	-1.0000	 1.1947	 2.1803	 3.3754	-0.9857	63.6950	99.9486	
    12	 0.6925	 2.0739	 2.7664	-1.3814	 0.9649	 2.1242	 3.0890	-1.1593	 0.9582	 2.1412	 3.0999	-1.1831	63.5016	99.9463	
    13	 0.5693	 1.6196	 2.1890	-1.0502	 0.6900	 1.5141	 2.2040	-0.8241	 0.6177	 1.3685	 1.9867	-0.7508	64.3313	99.9443	
    14	 0.4027	 1.1088	 1.5116	-0.7061	 0.5176	 0.9006	 1.4181	-0.3830	 0.5081	 0.6429	 1.1515	-0.1349	65.4226	99.9447	
    15	 0.5025	 0.6205	 1.1231	-0.1180	 0.5541	 0.3482	 0.9022	 0.2059	 0.5481	 0.0194	 0.5679	 0.5286	66.1597	99.9451	
    16	 0.5320	 0.1662	 0.6984	 0.3658	 0.5251	-0.1524	 0.3726	 0.6775	 0.4825	-0.5524	-0.0694	 1.0347	66.7214	99.9423	
    17	 0.1535	-0.2582	-0.1046	 0.4118	 0.0790	-0.4091	-0.3302	 0.4882	 0.0381	-0.5437	-0.5052	 0.5817	65.3390	99.9546	
    18	-0.0685	-0.0715	-0.1399	 0.0030	-0.1079	-0.0914	-0.1994	-0.0165	-0.1260	-0.1110	-0.2364	-0.0151	64.4180	99.9560	
    19	-0.0778	 0.0448	-0.0329	-0.1225	-0.0536	 0.0198	-0.0339	-0.0734	-0.0403	 0.0334	-0.0065	-0.0738	64.4254	99.9577	
    20	-0.0000	-0.0000	 0.0000	-0.0000	 0.0000	 0.0000	-0.0000	 0.0000	 0.0000	-0.0000	 0.0005	-0.0000	64.3875	99.9560	
    21	-0.0260	-0.0308	-0.0566	 0.0048	-0.0425	-0.0257	-0.0683	-0.0168	-0.0726	-0.0093	-0.0814	-0.0634	64.2373	99.9559	
    22	-0.1000	-0.0598	-0.1597	-0.0401	-0.1127	-0.0551	-0.1679	-0.0576	-0.0639	-0.0734	-0.1368	 0.0094	64.4977	99.9573	
    23	-0.1611	-0.1421	-0.3031	-0.0190	-0.1615	-0.1891	-0.3507	 0.0276	-0.1998	-0.1441	-0.3434	-0.0558	64.3445	99.9589	
    24	-0.1731	-0.0732	-0.2462	-0.0999	-0.1127	-0.0551	-0.1679	-0.0576	-0.0807	-0.0489	-0.1290	-0.0319	64.4642	99.9551	
    25	 0.1684	-0.0058	 0.1627	 0.1742	 0.2066	-0.0970	 0.1095	 0.3036	 0.2496	-0.1728	 0.0772	 0.4223	65.1627	99.9561	
    26	 0.4626	 0.0790	 0.5417	 0.3836	 0.5495	-0.0854	 0.4640	 0.6349	 0.6319	-0.2190	 0.4134	 0.8508	65.8279	99.9561	
    27	 0.7171	 0.1705	 0.8877	 0.5467	 0.8231	-0.0897	 0.7333	 0.9128	 0.8690	-0.2837	 0.5859	 1.1526	66.3437	99.9544	
    28	 0.8096	 0.1041	 0.9138	 0.7056	 0.8870	-0.1686	 0.7183	 1.0555	 0.9771	-0.4034	 0.5742	 1.3803	66.6389	99.9554	
    29	 0.8300	 0.0401	 0.8702	 0.7899	 0.9303	-0.2468	 0.6835	 1.1771	 0.9908	-0.4876	 0.5037	 1.4783	66.7501	99.9534	
    30	 0.8401	-0.0604	 0.7799	 0.9005	 0.8949	-0.3857	 0.5091	 1.2806	 0.9828	-0.6428	 0.3404	 1.6255	66.9738	99.9569	
    31	 0.7929	-0.1800	 0.6130	 0.9729	 0.8335	-0.5012	 0.3322	 1.3347	 0.9443	-0.8048	 0.1400	 1.7491	67.1979	99.9552	
    32	 0.7133	-0.3037	 0.4097	 1.0171	 0.7035	-0.6190	 0.0844	 1.3225	 0.7942	-0.9189	-0.1242	 1.7129	67.0901	99.9558	
    33	 0.6300	-0.3536	 0.2765	 0.9836	 0.6333	-0.6484	-0.0152	 1.2817	 0.6980	-0.9193	-0.2208	 1.6171	66.9043	99.9550	
    34	 0.5976	-0.3578	 0.2400	 0.9554	 0.5852	-0.6513	-0.0662	 1.2366	 0.6967	-0.9431	-0.2459	 1.6398	67.0157	99.9563	
    35	 0.6134	-0.3636	 0.2499	 0.9770	 0.5639	-0.6642	-0.1004	 1.2282	 0.6595	-0.9657	-0.3057	 1.6251	66.9803	99.9565	
    36	 0.6272	-0.4009	 0.2264	 1.0282	 0.5742	-0.7233	-0.1492	 1.2975	 0.5968	-1.0152	-0.4178	 1.6119	66.9081	99.9548	
    37	 0.6189	-0.5429	 0.0760	 1.1619	 0.5246	-0.8708	-0.3463	 1.3954	 0.5000	-1.1431	-0.6426	 1.6431	66.7983	99.9553	
    38	 0.5698	-0.6941	-0.1242	 1.2639	 0.4513	-0.9543	-0.5031	 1.4056	 0.4659	-1.2216	-0.7552	 1.6874	66.6852	99.9552	
    39	 0.5245	-0.7822	-0.2576	 1.3066	 0.4119	-1.0434	-0.6315	 1.4553	 0.4418	-1.3403	-0.8980	 1.7820	66.8734	99.9538	
    40	 0.5337	-0.7614	-0.2276	 1.2951	 0.4309	-1.0711	-0.6403	 1.5020	 0.4312	-1.4276	-0.9959	 1.8588	67.1769	99.9503	
    41	 0.2043	-1.0347	-0.8304	 1.2390	 0.0699	-1.3938	-1.3240	 1.4638	 0.0049	-1.6510	-1.6455	 1.6558	66.8807	99.9568	
    42	-0.1371	-0.8280	-0.9651	 0.6909	-0.2471	-0.9589	-1.2062	 0.7118	-0.1492	-1.0272	-1.1759	 0.8779	65.5627	99.9649	
    43	-0.0352	 0.0855	 0.0504	-0.1207	 0.0780	 0.2822	 0.3600	-0.2042	 0.2829	 0.4719	 0.7552	-0.1891	63.7331	99.9646	
    44	 0.4655	 0.8115	 1.2771	-0.3459	 0.7163	 0.7858	 1.5020	-0.0695	 0.6632	 0.8524	 1.5161	-0.1893	64.2693	99.9509	
    45	 0.3425	 1.1794	 1.5220	-0.8368	 0.4750	 0.8749	 1.3498	-0.3998	 0.2990	 0.5510	 0.8505	-0.2521	65.5652	99.9349	
    46	-0.4174	-0.1281	-0.5453	-0.2893	-0.5998	-0.3105	-0.9104	-0.2892	-0.5870	-0.3091	-0.8956	-0.2781	64.5127	99.9692	
    47	-0.6256	-0.2527	-0.8782	-0.3729	-0.5170	-0.2996	-0.8167	-0.2174	-0.0465	-0.2017	-0.2476	 0.1551	65.2478	99.9782	
    48	 0.6355	-0.5330	 0.1027	 1.1685	 0.6656	-0.6810	-0.0155	 1.3467	 1.1429	-0.5690	 0.5743	 1.7118	66.1943	99.9838	
    49	 1.1221	-1.4139	-0.2918	 2.5361	 0.6739	-1.7205	-1.0467	 2.3945	 0.9304	-1.7732	-0.8424	 2.7035	66.7967	99.9853	
    50	 1.1321	-2.0625	-0.9303	 3.1947	 0.5135	-2.6009	-2.0876	 3.1144	 0.5838	-2.8967	-2.3124	 3.4804	68.2009	99.9803	
    51	 0.0169	-3.2629	-3.2459	 3.2799	-1.1463	-3.7223	-4.8687	 2.5760	-1.2536	-4.0203	-5.2734	 2.7666	66.9229	99.9838	
    52	-1.1111	-3.5880	-4.6990	 2.4769	-2.5896	-3.9425	-6.5322	 1.3529	-2.7438	-4.1241	-6.8674	 1.3802	65.0572	99.9896	
    53	-2.5295	-3.2496	-5.7791	 0.7201	-3.8992	-3.5073	-7.4066	-0.3919	-3.7234	-3.6529	-7.3758	-0.0706	64.4996	99.9931	
    54	-2.9432	-3.4516	-6.3947	 0.5084	-3.8392	-3.7713	-7.6106	-0.0679	-3.5191	-4.0035	-7.5220	 0.4843	66.2814	99.9880	
    55	-1.8411	-3.1572	-4.9982	 1.3162	-2.1003	-3.4115	-5.5119	 1.3112	-1.8098	-3.7323	-5.5417	 1.9224	67.9042	99.9665	
    56	-0.5557	-2.6162	-3.1718	 2.0605	-0.9337	-3.0062	-3.9401	 2.0725	-0.8957	-3.4914	-4.3865	 2.5956	68.3815	99.9553	
    57	-0.3660	-2.3960	-2.7619	 2.0301	-0.7352	-2.7686	-3.5039	 2.0335	-0.7015	-3.2235	-3.9245	 2.5219	68.1391	99.9561	
    58	-0.3363	-2.0281	-2.3643	 1.6918	-0.6700	-2.1156	-2.7857	 1.4456	-0.8744	-2.0328	-2.9067	 1.1583	64.7108	99.9651	
    59	-1.0227	-1.1298	-2.1524	 0.1071	-0.9746	-1.2292	-2.2040	 0.2546	-0.6947	-1.2301	-1.9243	 0.5353	65.7137	99.9699	
    60	-0.6102	-1.7658	-2.3759	 1.1557	-0.9451	-2.1383	-3.0836	 1.1932	-0.6019	-2.3420	-2.9434	 1.7401	67.3396	99.9810	
    61	-0.0468	-2.5703	-2.6170	 2.5236	-0.6641	-3.0782	-3.7424	 2.4141	-0.6108	-3.4462	-4.0565	 2.8353	68.1539	99.9750	
    62	-0.6919	-3.5654	-4.2573	 2.8736	-1.6917	-4.0391	-5.7309	 2.3475	-1.6420	-4.3247	-5.9663	 2.6826	67.4801	99.9857	
    63	-1.3860	-4.1636	-5.5495	 2.7776	-2.5152	-4.6678	-7.1831	 2.1526	-2.6305	-5.0733	-7.7033	 2.4427	67.5533	99.9790	
    64	-2.3447	-4.4787	-6.8233	 2.1340	-3.8419	-4.8827	-8.7247	 1.0408	-4.1257	-5.0414	-9.1666	 0.9156	64.9044	99.9888	
    65	-3.1291	-3.3345	-6.4636	 0.2054	-4.3423	-3.4749	-7.8173	-0.8673	-4.2436	-3.4820	-7.7251	-0.7617	63.5364	99.9912	
    66	-3.1208	-3.0555	-6.1762	-0.0652	-4.0884	-3.4650	-7.5536	-0.6234	-3.8853	-3.8781	-7.7629	-0.0073	66.4042	99.9814	
    67	-2.1871	-3.1665	-5.3535	 0.9794	-2.5331	-3.4382	-5.9714	 0.9052	-2.2927	-3.7701	-6.0623	 1.4773	67.5676	99.9669	
    68	-0.9342	-2.6296	-3.5637	 1.6954	-1.3515	-3.0109	-4.3625	 1.6593	-1.3860	-3.5568	-4.9423	 2.1707	68.1651	99.9480	
    69	-0.7482	-2.4726	-3.2206	 1.7244	-1.2459	-2.9600	-4.2061	 1.7141	-1.3711	-3.6171	-4.9877	 2.2460	68.5395	99.9433	
    70	-1.1211	-2.9394	-4.0605	 1.8183	-1.8260	-3.4023	-5.2283	 1.5763	-1.9711	-3.9456	-5.9163	 1.9744	67.8040	99.9564	
    71	-1.7364	-2.6074	-4.3437	 0.8710	-2.2606	-2.6337	-4.8945	 0.3731	-2.2708	-2.5309	-4.8012	 0.2600	64.1886	99.9762	
    72	-1.7743	-2.1582	-3.9323	 0.3839	-2.0597	-2.3555	-4.4154	 0.2958	-1.8003	-2.5006	-4.3005	 0.7002	66.2378	99.9736	
    73	-0.7556	-2.5988	-3.3543	 1.8432	-1.3783	-3.1184	-4.4968	 1.7401	-1.3165	-3.3760	-4.6920	 2.0593	67.4949	99.9808	
    74	-0.8806	-3.3587	-4.2393	 2.4781	-1.7604	-3.8065	-5.5670	 2.0461	-1.7017	-4.0833	-5.7845	 2.3815	67.3542	99.9831	
    75	-1.4221	-4.0939	-5.5158	 2.6718	-2.6871	-4.6803	-7.3675	 1.9933	-2.9526	-5.1410	-8.0932	 2.1883	67.3645	99.9774	
    76	-2.4659	-4.3533	-6.8191	 1.8875	-3.9184	-4.7853	-8.7038	 0.8669	-4.1959	-5.0029	-9.1983	 0.8069	65.1546	99.9867	
    77	-3.1069	-3.3669	-6.4738	 0.2600	-4.3635	-3.4878	-7.8515	-0.8757	-4.3863	-3.4527	-7.8386	-0.9337	62.9979	99.9903	
    78	-3.2087	-3.0472	-6.2558	-0.1614	-4.2484	-3.5096	-7.7581	-0.7388	-4.1683	-3.8875	-8.0553	-0.2809	65.9974	99.9826	
    79	-2.1612	-2.9987	-5.1598	 0.8375	-2.5126	-3.3214	-5.8342	 0.8088	-2.3951	-3.7743	-6.1689	 1.3791	67.7750	99.9563	
    80	-1.1424	-2.6172	-3.7595	 1.4749	-1.6204	-3.0429	-4.6633	 1.4225	-1.7000	-3.5849	-5.2844	 1.8848	67.9804	99.9502	
    81	-1.0822	-2.6878	-3.7699	 1.6056	-1.7228	-3.1571	-4.8800	 1.4343	-1.8930	-3.7133	-5.6058	 1.8202	67.7594	99.9525	
    82	-1.2386	-2.8880	-4.1265	 1.6493	-1.8717	-3.2472	-5.1190	 1.3754	-2.1842	-3.4153	-5.5990	 1.2310	65.8435	99.9656	
    83	-1.9955	-2.3667	-4.3620	 0.3712	-2.4515	-2.3836	-4.8352	-0.0679	-2.1659	-2.3634	-4.5288	 0.1973	64.8588	99.9802	
    84	-1.1516	-2.3639	-3.5154	 1.2124	-1.7387	-2.7228	-4.4616	 0.9841	-1.4061	-2.8981	-4.3037	 1.4920	66.8956	99.9864	
    85	-0.5992	-2.8097	-3.4088	 2.2105	-1.3854	-3.2402	-4.6257	 1.8549	-1.2358	-3.5584	-4.7937	 2.3225	67.4974	99.9816	
    86	-1.0352	-3.5274	-4.5625	 2.4922	-2.0023	-3.9659	-5.9683	 1.9636	-2.0126	-4.3986	-6.4107	 2.3860	67.6095	99.9751	
    87	-2.0393	-4.3415	-6.3808	 2.3023	-3.4557	-4.8318	-8.2876	 1.3762	-3.7129	-5.1964	-8.9088	 1.4834	66.2433	99.9823	
    88	-2.7980	-3.8518	-6.6497	 1.0539	-4.1268	-4.0105	-8.1375	-0.1163	-4.1714	-3.9472	-8.1181	-0.2243	63.3922	99.9926	
    89	-2.6959	-2.5272	-5.2230	-0.1687	-3.8672	-2.8351	-6.7023	-1.0321	-3.9271	-3.1748	-7.1014	-0.7524	64.5733	99.9779	
    90	-2.9107	-2.8993	-5.8099	-0.0114	-3.5643	-3.1611	-6.7255	-0.4032	-3.2673	-3.4347	-6.7015	 0.1673	66.2405	99.9792	
    91	-1.0673	-2.1612	-3.2285	 1.0939	-1.3241	-2.5373	-3.8616	 1.2132	-1.2912	-3.0021	-4.2928	 1.7108	67.8696	99.9516	
    92	-0.4159	-1.8778	-2.2936	 1.4620	-0.8536	-2.3311	-3.1848	 1.4775	-0.9734	-2.9023	-3.8753	 1.9288	67.9237	99.9466	
    93	-0.4862	-1.9808	-2.4669	 1.4947	-0.9308	-2.4822	-3.4131	 1.5514	-1.1658	-3.0187	-4.1841	 1.8528	67.7765	99.9458	
    94	-1.1533	-1.8474	-3.0006	 0.6941	-1.5010	-1.8087	-3.3098	 0.3077	-1.5461	-1.6529	-3.1985	 0.1066	63.8042	99.9709	
    95	-0.8451	-1.1148	-1.9597	 0.2697	-0.7965	-1.2259	-2.0225	 0.4294	-0.3459	-1.3428	-1.6882	 0.9968	66.5297	99.9708	
    96	 0.1153	-1.7274	-1.6120	 1.8427	-0.4603	-2.1585	-2.6188	 1.6982	-0.3356	-2.4237	-2.7588	 2.0881	67.1618	99.9788	
    97	-0.4456	-2.6568	-3.1023	 2.2112	-1.3287	-3.0884	-4.4172	 1.7598	-1.2619	-3.3660	-4.6274	 2.1040	66.9496	99.9830	
    98	-1.0944	-3.1670	-4.2612	 2.0726	-2.0750	-3.5659	-5.6410	 1.4909	-2.1027	-3.9327	-6.0350	 1.8299	66.8429	99.9768	
    99	-1.5015	-3.2584	-4.7598	 1.7570	-2.7679	-3.5934	-6.3614	 0.8254	-2.9655	-3.7610	-6.7260	 0.7954	64.8197	99.9847	
   100	-1.8067	-2.1623	-3.9689	 0.3557	-3.0522	-2.3552	-5.4076	-0.6970	-3.1149	-2.4635	-5.5779	-0.6515	63.3991	99.9861	
   101	-2.5090	-2.2174	-4.7262	-0.2916	-3.5756	-2.6456	-6.2213	-0.9299	-3.5610	-2.9532	-6.5137	-0.6079	65.1110	99.9834	
   102	-2.0907	-2.2106	-4.3012	 0.1199	-2.5539	-2.4978	-5.0518	-0.0562	-2.3892	-2.8455	-5.2342	 0.4562	66.5523	99.9670	
   103	-0.8525	-1.5151	-2.3675	 0.6626	-1.2117	-1.8948	-3.1066	 0.6832	-1.2263	-2.3267	-3.5524	 1.1003	67.0530	99.9554	
   104	-0.4629	-1.3123	-1.7752	 0.8494	-0.9405	-1.8222	-2.7628	 0.8817	-1.0568	-2.4207	-3.4770	 1.3639	67.6499	99.9493	
   105	-0.5990	-1.5764	-2.1754	 0.9775	-1.0823	-2.0255	-3.1079	 0.9432	-1.3020	-2.2800	-3.5815	 0.9779	66.2005	99.9642	
   106	-1.0764	-1.3598	-2.4362	 0.2834	-1.3908	-1.4418	-2.8327	 0.0510	-1.4090	-1.4427	-2.8512	 0.0335	64.4865	99.9673	
   107	-0.7525	-0.9071	-1.6595	 0.1547	-0.9345	-1.1266	-2.0612	 0.1921	-0.6178	-1.1373	-1.7546	 0.5194	65.7114	99.9804	
   108	 0.4291	-1.3112	-0.8820	 1.7403	-0.2720	-1.7443	-2.0165	 1.4723	-0.1545	-1.9441	-2.0980	 1.7895	66.5067	99.9842	
   109	 0.0931	-1.8320	-1.7388	 1.9251	-0.5990	-2.1901	-2.7893	 1.5911	-0.3684	-2.4783	-2.8463	 2.1098	67.0463	99.9812	
   110	-0.6640	-2.6810	-3.3449	 2.0170	-1.7740	-3.2142	-4.9883	 1.4402	-1.8800	-3.6938	-5.5733	 1.8138	67.0896	99.9765	
   111	-1.6421	-3.1904	-4.8324	 1.5483	-2.9784	-3.5640	-6.5425	 0.5856	-3.1896	-3.7925	-6.9815	 0.6028	64.8517	99.9843	
   112	-1.9603	-2.1781	-4.1383	 0.2179	-3.3659	-2.4536	-5.8196	-0.9123	-3.6245	-2.5521	-6.1761	-1.0724	62.7844	99.9866	
   113	-2.5173	-2.0853	-4.6025	-0.4319	-3.6954	-2.5876	-6.2831	-1.1078	-3.6975	-3.0359	-6.7329	-0.6618	65.4677	99.9814	
   114	-1.7566	-1.8584	-3.6149	 0.1017	-2.2025	-2.1024	-4.3050	-0.1001	-2.0436	-2.4397	-4.4829	 0.3960	66.2778	99.9653	
   115	-0.7442	-1.0392	-1.7833	 0.2950	-1.1575	-1.4312	-2.5887	 0.2737	-1.2469	-1.9112	-3.1576	 0.6643	66.6664	99.9510	
   116	-0.4564	-0.7908	-1.2470	 0.3344	-0.9557	-1.2569	-2.2128	 0.3012	-1.1309	-1.7601	-2.8904	 0.6291	66.5906	99.9519	
   117	-0.5360	-1.0516	-1.5875	 0.5156	-1.1952	-1.6107	-2.8060	 0.4155	-1.4547	-2.2105	-3.6647	 0.7557	66.9144	99.9507	
   118	-0.9570	-1.2427	-2.1997	 0.2857	-1.4216	-1.2645	-2.6863	-0.1570	-1.4848	-1.2803	-2.7647	-0.2046	63.9074	99.9666	
   119	-0.7154	-0.5500	-1.2653	-0.1654	-0.9386	-0.7243	-1.6630	-0.2142	-0.8079	-0.7434	-1.5508	-0.0645	64.8837	99.9733	
   120	 0.0674	-0.7665	-0.6991	 0.8339	-0.6451	-1.2127	-1.8579	 0.5676	-0.6648	-1.4665	-2.1308	 0.8015	65.8135	99.9783	
   121	-0.6101	-1.4917	-2.1017	 0.8817	-1.5215	-1.9255	-3.4471	 0.4041	-1.4975	-2.2249	-3.7219	 0.7272	65.8471	99.9815	
   122	-1.5670	-2.3234	-3.8903	 0.7563	-2.7312	-2.8400	-5.5713	 0.1088	-2.8961	-3.3489	-6.2445	 0.4526	66.1201	99.9734	
   123	-2.3258	-2.5188	-4.8445	 0.1930	-3.7331	-2.8846	-6.6178	-0.8485	-4.0736	-3.1016	-7.1747	-0.9722	63.3959	99.9821	
   124	-2.6023	-1.7557	-4.3579	-0.8467	-4.1954	-2.1197	-6.3152	-2.0757	-4.4314	-2.3466	-6.7775	-2.0849	62.4445	99.9880	
   125	-2.6107	-2.1717	-4.7824	-0.4390	-3.8609	-2.6094	-6.4704	-1.2516	-3.8267	-2.9752	-6.8014	-0.8515	64.8984	99.9853	
   126	-1.8333	-1.2496	-3.0829	-0.5836	-2.4400	-1.4758	-3.9159	-0.9642	-2.4306	-1.7833	-4.2134	-0.6473	64.9505	99.9648	
   127	-1.1124	-0.4679	-1.5802	-0.6444	-1.7040	-0.8217	-2.5258	-0.8823	-1.8622	-1.2543	-3.1160	-0.6080	65.2235	99.9550	
   128	-1.1521	-0.4613	-1.6134	-0.6908	-1.9491	-0.9177	-2.8670	-1.0314	-2.2755	-1.4582	-3.7332	-0.8174	65.1262	99.9511	
   129	-1.5630	-0.6159	-2.1788	-0.9471	-2.2881	-0.9791	-3.2673	-1.3089	-2.3841	-1.4661	-3.8497	-0.9181	65.1757	99.9588	
   130	-1.3465	-0.8974	-2.2438	-0.4491	-2.0153	-1.1144	-3.1298	-0.9008	-2.3601	-1.0004	-3.3600	-1.3597	62.6175	99.9749	
   131	-1.4473	-0.1508	-1.5980	-1.2964	-1.8848	-0.1607	-2.0456	-1.7240	-1.6354	-0.1224	-1.7573	-1.5131	63.3025	99.9794	
   132	-0.3924	 0.0239	-0.3683	-0.4163	-1.2312	-0.4574	-1.6886	-0.7738	-1.4453	-0.6319	-2.0767	-0.8135	64.1339	99.9794	
   133	-1.3770	-0.5959	-1.9728	-0.7811	-2.2116	-0.9590	-3.1707	-1.2526	-2.1645	-1.1712	-3.3352	-0.9934	64.4045	99.9820	
   134	-2.0748	-1.1202	-3.1949	-0.9546	-3.1164	-1.5715	-4.6880	-1.5449	-3.2423	-1.9045	-5.1464	-1.3379	64.3540	99.9783	
   135	-2.1479	-0.9965	-3.1442	-1.1514	-3.4302	-1.3174	-4.7478	-2.1128	-3.8061	-1.2973	-5.1030	-2.5089	61.4809	99.9868	
   136	-2.2957	 0.0416	-2.2541	-2.3373	-3.6380	-0.1767	-3.8148	-3.4614	-3.8983	-0.2891	-4.1869	-3.6093	60.7908	99.9831	
   137	-3.0897	-0.2053	-3.2949	-2.8843	-4.2221	-0.3341	-4.5563	-3.8880	-4.4780	-0.3392	-4.8167	-4.1389	60.3733	99.9805	
   138	-2.8878	 0.7680	-2.1197	-3.6558	-3.6627	 0.4612	-3.2016	-4.1239	-4.0263	 0.1423	-3.8835	-4.1688	61.9075	99.9561	
   139	-3.0895	 0.8909	-2.1985	-3.9804	-3.7377	 0.7031	-3.0347	-4.4408	-3.9365	 0.4859	-3.4501	-4.4224	61.6177	99.9608	
   140	-2.6166	 1.1435	-1.4730	-3.7601	-3.0543	 0.9206	-2.1338	-3.9749	-3.1669	 0.7203	-2.4461	-3.8873	62.3813	99.9610	
   141	-1.8124	 1.5640	-0.2484	-3.3764	-2.3040	 1.4658	-0.8384	-3.7698	-2.4049	 1.2740	-1.1304	-3.6790	61.9666	99.9587	
   142	-1.4811	 1.7318	 0.2508	-3.2130	-2.0140	 1.6281	-0.3860	-3.6421	-2.2529	 1.4238	-0.8286	-3.6768	61.6880	99.9532	
   143	-1.6718	 1.6330	-0.0387	-3.3047	-2.2891	 1.6054	-0.6839	-3.8945	-2.6036	 1.6163	-0.9868	-4.2201	60.3864	99.9625	
   144	-1.6050	 2.3580	 0.7531	-3.9630	-2.0774	 2.4254	 0.3479	-4.5028	-2.4277	 2.4630	 0.0359	-4.8908	59.7358	99.9540	
   145	-2.0094	 2.4509	 0.4416	-4.4602	-2.5488	 2.4406	-0.1084	-4.9893	-2.8826	 2.5000	-0.3822	-5.3827	59.5077	99.9614	
   146	-2.2333	 2.6061	 0.3729	-4.8393	-2.7089	 2.6310	-0.0781	-5.3399	-2.9559	 2.7100	-0.2454	-5.6661	59.4305	99.9629	
   147	-2.3110	 2.7879	 0.4771	-5.0989	-2.8004	 2.8237	 0.0231	-5.6241	-3.0150	 2.8478	-0.1667	-5.8629	59.4305	99.9611	
   148	-2.5599	 2.7912	 0.2314	-5.3510	-3.0748	 2.8144	-0.2605	-5.8892	-3.2638	 2.8013	-0.4621	-6.0652	59.4461	99.9612	
   149	-2.8347	 2.7637	-0.0709	-5.5983	-3.2931	 2.8260	-0.4673	-6.1191	-3.4656	 2.8527	-0.6124	-6.3183	59.2317	99.9608	
   150	-2.8744	 2.9073	 0.0330	-5.7818	-3.2506	 2.9692	-0.2816	-6.2198	-3.3911	 3.0134	-0.3773	-6.4046	59.3023	99.9608	
   151	-2.7958	 3.0153	 0.2196	-5.8111	-3.1198	 3.1005	-0.0194	-6.2203	-3.2882	 3.1451	-0.1426	-6.4333	59.2457	99.9570	
   152	-2.8531	 2.9962	 0.1432	-5.8493	-3.2499	 3.1002	-0.1498	-6.3501	-3.4098	 3.1177	-0.2916	-6.5276	59.1125	99.9572	
   153	-2.9447	 3.0784	 0.1337	-6.0231	-3.3036	 3.2375	-0.0662	-6.5410	-3.4391	 3.3660	-0.0725	-6.8052	58.6295	99.9615	
   154	-2.7985	 3.2420	 0.4436	-6.0405	-3.1712	 3.3959	 0.2246	-6.5670	-3.3982	 3.5758	 0.1782	-6.9741	58.2167	99.9612	
   155	-2.9771	 3.2112	 0.2343	-6.1883	-3.3896	 3.4074	 0.0177	-6.7969	-3.6011	 3.6034	 0.0027	-7.2046	57.9085	99.9622	
   156	-3.0437	 3.3084	 0.2648	-6.3521	-3.3628	 3.5150	 0.1521	-6.8777	-3.4416	 3.6652	 0.2240	-7.1069	58.4096	99.9621	
   157	-2.3858	 3.4282	 1.0425	-5.8140	-2.6297	 3.6450	 1.0152	-6.2747	-2.7602	 3.8232	 1.0635	-6.5835	58.6180	99.9590	
   158	-1.9786	 3.5197	 1.5411	-5.4983	-2.3412	 3.6629	 1.3216	-6.0040	-2.5553	 3.7158	 1.1610	-6.2713	58.9336	99.9546	
   159	-2.2637	 3.3186	 1.0550	-5.5823	-2.6808	 3.3530	 0.6721	-6.0338	-2.9760	 3.3687	 0.3932	-6.3448	59.0749	99.9548	
   160	-2.7393	 3.1557	 0.4165	-5.8950	-3.1522	 3.2507	 0.0984	-6.4028	-3.3565	 3.2194	-0.1365	-6.5760	59.1019	99.9530	
   161	-3.2306	 3.1356	-0.0950	-6.3662	-3.5448	 3.2091	-0.3358	-6.7538	-3.6599	 3.1630	-0.4965	-6.8230	59.3734	99.9538	
   162	-3.3694	 3.0982	-0.2712	-6.4676	-3.6449	 3.1355	-0.5095	-6.7803	-3.7710	 3.1073	-0.6632	-6.8784	59.4425	99.9548	
   163	-3.2260	 3.3515	 0.1256	-6.5775	-3.4274	 3.4628	 0.0353	-6.8902	-3.5738	 3.6661	 0.0928	-7.2401	58.5165	99.9624	
   164	-2.5467	 3.8342	 1.2876	-6.3809	-2.8846	 4.2090	 1.3243	-7.0935	-3.0255	 4.6225	 1.5975	-7.6481	56.8391	99.9681	
   165	-2.1617	 4.3692	 2.2076	-6.5308	-2.6373	 4.8155	 2.1781	-7.4527	-3.0009	 5.3314	 2.3309	-8.3324	55.3618	99.9659	
   166	-2.4808	 4.9546	 2.4739	-7.4353	-2.9883	 5.4910	 2.5025	-8.4793	-3.3326	 6.0096	 2.6775	-9.3423	54.4775	99.9644	
   167	-2.9535	 5.6611	 2.7077	-8.6146	-3.2796	 6.3724	 3.0927	-9.6519	-3.4682	 6.8759	 3.4082	-10.3442	54.0393	99.9580	
   168	-3.2690	 5.8985	 2.6296	-9.1675	-3.4973	 6.6324	 3.1350	-10.1296	-3.6793	 7.0951	 3.4163	-10.7745	53.9886	99.9517	
   169	-3.3217	 6.0953	 2.7737	-9.4170	-3.4903	 6.8716	 3.3813	-10.3619	-3.7042	 7.3114	 3.6077	-11.0157	53.8347	99.9448	
   170	-2.7508	 6.2392	 3.4885	-8.9899	-3.1111	 6.9182	 3.8070	-10.0293	-3.3249	 7.2055	 3.8811	-10.5306	54.3310	99.9460	
   171	-2.3511	 5.7934	 3.4424	-8.1445	-2.7750	 6.3381	 3.5629	-9.1131	-3.0361	 6.5129	 3.4773	-9.5491	55.3187	99.9445	
   172	-2.8500	 5.0989	 2.2491	-7.9489	-3.4069	 5.4728	 2.0658	-8.8797	-3.8234	 5.7010	 1.8781	-9.5245	55.2056	99.9522	
   173	-3.5810	 4.9658	 1.3849	-8.5468	-4.0580	 5.3401	 1.2820	-9.3981	-4.4000	 5.5949	 1.1954	-9.9950	55.1556	99.9545	
   174	-4.1612	 4.8012	 0.6401	-8.9624	-4.5428	 5.1253	 0.5824	-9.6680	-4.8599	 5.4207	 0.5613	-10.2807	55.2441	99.9569	
   175	-4.5221	 4.8135	 0.2916	-9.3356	-4.8510	 5.2391	 0.3880	-10.0901	-5.0573	 5.5557	 0.4989	-10.6131	55.0435	99.9572	
   176	-4.4582	 4.9431	 0.4850	-9.4013	-4.7470	 5.3804	 0.6332	-10.1274	-4.9338	 5.7345	 0.8011	-10.6684	54.9822	99.9586	
   177	-4.3360	 5.1076	 0.7717	-9.4436	-4.6746	 5.5678	 0.8931	-10.2424	-4.9041	 5.9606	 1.0570	-10.8649	54.5446	99.9596	
   178	-4.2620	 5.2737	 1.0118	-9.5357	-4.6289	 5.7651	 1.1361	-10.3941	-4.8626	 6.1824	 1.3203	-11.0451	54.2352	99.9605	
   179	-4.2388	 5.3941	 1.1554	-9.6329	-4.6345	 5.9054	 1.2708	-10.5399	-4.9198	 6.3560	 1.4367	-11.2758	53.8250	99.9603	
   180	-4.3054	 5.4913	 1.1860	-9.7967	-4.7709	 6.0318	 1.2607	-10.8027	-5.0067	 6.4190	 1.4128	-11.4258	53.7702	99.9597	
   181	-4.4294	 5.5693	 1.1400	-9.9987	-4.8601	 6.1476	 1.2874	-11.0076	-5.0725	 6.5411	 1.4691	-11.6137	53.6528	99.9585	
   182	-4.4599	 5.5967	 1.1369	-10.0566	-4.8601	 6.1476	 1.2874	-11.0076	-5.0725	 6.5411	 1.4691	-11.6137	53.7663	99.9587	
   183	-4.5506	 5.5576	 1.0071	-10.1082	-4.9854	 6.1110	 1.1254	-11.0963	-5.2190	 6.4987	 1.2802	-11.7178	53.6198	99.9583	
   184	-4.7625	 5.5069	 0.7445	-10.2694	-5.1635	 5.9902	 0.8266	-11.1537	-5.4169	 6.3905	 0.9740	-11.8075	53.7301	99.9599	
   185	-4.9319	 5.4969	 0.5651	-10.4287	-5.3425	 5.9733	 0.6308	-11.3158	-5.5733	 6.3883	 0.8155	-11.9618	53.6454	99.9622	
   186	-5.0281	 5.5002	 0.4722	-10.5282	-5.4394	 5.9539	 0.5143	-11.3933	-5.7136	 6.3497	 0.6366	-12.0634	53.6047	99.9601	
   187	-5.1169	 5.4927	 0.3759	-10.6096	-5.5482	 5.9664	 0.4181	-11.5146	-5.7856	 6.3524	 0.5673	-12.1381	53.5678	99.9609	
   188	-5.0595	 5.5118	 0.4524	-10.5713	-5.4647	 5.9908	 0.5261	-11.4555	-5.7062	 6.3774	 0.6717	-12.0836	53.6233	99.9598	
   189	-5.1012	 5.4869	 0.3858	-10.5880	-5.5308	 5.9116	 0.3807	-11.4424	-5.7725	 6.2562	 0.4842	-12.0289	53.8380	99.9603	
   190	-5.2659	 5.4187	 0.1529	-10.6846	-5.7208	 5.8228	 0.1019	-11.5436	-5.9922	 6.1927	 0.2009	-12.1850	53.6453	99.9619	
   191	-5.4621	 5.3622	-0.0998	-10.8242	-5.9762	 5.7859	-0.1904	-11.7621	-6.1616	 6.0554	-0.1057	-12.2172	53.8691	99.9608	
   192	-5.6610	 5.2583	-0.4026	-10.9193	-6.2000	 5.5852	-0.6149	-11.7852	-6.4632	 5.8035	-0.6591	-12.2668	54.0179	99.9590	
   193	-5.9424	 5.1204	-0.8219	-11.0627	-6.4971	 5.4186	-1.0787	-11.9157	-6.6543	 5.7110	-0.9428	-12.3654	54.0289	99.9690	
   194	-5.8636	 5.9135	 0.0500	-11.7770	-6.1035	 6.7795	 0.6759	-12.8830	-5.9002	 7.6246	 1.7249	-13.5250	51.9172	99.9805	
   195	-3.9573	 6.7653	 2.8082	-10.7226	-3.9234	 7.6672	 3.7438	-11.5906	-3.9621	 8.1384	 4.1768	-12.1006	53.4459	99.9429	
   196	-2.9468	 6.8678	 3.9211	-9.8146	-3.1217	 7.7996	 4.6778	-10.9213	-3.4513	 8.2509	 4.8001	-11.7023	52.7906	99.9327	
   197	-2.8967	 7.4458	 4.5492	-10.3425	-3.4185	 8.7038	 5.2852	-12.1222	-3.8657	 9.4227	 5.5575	-13.2885	49.7536	99.9422	
   198	-2.2333	 7.2492	 5.0160	-9.4825	-2.6370	 8.1319	 5.4948	-10.7689	-3.1013	 8.3934	 5.2926	-11.4947	52.7753	99.9224	
   199	-2.3678	 5.5094	 3.1416	-7.8771	-2.8341	 6.1457	 3.3115	-8.9798	-3.4371	 6.6634	 3.2269	-10.1006	53.3768	99.9472	
   200	-2.6982	 5.3573	 2.6592	-8.0554	-3.1604	 5.9483	 2.7879	-9.1087	-3.8081	 6.3464	 2.5387	-10.1546	53.6675	99.9384	
   201	-3.4217	 5.7615	 2.3399	-9.1831	-4.0671	 6.3661	 2.2989	-10.4332	-4.4966	 6.6352	 2.1392	-11.1319	53.3801	99.9466	
   202	-3.7798	 5.6841	 1.9044	-9.4639	-4.5266	 6.1143	 1.5876	-10.6409	-5.0985	 6.2709	 1.1729	-11.3695	53.4800	99.9432	
   203	-4.6682	 5.1980	 0.5299	-9.8662	-5.3738	 5.4321	 0.0583	-10.8059	-5.9368	 5.5207	-0.4155	-11.4576	54.2022	99.9462	
   204	-5.4566	 4.9087	-0.5478	-10.3653	-5.9760	 5.1985	-0.7776	-11.1744	-6.1706	 5.1826	-0.9876	-11.3533	55.4117	99.9481	
   205	-5.6666	 5.0266	-0.6399	-10.6932	-6.2212	 5.3374	-0.8839	-11.5586	-6.5400	 5.4795	-1.0601	-12.0196	54.2855	99.9528	
   206	-5.7129	 5.0598	-0.6530	-10.7727	-6.3891	 5.2750	-1.1142	-11.6641	-6.7014	 5.3818	-1.3191	-12.0833	54.3513	99.9590	
   207	-5.8748	 5.0390	-0.8357	-10.9138	-6.6453	 5.2245	-1.4208	-11.8698	-6.9229	 5.2824	-1.6400	-12.2055	54.3629	99.9616	
   208	-6.0201	 5.0281	-0.9919	-11.0482	-6.8439	 5.1044	-1.7396	-11.9483	-7.1314	 5.2025	-1.9285	-12.3340	54.3396	99.9693	
   209	-6.3716	 5.8834	-0.4880	-12.2549	-7.2252	 6.5580	-0.6673	-13.7832	-7.2986	 7.4376	 0.1396	-14.7363	49.9379	99.9903	
   210	-4.7428	 6.9345	 2.1918	-11.6773	-5.0310	 7.6893	 2.6582	-12.7202	-5.1990	 8.0490	 2.8505	-13.2482	52.5721	99.9463	
   211	-3.6935	 7.0146	 3.3211	-10.7080	-4.0921	 7.8263	 3.7341	-11.9184	-4.5064	 8.1906	 3.6847	-12.6971	52.1241	99.9356	
   212	-2.9431	 7.0679	 4.1250	-10.0110	-3.4971	 8.1731	 4.6760	-11.6702	-4.0883	 8.7213	 4.6335	-12.8096	50.4262	99.9308	
   213	-3.1808	 7.2605	 4.0798	-10.4414	-3.9520	 8.2375	 4.2854	-12.1894	-4.7213	 8.6851	 3.9643	-13.4065	49.8320	99.9278	
   214	-3.8369	 6.8982	 3.0614	-10.7352	-4.6283	 8.0243	 3.3959	-12.6525	-5.4109	 8.6032	 3.1928	-14.0142	48.8112	99.9295	
   215	-4.6744	 6.5948	 1.9205	-11.2692	-5.2406	 7.6147	 2.3740	-12.8553	-5.8612	 7.9143	 2.0535	-13.7756	50.5223	99.9125	
   216	-5.0650	 5.9652	 0.9003	-11.0302	-5.4838	 6.6059	 1.1220	-12.0897	-6.1538	 6.7888	 0.6355	-12.9427	52.3709	99.9143	
   217	-4.9383	 5.3864	 0.4482	-10.3248	-5.2888	 5.9535	 0.6646	-11.2424	-5.9966	 6.3404	 0.3442	-12.3371	52.5447	99.9295	
   218	-5.0503	 5.3955	 0.3453	-10.4458	-5.4135	 6.1654	 0.7518	-11.5789	-5.8490	 6.5222	 0.6738	-12.3713	52.5948	99.9331	
   219	-5.1882	 5.3739	 0.1858	-10.5621	-5.4899	 6.0278	 0.5378	-11.5177	-5.9818	 6.3956	 0.4144	-12.3775	52.8424	99.9342	
   220	-5.3936	 5.2966	-0.0969	-10.6902	-5.7106	 5.9987	 0.2880	-11.7093	-6.0246	 6.3813	 0.3572	-12.4059	52.9788	99.9430	
   221	-5.5684	 5.6030	 0.0346	-11.1714	-5.8866	 6.3884	 0.5018	-12.2750	-6.0415	 6.8683	 0.8273	-12.9099	52.5227	99.9535	
   222	-5.3907	 6.3031	 0.9126	-11.6937	-5.8143	 7.0458	 1.2314	-12.8601	-5.8009	 7.4535	 1.6531	-13.2545	52.6263	99.9618	
   223	-4.9371	 7.0465	 2.1095	-11.9836	-5.4165	 7.7695	 2.3529	-13.1859	-5.4585	 8.1464	 2.6884	-13.6050	52.2721	99.9604	
   224	-4.4882	 7.5740	 3.0859	-12.0622	-5.1628	 8.2493	 3.0864	-13.4121	-5.2321	 8.5726	 3.3410	-13.8048	51.9422	99.9639	
   225	-4.3262	 8.0059	 3.6798	-12.3321	-5.0203	 8.7011	 3.6806	-13.7214	-5.2521	 8.8843	 3.6328	-14.1365	51.6535	99.9481	
   226	-4.2670	 8.1936	 3.9268	-12.4606	-5.0354	 8.9139	 3.8784	-13.9493	-5.3483	 8.9996	 3.6518	-14.3480	51.3942	99.9386	
   227	-4.3864	 8.0765	 3.6902	-12.4628	-5.1418	 8.8496	 3.7077	-13.9913	-5.3346	 8.9153	 3.5812	-14.2501	51.6281	99.9400	
   228	-4.5937	 7.5566	 2.9629	-12.1503	-5.5239	 8.1615	 2.6375	-13.6853	-5.8253	 8.1442	 2.3194	-13.9696	51.8912	99.9426	
   229	-5.5571	 7.0256	 1.4686	-12.5826	-6.4712	 7.5233	 1.0520	-13.9944	-6.6624	 7.4179	 0.7560	-14.0803	52.5517	99.9457	
   230	-6.2381	 6.9224	 0.6843	-13.1605	-7.2216	 7.3305	 0.1088	-14.5521	-7.3686	 7.2449	-0.1233	-14.6136	52.3513	99.9552	
   231	-6.6036	 7.1299	 0.5264	-13.7334	-7.5315	 7.5348	 0.0032	-15.0662	-7.6716	 7.5472	-0.1239	-15.2190	51.8542	99.9602	
   232	-6.4443	 7.6515	 1.2072	-14.0958	-7.3323	 8.1383	 0.8060	-15.4706	-7.4825	 8.1821	 0.7001	-15.6648	51.3320	99.9571	
   233	-5.8955	 8.2388	 2.3434	-14.1343	-6.7847	 8.8482	 2.0634	-15.6328	-7.0396	 8.9591	 1.9199	-15.9988	50.4610	99.9517	
   234	-5.5087	 8.6682	 3.1597	-14.1769	-6.4419	 9.3296	 2.8876	-15.7715	-6.8244	 9.4016	 2.5777	-16.2261	49.9460	99.9422	
   235	-5.4605	 8.9407	 3.4803	-14.4011	-6.4555	 9.6870	 3.2314	-16.1425	-6.8717	 9.7662	 2.8950	-16.6380	49.2938	99.9390	
   236	-5.5548	 9.1125	 3.5578	-14.6673	-6.6171	 9.8504	 3.2331	-16.4675	-7.0406	 9.8722	 2.8321	-16.9129	49.1168	99.9371	
   237	-5.7454	 9.1507	 3.4053	-14.8961	-6.8710	 9.8404	 2.9694	-16.7114	-7.3001	 9.9696	 2.6700	-17.2698	48.6293	99.9490	
   238	-5.8824	 9.1448	 3.2625	-15.0272	-7.0894	 9.8520	 2.7625	-16.9413	-7.2529	 9.9519	 2.6995	-17.2049	49.0463	99.9602	
   239	-5.8944	 9.0767	 3.1824	-14.9711	-7.0491	 9.8371	 2.7879	-16.8863	-7.2231	10.0624	 2.8398	-17.2856	48.6902	99.9636	
   240	-6.0166	 9.0493	 3.0328	-15.0658	-7.1162	 9.8619	 2.7456	-16.9780	-7.3038	10.1292	 2.8259	-17.4332	48.4744	99.9618	
   241	-6.1896	 8.9761	 2.7866	-15.1657	-7.2699	 9.8081	 2.5381	-17.0779	-7.5062	10.1687	 2.6630	-17.6750	48.0283	99.9639	
   242	-6.4496	 8.9270	 2.4775	-15.3767	-7.4835	 9.7833	 2.2997	-17.2668	-7.6912	10.1955	 2.5049	-17.8868	47.8772	99.9656	
   243	-6.6097	 8.9378	 2.3282	-15.5475	-7.6404	 9.9104	 2.2699	-17.5508	-7.8265	10.3680	 2.5420	-18.1947	47.3889	99.9643	
   244	-6.5773	 9.0790	 2.5018	-15.6563	-7.5372	10.1556	 2.6182	-17.6928	-7.6292	10.5800	 2.9513	-18.2093	47.5423	99.9600	
   245	-6.5107	 9.2559	 2.7453	-15.7665	-7.4112	10.3232	 2.9119	-17.7344	-7.5691	10.8130	 3.2444	-18.3822	47.3024	99.9600	
   246	-6.5773	 9.3530	 2.7759	-15.9303	-7.4987	10.4661	 2.9672	-17.9648	-7.6318	10.8791	 3.2478	-18.5110	47.2914	99.9550	
   247	-6.6402	 9.3763	 2.7362	-16.0164	-7.5768	10.5364	 2.9595	-18.1132	-7.7535	10.9674	 3.2144	-18.7210	46.9138	99.9526	
   248	-6.7614	 9.3646	 2.6033	-16.1260	-7.6682	10.4941	 2.8258	-18.1623	-7.8559	10.9633	 3.1079	-18.8192	46.8720	99.9550	
   249	-6.8882	 9.3953	 2.5072	-16.2834	-7.7913	10.6156	 2.8242	-18.4068	-7.9733	11.1351	 3.1623	-19.1085	46.4186	99.9543	
   250	-6.9381	 9.5024	 2.5644	-16.4405	-7.8118	10.7337	 2.9218	-18.5455	-8.0279	11.2408	 3.2134	-19.2688	46.3106	99.9506	
   251	-7.0140	 9.5788	 2.5649	-16.5927	-7.9017	10.8360	 2.9342	-18.7377	-8.0646	11.3458	 3.2818	-19.4105	46.2375	99.9524	
   252	-7.1176	 9.7299	 2.6124	-16.8474	-8.0003	11.0244	 3.0240	-19.0247	-8.1583	11.5088	 3.3510	-19.6673	46.0697	99.9491	
   253	-7.0749	10.0447	 2.9698	-17.1196	-7.9626	11.3214	 3.3587	-19.2840	-8.1597	11.8319	 3.6727	-19.9917	45.7648	99.9501	
   254	-6.7834	10.4932	 3.7099	-17.2766	-7.7570	11.7983	 4.0411	-19.5553	-7.8799	12.2441	 4.3646	-20.1241	45.7342	99.9508	
   255	-6.3077	10.9302	 4.6226	-17.2379	-7.3820	12.2471	 4.8650	-19.6290	-7.4741	12.5359	 5.0623	-20.0101	45.9658	99.9445	
   256	-5.9810	11.1562	 5.1752	-17.1372	-6.9871	12.4467	 5.4595	-19.4338	-7.3661	12.6475	 5.2819	-20.0138	45.7769	99.9226	
   257	-6.2430	10.8015	 4.5586	-17.0444	-7.3449	12.0606	 4.7157	-19.4054	-7.6887	12.2210	 4.5327	-19.9098	45.8691	99.9262	
   258	-6.8038	10.2831	 3.4794	-17.0868	-7.9895	11.4488	 3.4592	-19.4382	-8.3235	11.5708	 3.2479	-19.8944	46.0019	99.9311	
   259	-7.4108	10.2090	 2.7983	-17.6198	-8.5255	11.2943	 2.7688	-19.8198	-8.7951	11.4010	 2.6064	-20.1963	46.2671	99.9346	
   260	-7.5662	10.4356	 2.8695	-18.0018	-8.7132	11.4811	 2.7678	-20.1942	-8.9479	11.5862	 2.6388	-20.5341	46.1389	99.9394	
   261	-7.4496	10.7795	 3.3300	-18.2290	-8.6597	11.8137	 3.1539	-20.4734	-8.9120	11.9317	 3.0202	-20.8438	45.7768	99.9424	
   262	-7.1710	11.0071	 3.8362	-18.1781	-8.4383	12.0913	 3.6529	-20.5295	-8.7296	12.3197	 3.5905	-21.0494	45.1291	99.9479	
   263	-6.9535	11.2896	 4.3362	-18.2430	-8.1980	12.4585	 4.2605	-20.6565	-8.5045	12.7219	 4.2180	-21.2265	44.7928	99.9451	
   264	-6.8646	11.5711	 4.7066	-18.4357	-8.1264	12.8674	 4.7409	-20.9938	-8.4723	13.1115	 4.6396	-21.5839	44.2404	99.9362	
   265	-6.8387	11.8759	 5.0374	-18.7145	-8.0635	13.2449	 5.1813	-21.3084	-8.4501	13.3100	 4.8605	-21.7602	44.3361	99.9144	
   266	-6.8192	11.9332	 5.1141	-18.7524	-8.1211	13.3145	 5.1934	-21.4356	-8.5829	13.4147	 4.8322	-21.9977	43.7872	99.9154	
   267	-7.1283	11.7330	 4.6048	-18.8612	-8.4457	13.0268	 4.5809	-21.4725	-8.8894	13.0673	 4.1783	-21.9568	44.1034	99.9166	
   268	-7.8418	11.0775	 3.2358	-18.9193	-9.2984	12.2499	 2.9514	-21.5483	-9.7140	12.2328	 2.5193	-21.9469	44.2260	99.9245	
   269	-8.6987	10.8538	 2.1552	-19.5525	-10.0267	11.8486	 1.8219	-21.8753	-10.3643	11.8623	 1.4985	-22.2268	44.7500	99.9356	
   270	-8.8819	11.0182	 2.1364	-19.9001	-10.1741	12.0206	 1.8463	-22.1947	-10.3948	12.0868	 1.6924	-22.4817	44.7672	99.9437	
   271	-8.2730	11.3979	 3.1250	-19.6709	-9.5957	12.4357	 2.8399	-22.0314	-9.8358	12.5523	 2.7171	-22.3882	44.5638	99.9460	
   272	-7.7640	11.7178	 3.9539	-19.4818	-9.2458	12.8040	 3.5581	-22.0498	-9.6181	13.0426	 3.4250	-22.6608	43.4634	99.9514	
   273	-7.7862	11.8872	 4.1012	-19.6734	-9.2916	13.0766	 3.7848	-22.3682	-9.6411	13.2947	 3.6541	-22.9359	43.1201	99.9469	
   274	-7.7750	12.0766	 4.3016	-19.8516	-9.2807	13.3835	 4.1027	-22.6642	-9.6878	13.6712	 3.9839	-23.3591	42.3613	99.9436	
   275	-7.9120	12.2077	 4.2959	-20.1197	-9.4140	13.5640	 4.1499	-22.9780	-9.8076	13.5641	 3.7570	-23.3717	42.8582	99.9190	
   276	-8.4394	11.9833	 3.5440	-20.4227	-9.9783	13.1574	 3.1790	-23.1357	-10.4796	13.1226	 2.6435	-23.6023	42.8206	99.9213	
   277	-9.0020	11.8445	 2.8425	-20.8465	-10.5135	12.8990	 2.3854	-23.4124	-10.9941	12.9385	 1.9449	-23.9327	42.7750	99.9338	
   278	-9.3009	11.8178	 2.5170	-21.1187	-10.8690	12.7884	 1.9194	-23.6574	-11.2969	12.7784	 1.4819	-24.0754	42.9344	99.9388	
   279	-9.4471	11.7912	 2.3442	-21.2383	-11.1125	12.7195	 1.6068	-23.8320	-11.4136	12.7309	 1.3178	-24.1446	42.9887	99.9512	
   280	-9.4943	11.8086	 2.3144	-21.3029	-11.1708	12.6581	 1.4871	-23.8289	-11.4384	12.8315	 1.3935	-24.2700	42.7811	99.9661	
   281	-9.4628	11.7970	 2.3342	-21.2598	-11.1685	12.8161	 1.6475	-23.9847	-11.3938	12.9973	 1.6040	-24.3912	42.3692	99.9620	
   282	-9.5258	11.6832	 2.1575	-21.2090	-11.0968	12.8726	 1.7757	-23.9694	-11.3492	13.1631	 1.8144	-24.5124	41.9525	99.9568	
   283	-9.5138	11.4772	 1.9635	-20.9910	-10.9920	12.9099	 1.9178	-23.9018	-11.2865	13.3282	 2.0422	-24.6149	41.2575	99.9498	
   284	-9.5295	11.4830	 1.9536	-21.0125	-10.8462	13.0633	 2.2170	-23.9095	-11.1445	13.5183	 2.3743	-24.6629	41.2020	99.9401	
   285	-8.9196	12.0156	 3.0960	-20.9352	-9.8422	13.8534	 4.0111	-23.6955	-9.8761	14.2165	 4.3410	-24.0927	42.6285	99.9200	
   286	-7.6678	11.5775	 3.9098	-19.2453	-9.0228	13.1086	 4.0857	-22.1314	-9.6798	13.8264	 4.1471	-23.5063	40.7868	99.9459	
   287	-7.9360	12.0715	 4.1356	-20.0075	-9.2541	13.9610	 4.7067	-23.2151	-9.7117	14.4895	 4.7783	-24.2013	40.5264	99.9227	
   288	-7.4475	11.9073	 4.4599	-19.3547	-8.4806	13.4888	 5.0081	-21.9694	-9.1422	13.4116	 4.2700	-22.5539	43.5097	99.8581	
   289	-8.4045	10.8016	 2.3972	-19.2061	-9.6918	12.1948	 2.5030	-21.8866	-10.2422	12.2485	 2.0068	-22.4908	43.3299	99.9023	
   290	-8.5470	10.8381	 2.2912	-19.3850	-9.9487	12.0133	 2.0645	-21.9620	-10.4699	12.0298	 1.5604	-22.4998	43.6639	99.9185	
   291	-8.9412	10.4194	 1.4783	-19.3606	-10.2196	11.4708	 1.2511	-21.6904	-10.5864	11.4041	 0.8182	-21.9906	44.9914	99.9221	
   292	-9.0662	10.0706	 1.0045	-19.1368	-10.2841	11.0662	 0.7820	-21.3503	-10.5533	10.9962	 0.4433	-21.5496	45.7267	99.9279	
   293	-8.9728	10.0199	 1.0473	-18.9927	-10.1682	11.0580	 0.8896	-21.2262	-10.4119	11.0587	 0.6473	-21.4706	45.6381	99.9319	
   294	-8.8071	10.1039	 1.2969	-18.9110	-9.8545	11.1563	 1.3017	-21.0108	-10.1345	11.1919	 1.0579	-21.3264	45.8546	99.9268	
   295	-8.8950	10.1122	 1.2172	-19.0071	-9.9870	11.3504	 1.3632	-21.3374	-10.2910	11.5366	 1.2461	-21.8277	44.6924	99.9291	
   296	-9.0458	10.5547	 1.5091	-19.6005	-10.1876	12.1430	 1.9553	-22.3306	-10.5422	12.7262	 2.1846	-23.2685	42.0723	99.9403	
   297	-9.1891	11.2606	 2.0716	-20.4496	-10.3590	12.9663	 2.6072	-23.3253	-10.4699	13.6606	 3.1912	-24.1305	41.5443	99.9543	
   298	-9.1593	11.9026	 2.7433	-21.0619	-10.3663	13.4319	 3.0656	-23.7982	-10.4774	13.8642	 3.3873	-24.3417	42.1902	99.9465	
   299	-9.4785	11.9398	 2.4614	-21.4183	-10.8857	13.3266	 2.4408	-24.2124	-10.9410	13.7340	 2.7935	-24.6750	41.9941	99.9589	
   300	-9.7107	12.2271	 2.5164	-21.9378	-11.1491	13.5068	 2.3576	-24.6559	-11.2334	13.8924	 2.6596	-25.1259	41.8286	99.9617	
   301	-9.9421	12.2561	 2.3141	-22.1981	-11.4802	13.4632	 1.9830	-24.9434	-11.4934	13.7466	 2.2538	-25.2401	42.0293	99.9636	
   302	-10.1799	12.0376	 1.8578	-22.2175	-11.8183	13.1804	 1.3621	-24.9987	-11.8881	13.5540	 1.6665	-25.4422	41.4997	99.9712	
   303	-10.4834	12.0690	 1.5857	-22.5524	-12.1021	13.2438	 1.1416	-25.3458	-12.1146	13.5904	 1.4763	-25.7051	41.4701	99.9699	
   304	-10.6305	12.1637	 1.5333	-22.7942	-12.2944	13.2319	 0.9374	-25.5263	-12.4056	13.4258	 1.0207	-25.8316	41.5896	99.9634	
   305	-11.1765	11.8977	 0.7213	-23.0742	-12.9171	12.8814	-0.0358	-25.7985	-13.0448	13.0390	-0.0053	-26.0839	41.4314	99.9657	
   306	-11.6401	11.8029	 0.1629	-23.4430	-13.4302	12.7669	-0.6634	-26.1971	-13.5730	12.9391	-0.6334	-26.5122	40.9875	99.9677	
   307	-11.7826	11.8394	 0.0569	-23.6220	-13.5744	12.6405	-0.9340	-26.2149	-13.7647	12.7190	-1.0452	-26.4838	41.4153	99.9673	
   308	-12.0001	11.6940	-0.3060	-23.6940	-13.8455	12.4504	-1.3952	-26.2959	-14.0247	12.5732	-1.4510	-26.5980	41.2290	99.9728	
   309	-11.9973	11.8784	-0.1188	-23.8756	-13.8472	12.7758	-1.0716	-26.6230	-13.9622	13.0852	-0.8765	-27.0475	40.3970	99.9787	
   310	-11.5382	12.5794	 1.0414	-24.1176	-13.4314	13.6932	 0.2617	-27.1245	-13.5616	14.0910	 0.5299	-27.6527	39.3122	99.9763	
   311	-11.1781	13.0994	 1.9214	-24.2775	-13.1486	14.2037	 1.0550	-27.3522	-13.4065	14.4162	 1.0101	-27.8228	39.1636	99.9652	
   312	-11.1753	13.2838	 2.1086	-24.4591	-13.1542	14.4614	 1.3071	-27.6156	-13.4066	14.7631	 1.3569	-28.1698	38.6188	99.9677	
   313	-10.8310	13.6726	 2.8416	-24.5036	-12.8335	14.9165	 2.0828	-27.7500	-13.1331	15.1715	 2.0389	-28.3047	38.3742	99.9617	
   314	-10.5746	14.0696	 3.4951	-24.6442	-12.6091	15.4831	 2.8739	-28.0921	-12.8670	15.7836	 2.9171	-28.6507	37.7994	99.9598	
   315	-10.3590	14.4575	 4.0986	-24.8165	-12.3444	15.9174	 3.5729	-28.2617	-12.6549	16.1664	 3.5121	-28.8214	37.7260	99.9516	
   316	-10.1174	14.6021	 4.4847	-24.7195	-12.1261	16.1408	 4.0146	-28.2668	-12.4011	16.3085	 3.9079	-28.7096	37.8563	99.9447	
   317	-10.0397	14.6943	 4.6547	-24.7340	-12.0103	16.2500	 4.2396	-28.2602	-12.3005	16.3924	 4.0924	-28.6931	37.9438	99.9404	
   318	-9.9712	14.7657	 4.7946	-24.7369	-12.0040	16.3582	 4.3541	-28.3622	-12.3092	16.4565	 4.1478	-28.7659	37.7462	99.9365	
   319	-10.0406	14.8155	 4.7750	-24.8561	-12.1112	16.3978	 4.2865	-28.5090	-12.5128	16.4721	 3.9598	-28.9851	37.3623	99.9319	
   320	-10.4469	14.6028	 4.1561	-25.0496	-12.5588	15.9965	 3.4376	-28.5553	-13.0440	16.0813	 3.0378	-29.1254	37.2751	99.9395	
   321	-11.0373	14.2646	 3.2275	-25.3019	-13.1696	15.4966	 2.3269	-28.6661	-13.4647	15.6185	 2.1543	-29.0832	37.8653	99.9575	
   322	-11.6139	13.6150	 2.0013	-25.2288	-13.9577	14.8894	 0.9316	-28.8470	-14.2204	15.0686	 0.8486	-29.2891	37.0399	99.9647	
   323	-11.9802	13.9437	 1.9636	-25.9239	-13.8908	15.2170	 1.3262	-29.1078	-14.1970	15.5222	 1.3257	-29.7193	37.4095	99.9606	
   324	-11.7683	14.2685	 2.5004	-26.0368	-13.8398	15.7440	 1.9042	-29.5838	-14.1369	15.8709	 1.7344	-30.0079	36.8584	99.9447	
   325	-11.8173	14.3914	 2.5742	-26.2087	-13.9320	15.6883	 1.7562	-29.6202	-14.4603	15.7793	 1.3195	-30.2396	36.4697	99.9422	
   326	-12.0976	14.4063	 2.3087	-26.5039	-14.1850	15.6919	 1.5068	-29.8769	-14.6073	15.7250	 1.1181	-30.3324	36.8299	99.9423	
   327	-11.9940	14.6663	 2.6724	-26.6602	-14.1694	15.9625	 1.7930	-30.1318	-14.6677	16.0701	 1.4029	-30.7379	36.0335	99.9465	
   328	-11.7931	15.0757	 3.2827	-26.8688	-14.0292	16.4911	 2.4618	-30.5204	-14.4593	16.4969	 2.0382	-30.9563	35.9176	99.9383	
   329	-11.3877	15.4097	 4.0221	-26.7974	-13.6155	16.8980	 3.2824	-30.5136	-14.0051	16.9106	 2.9060	-30.9158	35.9702	99.9370	
   330	-10.8381	15.6017	 4.7638	-26.4398	-13.0291	17.2135	 4.1843	-30.2427	-13.4193	17.3114	 3.8926	-30.7308	35.8545	99.9364	
   331	-10.5623	15.7820	 5.2198	-26.3443	-12.8062	17.5181	 4.7119	-30.3243	-13.2872	17.6573	 4.3706	-30.9447	35.1180	99.9308	
   332	-10.4956	15.9589	 5.4634	-26.4546	-12.7195	17.7141	 4.9945	-30.4337	-13.2686	17.7842	 4.5161	-31.0530	35.0438	99.9203	
   333	-10.7011	15.8816	 5.1807	-26.5827	-13.0175	17.6514	 4.6338	-30.6689	-13.4641	17.7238	 4.2601	-31.1880	34.9232	99.9277	
   334	-11.0296	15.6241	 4.5946	-26.6537	-13.3200	17.1551	 3.8350	-30.4751	-13.9605	17.0764	 3.1165	-31.0370	35.2861	99.9173	
   335	-11.5997	15.2220	 3.6224	-26.8216	-13.7881	16.7545	 2.9663	-30.5426	-14.3563	16.7443	 2.3885	-31.1007	35.4461	99.9226	
   336	-11.7866	15.0492	 3.2626	-26.8358	-13.9268	16.6053	 2.6784	-30.5321	-14.4978	16.6818	 2.1845	-31.1797	35.2678	99.9265	
   337	-11.7801	15.0226	 3.2425	-26.8027	-13.9000	16.5954	 2.6953	-30.4954	-14.4947	16.7415	 2.2473	-31.2363	35.0622	99.9293	
   338	-11.7746	15.1173	 3.3428	-26.8918	-13.8906	16.6403	 2.7496	-30.5308	-14.5065	16.7459	 2.2399	-31.2526	35.1832	99.9276	
   339	-11.5904	15.2427	 3.6524	-26.8331	-13.7755	16.8535	 3.0778	-30.6290	-14.3589	16.9278	 2.5694	-31.2868	34.9969	99.9244	
   340	-11.2221	15.4936	 4.2717	-26.7157	-13.5037	17.1746	 3.6708	-30.6783	-14.1368	17.2704	 3.1341	-31.4073	34.4564	99.9235	
   341	-11.1471	15.5385	 4.3915	-26.6856	-13.4934	17.1155	 3.6220	-30.6089	-14.0747	17.3080	 3.2337	-31.3828	34.4660	99.9411	
   342	-11.6302	15.1123	 3.4822	-26.7425	-13.8922	16.8482	 2.9559	-30.7404	-14.3850	17.2358	 2.8513	-31.6210	34.0031	99.9481	
   343	-11.8709	14.7095	 2.8387	-26.5803	-13.9985	16.4314	 2.4328	-30.4299	-14.4358	16.8350	 2.3997	-31.2709	34.6249	99.9481	
   344	-11.9755	14.2967	 2.3213	-26.2722	-14.0487	15.9179	 1.8691	-29.9667	-14.3531	16.3415	 1.9889	-30.6946	35.5499	99.9573	
   345	-12.1126	13.7427	 1.6303	-25.8553	-14.1967	15.3715	 1.1747	-29.5682	-14.5192	15.8014	 1.2827	-30.3207	35.6521	99.9568	
   346	-12.1441	13.4803	 1.3363	-25.6243	-14.1373	14.7415	 0.6041	-28.8788	-14.6734	14.7944	 0.1215	-29.4679	37.3179	99.9363	
   347	-12.1488	13.1273	 0.9787	-25.2761	-13.9139	13.9888	 0.0748	-27.9027	-14.4925	13.7589	-0.7330	-28.2515	39.9203	99.9249	
   348	-12.3200	12.9487	 0.6289	-25.2687	-14.1062	13.8595	-0.2469	-27.9657	-14.6178	13.5443	-1.0730	-28.1622	40.1443	99.9188	
   349	-12.5088	12.6074	 0.0986	-25.1161	-14.2757	13.7700	-0.5058	-28.0457	-14.7475	13.5930	-1.1540	-28.3406	39.3401	99.9172	
   350	-12.3820	12.7137	 0.3318	-25.0957	-14.0770	13.7727	-0.3045	-27.8497	-14.3031	13.4688	-0.8338	-27.7719	40.9285	99.9232	
   351	-11.8907	12.8708	 0.9803	-24.7614	-13.4488	13.9829	 0.5340	-27.4317	-13.7905	13.8483	 0.0583	-27.6390	40.6451	99.9240	
   352	-11.5473	12.9698	 1.4225	-24.5171	-13.1730	14.2542	 1.0810	-27.4272	-13.4120	14.0774	 0.6660	-27.4895	40.5839	99.9187	
   353	-11.2319	12.7323	 1.5006	-23.9642	-12.9459	13.9215	 0.9756	-26.8674	-13.3635	13.7367	 0.3738	-27.1003	40.4672	99.9171	
   354	-11.3966	12.6642	 1.2677	-24.0607	-12.9790	14.0582	 1.0790	-27.0372	-13.3623	14.1075	 0.7456	-27.4699	39.7075	99.9223	
   355	-11.0727	12.9799	 1.9073	-24.0525	-12.7403	14.3984	 1.6580	-27.1387	-13.0242	14.3700	 1.3463	-27.3942	39.9244	99.9232	
   356	-11.0930	13.0438	 1.9509	-24.1368	-12.3635	14.5218	 2.1582	-26.8853	-12.5574	14.4443	 1.8873	-27.0018	41.2193	99.9055	
   357	-10.2270	12.8772	 2.6503	-23.1041	-11.8140	14.3189	 2.5048	-26.1329	-12.0714	14.3105	 2.2396	-26.3820	40.7799	99.9226	
   358	-10.0881	13.0516	 2.9636	-23.1397	-11.6366	14.4261	 2.7894	-26.0628	-11.8834	14.3433	 2.4605	-26.2268	41.2771	99.9195	
   359	-10.2149	13.0823	 2.8675	-23.2972	-11.7423	14.3753	 2.6330	-26.1176	-12.0267	14.2450	 2.2188	-26.2718	41.4624	99.9172	
   360	-10.5619	13.0573	 2.4955	-23.6191	-12.1056	14.2469	 2.1412	-26.3526	-12.4325	13.9531	 1.5211	-26.3858	41.7789	99.9065	
   361	-11.4290	12.6600	 1.2312	-24.0890	-12.8504	13.6790	 0.8285	-26.5294	-13.0766	13.3552	 0.2791	-26.4318	42.5957	99.9144	
   362	-12.3895	12.1764	-0.2130	-24.5659	-13.5982	13.0569	-0.5414	-26.6552	-13.7343	12.9571	-0.7768	-26.6915	42.8531	99.9373	
   363	-12.8688	12.2244	-0.6443	-25.0932	-14.0430	13.2972	-0.7459	-27.3401	-14.0554	13.3758	-0.6791	-27.4313	41.9279	99.9453	
   364	-13.0955	12.1953	-0.9002	-25.2908	-14.3369	13.0671	-1.2699	-27.4040	-14.4742	13.0645	-1.4093	-27.5388	42.0039	99.9456	
   365	-13.5961	12.5655	-1.0305	-26.1615	-14.5345	14.3838	-0.1508	-28.9183	-13.9264	15.5241	 1.5982	-29.4506	38.9925	99.9866	
   366	-11.0891	13.9291	 2.8400	-25.0182	-12.0985	16.0269	 3.9284	-28.1254	-12.0231	16.4100	 4.3874	-28.4332	39.4274	99.9157	
   367	-9.8565	14.5299	 4.6735	-24.3864	-11.1527	16.5206	 5.3679	-27.6733	-11.3362	16.7910	 5.4554	-28.1273	38.9692	99.9098	
   368	-9.4958	13.8324	 4.3368	-23.3282	-11.3495	15.9577	 4.6080	-27.3072	-11.9902	16.4646	 4.4748	-28.4549	35.8662	99.9174	
   369	-10.5979	13.6751	 3.0774	-24.2730	-12.0163	15.5544	 3.5380	-27.5706	-12.0799	15.5429	 3.4635	-27.6229	39.9311	99.9012	
   370	-9.9328	12.4139	 2.4812	-22.3466	-11.3092	13.6972	 2.3879	-25.0064	-11.5312	13.7122	 2.1814	-25.2435	42.3131	99.9278	
   371	-9.9467	12.3142	 2.3676	-22.2609	-11.3659	13.5454	 2.1794	-24.9113	-11.8160	13.4357	 1.6202	-25.2518	42.0847	99.9086	
   372	-10.3390	12.2011	 1.8622	-22.5401	-11.5968	13.3405	 1.7436	-24.9373	-11.7737	13.0912	 1.3180	-24.8650	43.7116	99.9109	
   373	-10.4122	11.6397	 1.2276	-22.0519	-11.6375	12.6369	 0.9993	-24.2744	-11.8429	12.3322	 0.4898	-24.1753	44.5784	99.9111	
   374	-10.9490	10.9835	 0.0345	-21.9325	-12.0101	11.8763	-0.1339	-23.8864	-12.1301	11.6611	-0.4685	-23.7913	45.3677	99.9232	
   375	-11.0296	10.7069	-0.3226	-21.7365	-11.9911	11.7311	-0.2601	-23.7222	-12.1102	11.6963	-0.4135	-23.8066	44.9054	99.9270	
   376	-10.9852	10.7792	-0.2059	-21.7643	-11.9202	11.7740	-0.1463	-23.6942	-12.1711	11.7982	-0.3724	-23.9694	44.5215	99.9254	
   377	-10.9713	10.8788	-0.0923	-21.8501	-11.9597	12.1548	 0.1950	-24.1145	-12.1968	12.4651	 0.2688	-24.6619	42.8295	99.9357	
   378	-10.8398	11.0641	 0.2243	-21.9039	-11.8826	12.4234	 0.5407	-24.3060	-12.1876	12.7598	 0.5727	-24.9474	42.1785	99.9318	
   379	-11.4819	11.4866	 0.0047	-22.9685	-12.5246	13.1580	 0.6333	-25.6825	-12.5858	14.0107	 1.4254	-26.5967	40.0227	99.9628	
   380	-10.2555	13.6213	 3.3659	-23.8767	-10.7905	15.7996	 5.0090	-26.5901	-10.6266	16.3299	 5.7039	-26.9566	41.0900	99.9116	
   381	-8.8360	13.8468	 5.0109	-22.6828	-10.1417	15.7742	 5.6324	-25.9159	-10.5842	15.8698	 5.2861	-26.4541	39.9202	99.8819	
   382	-9.2767	12.7762	 3.4996	-22.0528	-10.0622	14.0728	 4.0105	-24.1350	-9.9814	13.5745	 3.5937	-23.5560	46.2274	99.8737	
   383	-9.1713	12.1085	 2.9373	-21.2798	-10.5349	13.2386	 2.7036	-23.7734	-11.0283	13.0913	 2.0635	-24.1197	43.1623	99.9070	
   384	-9.6997	12.1424	 2.4428	-21.8420	-10.9661	13.3563	 2.3901	-24.3225	-11.1369	13.0834	 1.9470	-24.2204	44.0397	99.9053	
   385	-9.7358	12.0751	 2.3394	-21.8108	-10.8928	13.2049	 2.3120	-24.0976	-11.0530	12.9606	 1.9081	-24.0138	44.5325	99.9094	
   386	-9.9033	11.9596	 2.0564	-21.8629	-11.1213	13.0405	 1.9191	-24.1618	-11.2249	12.6600	 1.4357	-23.8850	44.9879	99.9053	
   387	-10.0078	11.8209	 1.8131	-21.8287	-11.1126	12.8369	 1.7243	-23.9495	-11.2397	12.4891	 1.2499	-23.7289	45.3381	99.9063	
   388	-10.6213	11.9104	 1.2892	-22.5317	-11.6353	13.0300	 1.3945	-24.6652	-11.8853	12.9080	 1.0231	-24.7934	43.8811	99.9093	
   389	-11.0146	11.9186	 0.9041	-22.9331	-12.0263	13.0154	 0.9890	-25.0417	-12.2540	12.8699	 0.6164	-25.1240	43.8001	99.9095	
   390	-11.1099	11.8006	 0.6908	-22.9105	-12.0421	12.9798	 0.9376	-25.0218	-12.1100	12.8645	 0.7550	-24.9747	44.1565	99.9135	
   391	-10.8166	11.7326	 0.9161	-22.5492	-11.6936	12.9686	 1.2749	-24.6622	-11.7898	13.0121	 1.2228	-24.8020	43.8919	99.9205	
   392	-10.4974	11.5583	 1.0610	-22.0557	-11.2197	12.6416	 1.4218	-23.8613	-11.3434	12.5767	 1.2339	-23.9202	45.2549	99.9125	
   393	-10.4918	11.5160	 1.0242	-22.0078	-11.3002	12.9062	 1.6059	-24.2064	-11.4634	13.1634	 1.7005	-24.6268	43.2782	99.9234	
   394	-10.2177	12.6239	 2.4062	-22.8416	-10.7955	14.5301	 3.7345	-25.3257	-10.7378	14.8747	 4.1374	-25.6126	42.4314	99.9060	
   395	-9.0694	13.0221	 3.9528	-22.0914	-9.5312	14.7335	 5.2022	-24.2646	-9.4617	14.7912	 5.3300	-24.2529	44.4674	99.8886	
   396	-8.1089	12.9576	 4.8488	-21.0665	-8.7618	14.8985	 6.1366	-23.6603	-8.8361	15.0310	 6.1954	-23.8672	43.4987	99.8807	
   397	-7.3289	12.9678	 5.6390	-20.2967	-8.3069	14.8342	 6.5271	-23.1411	-8.6679	15.0287	 6.3613	-23.6967	42.4499	99.8876	
   398	-7.6814	12.8481	 5.1668	-20.5295	-8.8201	14.7196	 5.8994	-23.5397	-9.1550	14.7917	 5.6372	-23.9468	42.2322	99.8833	
   399	-7.3911	11.6366	 4.2455	-19.0276	-8.4063	12.8809	 4.4746	-21.2872	-8.7714	12.6761	 3.9052	-21.4475	45.7815	99.8887	
   400	-7.6484	11.0867	 3.4384	-18.7351	-8.9312	12.5635	 3.6322	-21.4946	-9.0972	12.6524	 3.5557	-21.7497	44.3808	99.9236	
   401	-7.7853	11.7660	 3.9808	-19.5512	-8.9290	13.0740	 4.1448	-22.0029	-9.2289	12.8965	 3.6681	-22.1255	45.0310	99.8968	
   402	-8.0916	11.6131	 3.5216	-19.7046	-9.2529	12.6822	 3.4293	-21.9351	-9.4949	12.2844	 2.7900	-21.7795	46.2813	99.8947	
   403	-8.4821	11.2575	 2.7755	-19.7396	-9.4686	12.1470	 2.6782	-21.6156	-9.6716	11.7727	 2.1015	-21.4444	47.2525	99.9031	
   404	-8.7699	11.0091	 2.2393	-19.7790	-9.8233	11.8150	 1.9916	-21.6382	-10.0750	11.4129	 1.3385	-21.4880	47.2401	99.9051	
   405	-9.9756	11.0029	 1.0274	-20.9785	-10.9396	11.9232	 0.9835	-22.8627	-11.0284	11.6918	 0.6639	-22.7203	46.3184	99.9190	
   406	-10.3587	11.1846	 0.8261	-21.5433	-11.2905	12.1288	 0.8382	-23.4192	-11.4624	12.0190	 0.5571	-23.4814	45.4070	99.9220	
   407	-10.9037	11.0715	 0.1679	-21.9752	-11.7682	12.1532	 0.3849	-23.9213	-11.6767	12.5254	 0.8492	-24.2022	44.3229	99.9601	
   408	-9.8089	12.0618	 2.2530	-21.8706	-10.0549	13.4897	 3.4347	-23.5446	-9.5667	13.5710	 4.0048	-23.1379	46.8421	99.9226	
   409	-8.2248	11.9444	 3.7197	-20.1691	-8.6738	13.6983	 5.0244	-22.3721	-8.5315	13.7118	 5.1808	-22.2434	45.8702	99.8855	
   410	-6.6675	11.9175	 5.2501	-18.5849	-7.4085	13.5627	 6.1541	-20.9712	-7.6743	13.6638	 5.9900	-21.3383	45.1629	99.8884	
   411	-7.0200	12.0718	 5.0520	-19.0918	-8.1552	13.7901	 5.6348	-21.9452	-8.6769	14.0402	 5.3638	-22.7172	42.5916	99.8981	
   412	-7.1255	11.9173	 4.7919	-19.0428	-8.7001	14.4266	 5.7264	-23.1267	-6.6774	11.5492	 4.8723	-18.2268	54.1053	99.5996	
   413	-5.4792	 7.9399	 2.4609	-13.4191	-5.0304	 4.1515	-0.8790	-9.1818	-8.1866	12.3592	 4.1731	-20.5459	37.1812	98.8794	
   414	-6.8508	10.9856	 4.1349	-17.8365	-7.3985	12.0804	 4.6818	-19.4789	-7.5612	11.1995	 3.6388	-18.7607	50.5175	99.8121	
   415	-6.9104	 9.2906	 2.3804	-16.2010	-7.6769	10.4628	 2.7858	-18.1397	-7.8799	10.2664	 2.3870	-18.1463	48.8410	99.8926	
   416	-6.7484	 9.4485	 2.7002	-16.1969	-7.5366	10.5215	 2.9848	-18.0581	-7.8421	10.4165	 2.5749	-18.2586	48.5478	99.9024	
   417	-6.6568	 9.5033	 2.8466	-16.1601	-7.4499	10.6001	 3.1500	-18.0500	-7.7061	10.4872	 2.7815	-18.1934	48.6364	99.9037	
   418	-6.5430	 9.3888	 2.8458	-15.9317	-7.3892	10.4671	 3.0778	-17.8562	-7.6850	10.3149	 2.6304	-18.0000	48.7109	99.9008	
   419	-6.5865	 9.1952	 2.6088	-15.7818	-7.3796	10.2770	 2.8973	-17.6566	-7.6657	10.1069	 2.4417	-17.7726	49.0105	99.8970	
   420	-6.5783	 8.9262	 2.3480	-15.5044	-7.2683	 9.9526	 2.6842	-17.2209	-7.5793	 9.8006	 2.2218	-17.3800	49.4942	99.8960	
   421	-6.4950	 8.7020	 2.2070	-15.1970	-7.0956	 9.7437	 2.6480	-16.8393	-7.3043	 9.6548	 2.3510	-16.9592	49.9506	99.9038	
   422	-6.1842	 8.5227	 2.3386	-14.7068	-6.7251	 9.6415	 2.9163	-16.3665	-6.9052	 9.6997	 2.7950	-16.6050	49.8528	99.9120	
   423	-5.9954	 8.5900	 2.5947	-14.5854	-6.5540	 9.7580	 3.2038	-16.3120	-6.6334	 9.8410	 3.2081	-16.4745	49.9206	99.9182	
   424	-6.1203	 8.5152	 2.3950	-14.6355	-6.8133	 9.5359	 2.7225	-16.3492	-6.9089	 9.6280	 2.7196	-16.5370	49.9094	99.9311	
   425	-6.5090	 8.4653	 1.9564	-14.9742	-7.2997	 9.4114	 2.1117	-16.7111	-7.2943	 9.6145	 2.3207	-16.9090	49.6116	99.9509	
   426	-6.8143	 8.4652	 1.6510	-15.2795	-7.7237	 9.2986	 1.5747	-17.0223	-7.7616	 9.4127	 1.6515	-17.1744	49.5850	99.9517	
   427	-7.1530	 8.3081	 1.1552	-15.4611	-8.0610	 9.0293	 0.9681	-17.0903	-8.1097	 9.0748	 0.9656	-17.1846	49.9672	99.9515	
   428	-7.3640	 8.1361	 0.7722	-15.5001	-8.2683	 8.7603	 0.4920	-17.0286	-8.3827	 8.7939	 0.4117	-17.1767	50.1078	99.9520	
   429	-7.5111	 8.0937	 0.5827	-15.6048	-8.4511	 8.6758	 0.2246	-17.1269	-8.6620	 8.6249	-0.0366	-17.2870	50.0750	99.9447	
   430	-7.7711	 8.3187	 0.5477	-16.0898	-8.8644	 9.1048	 0.2404	-17.9692	-9.0705	 8.9791	-0.0909	-18.0497	49.0015	99.9338	
   431	-8.0597	 8.8767	 0.8171	-16.9364	-9.0608	 9.4952	 0.4343	-18.5560	-9.2095	 8.9643	-0.2447	-18.1739	50.4763	99.9079	
   432	-8.4010	 9.3574	 0.9565	-17.7584	-9.4039	 9.9535	 0.5495	-19.3574	-9.6566	 9.6190	-0.0371	-19.2757	49.1424	99.9213	
   433	-8.4149	 9.5318	 1.1170	-17.9467	-9.4931	10.1868	 0.6936	-19.6799	-9.7026	 9.7762	 0.0741	-19.4789	48.9791	99.9165	
   434	-8.5879	 9.5957	 1.0079	-18.1836	-9.6981	10.1934	 0.4953	-19.8915	-9.8907	 9.7434	-0.1468	-19.6341	49.0637	99.9186	
   435	-8.9044	 9.5433	 0.6390	-18.4476	-9.9708	10.0938	 0.1229	-20.0645	-10.1550	 9.6296	-0.5249	-19.7848	49.2086	99.9187	
   436	-9.0469	 9.5798	 0.5330	-18.6266	-10.0339	10.1862	 0.1522	-20.2200	-10.1302	 9.7603	-0.3695	-19.8906	49.2519	99.9207	
   437	-9.0024	 9.9261	 0.9238	-18.9285	-9.9190	10.7518	 0.8327	-20.6707	-10.0343	10.5701	 0.5363	-20.6045	47.8535	99.9255	
   438	-8.5295	10.4528	 1.9234	-18.9822	-9.3738	11.4210	 2.0472	-20.7947	-9.4729	11.3147	 1.8423	-20.7877	47.4294	99.9226	
   439	-8.3046	10.7244	 2.4199	-19.0289	-9.2494	12.0315	 2.7820	-21.2809	-9.4006	12.2490	 2.8489	-21.6497	45.2115	99.9314	
   440	-8.5071	11.3796	 2.8726	-19.8866	-9.2427	12.9756	 3.7328	-22.2183	-9.0657	13.0300	 3.9648	-22.0958	45.7155	99.9121	
   441	-7.7557	11.5858	 3.8302	-19.3414	-8.0295	13.0044	 4.9748	-21.0338	-7.8957	13.1019	 5.2067	-20.9978	47.4387	99.9068	
   442	-6.8526	11.5022	 4.6497	-18.3548	-7.3263	12.9727	 5.6463	-20.2990	-7.4427	13.1448	 5.7027	-20.5876	46.6121	99.9039	
   443	-6.4547	11.7099	 5.2554	-18.1646	-7.1097	13.4040	 6.2942	-20.5137	-7.2647	13.6804	 6.4162	-20.9452	45.3420	99.9053	
   444	-5.8624	12.2167	 6.3544	-18.0791	-6.5494	13.9779	 7.4284	-20.5273	-6.5896	14.0659	 7.4769	-20.6556	45.9137	99.8931	
   445	-4.8595	11.2338	 6.3743	-16.0933	-5.5989	12.4247	 6.8257	-18.0235	-5.7603	12.1968	 6.4370	-17.9572	49.0368	99.8935	
   446	-4.3371	 9.1868	 4.8498	-13.5239	-4.9602	10.2128	 5.2524	-15.1730	-5.1426	10.0725	 4.9303	-15.2152	51.1253	99.9049	
   447	-4.6231	 8.6959	 4.0729	-13.3190	-5.4819	 9.8319	 4.3499	-15.3139	-5.6242	 9.8273	 4.2036	-15.4516	50.1308	99.9215	
   448	-5.2274	 8.6692	 3.4419	-13.8965	-6.1511	 9.5055	 3.3543	-15.6566	-6.4806	 9.5403	 3.0602	-16.0210	49.8867	99.9329	
   449	-5.1709	 8.8095	 3.6387	-13.9804	-5.7736	 9.7600	 3.9863	-15.5336	-5.7898	 9.6461	 3.8567	-15.4360	51.4613	99.9200	
   450	-4.6611	 8.4601	 3.7991	-13.1212	-5.2989	 9.3290	 4.0301	-14.6279	-5.4210	 9.2216	 3.8011	-14.6427	51.8728	99.9207	
   451	-4.8471	 8.4401	 3.5931	-13.2872	-5.4770	 9.3257	 3.8486	-14.8027	-5.6488	 9.3497	 3.7014	-14.9987	51.2608	99.9274	
   452	-4.7592	 8.5688	 3.8098	-13.3280	-5.3998	 9.4769	 4.0769	-14.8767	-5.5347	 9.4651	 3.9309	-14.9999	51.3272	99.9258	
   453	-4.7879	 8.4908	 3.7030	-13.2786	-5.4675	 9.2531	 3.7855	-14.7206	-5.6668	 9.2348	 3.5685	-14.9017	51.5424	99.9311	
   454	-5.0053	 8.4824	 3.4772	-13.4877	-5.5905	 9.2571	 3.6665	-14.8476	-5.7159	 9.3323	 3.6169	-15.0483	51.5230	99.9380	
   455	-4.5306	 8.6295	 4.0990	-13.1601	-5.0143	 9.5142	 4.4997	-14.5285	-5.0524	 9.4909	 4.4390	-14.5435	52.1169	99.9259	
   456	-4.3659	 8.4236	 4.0578	-12.7896	-4.9062	 9.2531	 4.3468	-14.1594	-5.0176	 9.2344	 4.2174	-14.2521	52.1880	99.9273	
   457	-4.6251	 8.1163	 3.4913	-12.7413	-5.1063	 8.8710	 3.7646	-13.9773	-5.2086	 8.7950	 3.5869	-14.0037	52.7752	99.9247	
   458	-4.9287	 7.7367	 2.8081	-12.6653	-5.4349	 8.5156	 3.0806	-13.9505	-5.4865	 8.3030	 2.8170	-13.7896	53.2365	99.9151	
   459	-5.4525	 7.3013	 1.8490	-12.7538	-5.7713	 8.0249	 2.2534	-13.7962	-5.7092	 8.0641	 2.3554	-13.7734	53.3702	99.9375	
   460	-5.6607	 7.1767	 1.5161	-12.8373	-5.9210	 7.8038	 1.8826	-13.7248	-5.7762	 7.8154	 2.0397	-13.5917	54.0157	99.9424	
   461	-5.4747	 7.0596	 1.5850	-12.5343	-5.6884	 7.6833	 1.9948	-13.3717	-5.5303	 7.6866	 2.1567	-13.2170	54.3732	99.9411	
   462	-5.2943	 6.8479	 1.5537	-12.1422	-5.6134	 7.4415	 1.8279	-13.0549	-5.4539	 7.4206	 1.9672	-12.8746	54.5401	99.9445	
   463	-5.0751	 6.6138	 1.5388	-11.6889	-5.3019	 7.0293	 1.7273	-12.3312	-5.0968	 6.7693	 1.6730	-11.8662	56.3557	99.9349	
   464	-4.3821	 6.1000	 1.7180	-10.4821	-4.6379	 6.4387	 1.8007	-11.0765	-4.5721	 6.1037	 1.5321	-10.6760	57.1807	99.9267	
   465	-4.2563	 6.0535	 1.7973	-10.3098	-4.5409	 6.3406	 1.7997	-10.8815	-4.5119	 5.9899	 1.4785	-10.5018	57.3394	99.9274	
   466	-4.2072	 6.0677	 1.8605	-10.2749	-4.4770	 6.2618	 1.7847	-10.7388	-4.4013	 5.8023	 1.4015	-10.2037	58.1009	99.9257	
   467	-4.1943	 6.0145	 1.8203	-10.2088	-4.5203	 6.2225	 1.7021	-10.7428	-4.4590	 5.7327	 1.2742	-10.1918	58.0398	99.9236	
   468	-4.3461	 5.8932	 1.5473	-10.2392	-4.6756	 6.0242	 1.3485	-10.6997	-4.6315	 5.5358	 0.9048	-10.1674	58.2282	99.9272	
   469	-4.4238	 5.8010	 1.3773	-10.2248	-4.7449	 5.8909	 1.1459	-10.6357	-4.7152	 5.4273	 0.7125	-10.1426	58.2890	99.9303	
   470	-4.4534	 5.7071	 1.2538	-10.1606	-4.8048	 5.8024	 0.9976	-10.6072	-4.8611	 5.3968	 0.5362	-10.2580	57.8869	99.9310	
   471	-4.5756	 5.6797	 1.1042	-10.2553	-4.9404	 5.8249	 0.8844	-10.7652	-4.9083	 5.4145	 0.5068	-10.3229	57.8691	99.9332	
   472	-4.4876	 5.8085	 1.3209	-10.2961	-4.7954	 5.9648	 1.1693	-10.7601	-4.7451	 5.5480	 0.8034	-10.2932	57.9783	99.9311	
   473	-4.2239	 5.9207	 1.6968	-10.1445	-4.5802	 6.1341	 1.5538	-10.7143	-4.5329	 5.6996	 1.1672	-10.2325	57.8089	99.9283	
   474	-4.1175	 5.9539	 1.8365	-10.0714	-4.5652	 6.1562	 1.5908	-10.7214	-4.5800	 5.7173	 1.1377	-10.2974	57.5469	99.9286	
   475	-4.2914	 6.0020	 1.7107	-10.2934	-4.7962	 6.1862	 1.3899	-10.9824	-4.8792	 5.7444	 0.8657	-10.6237	57.1941	99.9276	
   476	-4.7254	 6.0010	 1.2757	-10.7264	-5.2432	 6.1509	 0.9076	-11.3941	-5.2845	 5.6957	 0.4117	-10.9803	57.1590	99.9310	
   477	-5.0696	 6.0234	 0.9538	-11.0930	-5.5223	 6.1779	 0.6555	-11.7002	-5.5291	 5.7328	 0.2042	-11.2619	57.1294	99.9308	
   478	-5.3009	 6.0523	 0.7515	-11.3533	-5.7414	 6.1759	 0.4344	-11.9173	-5.7413	 5.6968	-0.0440	-11.4383	57.2184	99.9295	
   479	-5.6674	 5.9700	 0.3027	-11.6374	-6.1371	 6.0802	-0.0570	-12.2173	-6.1180	 5.6192	-0.4983	-11.7373	57.0312	99.9336	
   480	-6.0070	 5.9342	-0.0727	-11.9411	-6.3673	 6.0063	-0.3611	-12.3736	-6.3005	 5.5782	-0.7218	-11.8788	57.2402	99.9367	
   481	-5.9117	 5.9151	 0.0035	-11.8268	-6.2703	 6.0258	-0.2447	-12.2961	-6.1708	 5.5295	-0.6408	-11.7003	57.4783	99.9308	
   482	-5.7692	 5.8786	 0.1095	-11.6478	-6.0867	 6.0063	-0.0805	-12.0929	-5.9883	 5.5705	-0.4173	-11.5589	57.4393	99.9333	
   483	-5.5156	 5.9543	 0.4387	-11.4699	-5.7863	 6.1096	 0.3232	-11.8959	-5.7457	 5.7289	-0.0163	-11.4747	57.2504	99.9315	
   484	-5.2547	 6.0191	 0.7646	-11.2738	-5.6161	 6.2126	 0.5964	-11.8287	-5.6694	 5.8098	 0.1409	-11.4792	56.8818	99.9258	
   485	-5.2519	 6.0665	 0.8147	-11.3184	-5.6145	 6.2396	 0.6250	-11.8541	-5.7017	 5.8828	 0.1816	-11.5845	56.6906	99.9290	
   486	-5.2908	 6.0889	 0.7982	-11.3796	-5.7336	 6.3112	 0.5775	-12.0448	-5.9022	 5.9580	 0.0564	-11.8603	56.1181	99.9248	
   487	-5.7331	 6.0829	 0.3500	-11.8160	-6.2452	 6.2238	-0.0215	-12.4689	-6.3484	 5.8152	-0.5327	-12.1637	56.2735	99.9310	
   488	-6.0264	 6.0139	-0.0124	-12.0403	-6.4060	 6.2832	-0.1230	-12.6892	-6.4950	 6.2354	-0.2591	-12.7304	55.0171	99.9475	
   489	-5.8402	 6.9931	 1.1530	-12.8333	-6.1371	 7.9734	 1.8362	-14.1105	-5.8204	 8.3553	 2.5354	-14.1759	52.3120	99.9593	
   490	-4.1042	 7.5451	 3.4409	-11.6493	-4.0734	 8.3860	 4.3124	-12.4594	-4.0881	 8.3744	 4.2867	-12.4626	54.4042	99.9102	
   491	-3.3178	 7.2547	 3.9370	-10.5724	-3.4569	 8.1583	 4.7013	-11.6151	-3.6046	 8.1928	 4.5888	-11.7975	54.0543	99.9097	
   492	-2.8135	 7.0846	 4.2712	-9.8981	-3.0492	 7.8696	 4.8203	-10.9187	-3.2743	 7.9532	 4.6794	-11.2276	54.2557	99.9203	
   493	-3.0856	 6.9674	 3.8819	-10.0530	-3.5466	 7.7907	 4.2440	-11.3372	-3.9049	 7.9648	 4.0604	-11.8698	52.9966	99.9263	
   494	-3.3029	 7.6442	 4.3414	-10.9471	-3.6329	 8.7830	 5.1499	-12.4158	-3.8575	 8.9997	 5.1428	-12.8573	52.0373	99.9152	
   495	-3.3677	 7.6358	 4.2683	-11.0035	-4.0293	 8.4388	 4.4094	-12.4680	-4.4519	 8.4318	 3.9804	-12.8838	52.3285	99.9167	
   496	-3.6055	 7.4174	 3.8119	-11.0229	-4.1089	 8.3645	 4.2555	-12.4734	-4.3159	 8.2712	 3.9558	-12.5872	53.0497	99.9069	
   497	-4.0183	 6.8201	 2.8019	-10.8384	-4.5193	 7.6593	 3.1399	-12.1786	-4.7167	 7.7280	 3.0118	-12.4447	53.0901	99.9270	
   498	-3.9314	 6.5220	 2.5907	-10.4534	-4.5191	 7.1894	 2.6701	-11.7085	-4.7724	 7.2317	 2.4598	-12.0041	53.5794	99.9342	
   499	-3.9074	 6.2471	 2.3398	-10.1545	-4.3535	 6.9762	 2.6226	-11.3297	-4.5203	 7.1066	 2.5868	-11.6270	53.8819	99.9371	
   500	-3.5493	 6.0504	 2.5012	-9.5997	-4.0034	 6.7571	 2.7536	-10.7605	-4.1894	 6.8789	 2.6900	-11.0685	54.2491	99.9370	
   501	-3.4041	 5.6502	 2.2462	-9.0543	-3.9094	 6.3700	 2.4605	-10.2795	-4.1427	 6.5024	 2.3602	-10.6452	54.3134	99.9363	
   502	-3.3931	 5.2914	 1.8984	-8.6845	-3.9006	 6.0490	 2.1482	-9.9496	-4.1408	 6.1913	 2.0510	-10.3322	54.4093	99.9347	
   503	-3.3737	 5.0747	 1.7011	-8.4484	-3.8580	 5.8397	 1.9817	-9.6977	-4.1134	 6.0228	 1.9099	-10.1363	54.4492	99.9356	
   504	-3.2692	 4.9394	 1.6703	-8.2085	-3.6955	 5.6899	 1.9943	-9.3855	-3.9085	 5.9155	 2.0075	-9.8241	54.7518	99.9397	
   505	-3.0120	 4.8041	 1.7922	-7.8160	-3.4826	 5.5837	 2.1009	-9.0663	-3.7391	 5.8214	 2.0829	-9.5606	54.6723	99.9385	
   506	-2.9010	 4.6422	 1.7413	-7.5431	-3.3643	 5.3811	 2.0167	-8.7454	-3.6981	 5.6843	 1.9868	-9.3825	54.6157	99.9410	
   507	-2.9482	 4.5226	 1.5745	-7.4707	-3.3840	 5.2778	 1.8937	-8.6618	-3.7129	 5.6291	 1.9166	-9.3421	54.5596	99.9428	
   508	-2.8686	 4.6463	 1.7779	-7.5149	-3.3115	 5.4652	 2.1536	-8.7767	-3.6652	 5.8546	 2.1899	-9.5199	54.1539	99.9414	
   509	-2.7621	 4.9536	 2.1916	-7.7157	-3.2155	 5.8236	 2.6080	-9.0391	-3.5251	 6.2401	 2.7155	-9.7653	53.8586	99.9437	
   510	-2.3540	 5.3350	 2.9811	-7.6889	-2.7868	 6.2526	 3.4657	-9.0394	-3.0485	 6.6210	 3.5730	-9.6697	53.9896	99.9401	
   511	-2.2253	 5.4729	 3.2476	-7.6982	-2.7703	 6.3018	 3.5314	-9.0720	-3.1211	 6.6118	 3.4911	-9.7330	53.9273	99.9397	
   512	-2.3354	 5.6505	 3.3152	-7.9859	-2.7231	 6.5262	 3.8030	-9.2492	-2.9723	 6.9332	 3.9614	-9.9056	53.9277	99.9440	
   513	-2.1892	 5.8142	 3.6251	-8.0033	-2.5245	 6.7638	 4.2392	-9.2883	-2.7576	 7.1325	 4.3754	-9.8902	53.9547	99.9369	
   514	-2.0383	 5.9197	 3.8815	-7.9580	-2.3346	 6.8526	 4.5179	-9.1871	-2.6304	 7.2673	 4.6374	-9.8978	53.8337	99.9364	
   515	-1.8237	 5.8807	 4.0572	-7.7044	-2.1682	 6.8879	 4.7195	-9.0561	-2.3555	 7.2371	 4.8821	-9.5927	54.0908	99.9356	
   516	-1.5331	 5.9024	 4.3694	-7.4355	-1.8994	 6.9199	 5.0204	-8.8193	-2.0668	 7.2383	 5.1719	-9.3052	54.2909	99.9348	
   517	-1.5026	 5.8750	 4.3726	-7.3776	-1.8443	 6.9272	 5.0828	-8.7714	-2.0060	 7.2520	 5.2464	-9.2581	54.2790	99.9329	
   518	-1.4406	 5.8360	 4.3955	-7.2766	-1.8056	 6.8852	 5.0795	-8.6908	-1.9706	 7.2387	 5.2685	-9.2094	54.2087	99.9359	
   519	-1.4249	 5.8302	 4.4055	-7.2551	-1.8309	 6.9222	 5.0912	-8.7530	-1.9706	 7.2387	 5.2685	-9.2094	54.1701	99.9338	
   520	-1.3573	 5.8859	 4.5287	-7.2432	-1.7197	 6.9503	 5.2304	-8.6699	-1.8254	 7.2572	 5.4323	-9.0827	54.4461	99.9348	
   521	-1.2620	 5.8668	 4.6049	-7.1288	-1.6882	 6.9041	 5.2158	-8.5922	-1.9117	 7.2165	 5.3054	-9.1283	54.1682	99.9326	
   522	-1.3416	 5.8801	 4.5386	-7.2216	-1.8040	 6.9123	 5.1082	-8.7163	-1.9725	 7.2029	 5.2309	-9.1755	54.2321	99.9354	
   523	-1.3758	 5.8444	 4.4686	-7.2202	-1.8679	 6.8737	 5.0057	-8.7416	-2.0923	 7.2113	 5.1195	-9.3037	53.9219	99.9371	
   524	-1.3916	 5.8502	 4.4587	-7.2417	-1.8726	 6.9100	 5.0373	-8.7826	-2.0315	 7.2250	 5.1940	-9.2566	54.0589	99.9370	
   525	-1.3425	 5.8643	 4.5219	-7.2068	-1.7504	 6.8925	 5.1420	-8.6429	-1.9216	 7.2568	 5.3357	-9.1785	54.1634	99.9390	
   526	-1.1325	 5.8835	 4.7511	-7.0159	-1.5400	 6.9806	 5.4405	-8.5206	-1.7292	 7.3732	 5.6445	-9.1026	53.9582	99.9368	
   527	-1.0510	 5.9018	 4.8508	-6.9528	-1.4375	 6.9773	 5.5397	-8.4148	-1.6585	 7.3466	 5.6887	-9.0052	54.0917	99.9338	
   528	-1.0510	 5.9018	 4.8508	-6.9528	-1.4691	 7.0235	 5.5544	-8.4926	-1.6684	 7.3869	 5.7190	-9.0554	53.9582	99.9333	
   529	-1.0825	 5.9134	 4.8310	-6.9958	-1.4643	 6.9872	 5.5228	-8.4515	-1.6585	 7.3466	 5.6887	-9.0052	54.1687	99.9344	
   530	-1.0547	 5.8386	 4.7840	-6.8934	-1.4596	 6.9509	 5.4913	-8.4105	-1.6014	 7.2887	 5.6878	-8.8901	54.2522	99.9344	
   531	-0.8947	 5.5538	 4.6592	-6.4485	-1.1086	 6.6279	 5.5191	-7.7365	-1.2375	 7.0000	 5.7629	-8.2376	54.9874	99.9327	
   532	-0.5404	 5.1570	 4.6167	-5.6974	-0.6773	 6.2751	 5.5978	-6.9524	-0.8576	 6.6748	 5.8177	-7.5325	55.2997	99.9269	
   533	-0.3711	 5.0300	 4.6590	-5.4011	-0.5700	 6.2355	 5.6654	-6.8056	-0.7850	 6.6840	 5.8996	-7.4691	54.8887	99.9265	
   534	-0.4414	 5.2010	 4.7598	-5.6424	-0.7420	 6.4579	 5.7159	-7.1999	-1.0234	 6.9561	 5.9332	-7.9796	54.0914	99.9278	
   535	-0.7800	 5.4551	 4.6752	-6.2350	-1.1647	 6.8420	 5.6773	-8.0067	-1.4580	 7.3870	 5.9295	-8.8451	53.0412	99.9269	
   536	-0.8252	 6.0522	 5.2270	-6.8774	-1.1570	 7.4472	 6.2901	-8.6043	-1.4185	 7.9198	 6.5019	-9.3384	52.9920	99.9208	
   537	-0.7224	 6.4334	 5.7110	-7.1558	-1.1918	 7.6743	 6.4824	-8.8661	-1.5321	 8.0477	 6.5161	-9.5799	53.0064	99.9223	
   538	-1.3823	 6.0080	 4.6258	-7.3902	-2.0926	 6.8945	 4.8018	-8.9870	-2.5652	 7.1333	 4.5686	-9.6986	53.4256	99.9317	
   539	-2.1015	 4.7097	 2.6083	-6.8111	-2.6918	 5.2917	 2.5997	-7.9835	-3.0022	 5.4231	 2.4214	-8.4254	55.7452	99.9426	
   540	-1.8759	 3.9009	 2.0251	-5.7767	-2.4258	 4.4472	 2.0213	-6.8731	-2.8325	 4.6353	 1.8033	-7.4678	56.2554	99.9418	
   541	-1.9796	 3.2298	 1.2503	-5.2094	-2.5998	 3.8067	 1.2068	-6.4065	-3.0271	 3.8929	 0.8663	-6.9201	56.6828	99.9337	
   542	-2.3535	 2.7472	 0.3938	-5.1007	-2.7463	 3.4048	 0.6584	-6.1510	-3.1605	 3.6387	 0.4788	-6.7993	56.6786	99.9325	
   543	-2.1925	 2.8893	 0.6969	-5.0818	-2.6083	 3.4229	 0.8145	-6.0312	-3.0438	 3.5706	 0.5273	-6.6144	57.1966	99.9322	
   544	-2.2008	 2.7473	 0.5465	-4.9481	-2.7194	 3.2774	 0.5579	-5.9968	-3.0977	 3.3413	 0.2442	-6.4391	57.4553	99.9330	
   545	-2.2582	 2.5911	 0.3330	-4.8493	-2.7651	 3.0801	 0.3149	-5.8451	-3.1336	 3.1114	-0.0217	-6.2451	57.8090	99.9327	
   546	-2.3240	 2.4300	 0.1061	-4.7539	-2.8825	 2.9438	 0.0612	-5.8262	-3.2484	 2.9841	-0.2638	-6.2326	57.6765	99.9341	
   547	-2.3748	 2.5213	 0.1466	-4.8962	-2.9551	 3.1088	 0.1536	-6.0638	-3.3329	 3.2106	-0.1218	-6.5435	57.0951	99.9351	
   548	-2.5488	 2.7065	 0.1578	-5.2552	-3.1427	 3.1781	 0.0352	-6.3208	-3.5842	 3.2319	-0.3518	-6.8163	57.1833	99.9344	
   549	-2.7422	 2.6973	-0.0448	-5.4394	-3.2555	 3.2404	-0.0151	-6.4959	-3.7228	 3.5760	-0.1463	-7.2989	56.1376	99.9469	
   550	-2.7403	 2.7288	-0.0114	-5.4691	-3.3147	 3.4005	 0.0857	-6.7151	-3.8321	 3.7874	-0.0442	-7.6196	55.3234	99.9439	
   551	-2.8782	 2.7072	-0.1709	-5.5853	-3.4219	 3.4401	 0.0181	-6.8619	-3.9488	 3.8556	-0.0927	-7.8045	55.0420	99.9412	
   552	-2.9355	 2.8251	-0.1103	-5.7606	-3.4582	 3.6400	 0.1817	-7.0982	-3.9228	 4.1257	 0.2034	-8.0487	54.6709	99.9447	
   553	-2.9716	 3.0319	 0.0604	-6.0034	-3.5332	 3.8819	 0.3486	-7.4151	-4.0334	 4.4289	 0.3960	-8.4624	54.0508	99.9468	
   554	-3.0752	 3.3200	 0.2449	-6.3951	-3.6106	 4.2007	 0.5900	-7.8113	-4.0478	 4.7325	 0.6852	-8.7804	53.9537	99.9467	
   555	-3.1455	 3.4911	 0.3457	-6.6365	-3.6840	 4.3522	 0.6681	-8.0361	-4.1472	 4.9037	 0.7570	-9.0509	53.7262	99.9477	
   556	-3.2583	 3.6214	 0.3632	-6.8797	-3.7857	 4.4865	 0.7006	-8.2722	-4.2757	 5.0919	 0.8167	-9.3677	53.3667	99.9493	
   557	-3.3249	 3.8556	 0.5308	-7.1804	-3.8197	 4.7270	 0.9072	-8.5467	-4.2466	 5.3061	 1.0600	-9.5528	53.4482	99.9494	
   558	-3.2748	 4.2966	 1.0218	-7.5714	-3.5936	 5.0857	 1.4920	-8.6793	-3.9562	 5.5744	 1.6187	-9.5307	54.2266	99.9445	
   559	-3.0852	 4.2427	 1.1576	-7.3278	-3.5651	 4.8679	 1.3027	-8.4331	-3.9325	 5.2186	 1.2866	-9.1512	54.8653	99.9483	
   560	-3.1260	 3.8224	 0.6966	-6.9484	-3.6769	 4.4739	 0.7969	-8.1508	-4.0466	 4.7564	 0.7103	-8.8030	55.0913	99.9446	
   561	-3.2176	 3.4935	 0.2760	-6.7111	-3.7099	 4.1406	 0.4306	-7.8505	-4.1340	 4.5762	 0.4427	-8.7103	54.8422	99.9502	
   562	-3.1833	 3.9403	 0.7571	-7.1236	-3.4941	 4.5584	 1.0642	-8.0525	-3.6617	 4.6423	 0.9811	-8.3041	56.6662	99.9338	
   563	-2.6707	 3.6382	 0.9676	-6.3089	-3.1604	 3.9377	 0.7772	-7.0980	-3.5330	 3.8759	 0.3435	-7.4090	57.7039	99.9349	
   564	-2.7309	 3.2977	 0.5668	-6.0286	-3.3226	 3.6176	 0.2949	-6.9402	-3.7017	 3.5194	-0.1818	-7.2211	57.7236	99.9342	
   565	-2.8679	 3.0178	 0.1499	-5.8857	-3.4739	 3.3694	-0.1045	-6.8433	-3.8108	 3.2683	-0.5420	-7.0792	57.8271	99.9350	
   566	-2.9623	 2.9156	-0.0466	-5.8779	-3.6000	 3.3193	-0.2808	-6.9193	-3.9101	 3.2082	-0.7014	-7.1184	57.7083	99.9340	
   567	-3.1169	 2.8840	-0.2328	-6.0009	-3.7175	 3.3005	-0.4171	-7.0179	-4.0162	 3.2480	-0.7677	-7.2644	57.5344	99.9370	
   568	-3.1391	 2.9164	-0.2226	-6.0554	-3.7419	 3.3510	-0.3911	-7.0928	-4.0386	 3.2808	-0.7573	-7.3195	57.4966	99.9349	
   569	-3.1743	 2.8649	-0.3093	-6.0391	-3.8515	 3.3500	-0.5016	-7.2014	-4.1236	 3.2640	-0.8591	-7.3877	57.2942	99.9350	
   570	-3.2566	 2.8308	-0.4257	-6.0874	-3.9224	 3.3071	-0.6155	-7.2295	-4.2142	 3.2554	-0.9583	-7.4698	57.1752	99.9366	
   571	-3.3279	 2.8491	-0.4787	-6.1769	-3.9894	 3.3318	-0.6577	-7.3212	-4.2850	 3.2820	-1.0025	-7.5671	57.0967	99.9360	
   572	-3.4065	 2.8781	-0.5283	-6.2846	-4.0659	 3.3117	-0.7543	-7.3775	-4.3700	 3.2652	-1.1043	-7.6354	57.1561	99.9383	
   573	-3.3723	 2.7768	-0.5954	-6.1490	-4.0509	 3.2163	-0.8347	-7.2672	-4.3216	 3.1558	-1.1653	-7.4774	57.3080	99.9394	
   574	-3.3112	 2.5850	-0.7262	-5.8962	-4.0555	 3.0176	-1.0380	-7.0732	-4.3252	 2.9685	-1.3562	-7.2938	57.3220	99.9430	
   575	-3.3964	 2.3665	-1.0298	-5.7629	-4.1895	 2.8322	-1.3574	-7.0216	-4.4580	 2.8419	-1.6156	-7.3000	57.0416	99.9472	
   576	-3.5213	 2.2917	-1.2295	-5.8131	-4.3219	 2.7913	-1.5307	-7.1131	-4.5784	 2.8384	-1.7395	-7.4169	56.8157	99.9490	
   577	-3.6564	 2.3174	-1.3389	-5.9739	-4.4291	 2.8309	-1.5984	-7.2600	-4.7082	 2.8871	-1.8206	-7.5954	56.6605	99.9468	
   578	-3.7943	 2.4328	-1.3614	-6.2271	-4.5356	 3.0015	-1.5343	-7.5371	-4.7920	 3.0099	-1.7816	-7.8020	56.5988	99.9405	
   579	-3.7850	 2.5906	-1.1943	-6.3756	-4.5057	 3.1632	-1.3427	-7.6689	-4.7852	 3.1412	-1.6435	-7.9265	56.5636	99.9360	
   580	-3.8692	 2.6620	-1.2071	-6.5312	-4.5459	 3.1780	-1.3680	-7.7239	-4.8796	 3.1766	-1.7025	-8.0563	56.5491	99.9360	
   581	-3.9442	 2.6171	-1.3269	-6.5613	-4.6634	 3.1592	-1.5043	-7.8226	-4.9441	 3.0913	-1.8523	-8.0355	56.6871	99.9338	
   582	-4.0525	 2.4153	-1.6370	-6.4677	-4.7744	 2.8962	-1.8784	-7.6706	-5.0570	 2.8842	-2.1723	-7.9413	56.7787	99.9413	
   583	-4.2958	 2.2392	-2.0566	-6.5350	-5.0432	 2.7467	-2.2966	-7.7899	-5.3065	 2.8257	-2.4803	-8.1323	56.3903	99.9483	
   584	-4.3995	 2.2533	-2.1461	-6.6527	-5.1417	 2.7002	-2.4417	-7.8419	-5.4275	 2.8103	-2.6167	-8.2379	56.3694	99.9520	
   585	-4.6216	 2.1660	-2.4555	-6.7875	-5.4586	 2.5477	-2.9110	-8.0062	-5.7912	 2.7521	-3.0386	-8.5434	55.8787	99.9616	
   586	-5.0240	 2.5645	-2.4594	-7.5885	-5.9130	 3.4479	-2.4652	-9.3609	-6.1083	 4.2951	-1.8127	-10.4034	52.1348	99.9819	
   587	-4.6850	 4.2288	-0.4561	-8.9138	-4.8510	 5.2391	 0.3880	-10.0901	-4.7905	 5.9484	 1.1584	-10.7391	53.5317	99.9627	
   588	-3.4830	 4.5830	 1.1001	-8.0660	-3.7025	 5.4507	 1.7481	-9.1532	-4.0103	 5.9233	 1.9134	-9.9337	54.0858	99.9390	
   589	-3.2840	 4.9609	 1.6771	-8.2449	-3.5120	 6.0229	 2.5108	-9.5349	-3.7678	 6.4286	 2.6613	-10.1965	53.6816	99.9275	
   590	-3.1395	 5.5041	 2.3647	-8.6436	-3.4822	 6.4196	 2.9373	-9.9017	-3.9399	 6.8218	 2.8824	-10.7618	53.0934	99.9282	
   591	-3.7650	 5.7996	 2.0347	-9.5645	-4.2478	 6.7921	 2.5442	-11.0399	-4.7140	 7.3132	 2.5997	-12.0273	51.6292	99.9377	
   592	-3.7251	 6.4781	 2.7531	-10.2031	-4.1031	 7.6369	 3.5337	-11.7399	-4.4040	 8.0791	 3.6757	-12.4832	51.5958	99.9288	
   593	-3.6538	 6.3228	 2.6690	-9.9766	-4.2354	 7.2435	 3.0080	-11.4789	-4.6837	 7.4357	 2.7525	-12.1194	52.2799	99.9211	
   594	-3.8752	 5.2921	 1.4170	-9.1673	-4.2616	 5.8437	 1.5820	-10.1053	-4.4498	 6.0274	 1.5781	-10.4773	55.0083	99.9462	
   595	-3.6458	 4.6834	 1.0377	-8.3292	-4.0233	 5.1131	 1.0897	-9.1363	-4.2466	 5.3061	 1.0600	-9.5528	55.8377	99.9504	
   596	-3.3544	 4.4469	 1.0926	-7.8012	-3.8032	 4.7762	 0.9729	-8.5793	-4.0509	 4.7884	 0.7380	-8.8394	56.7918	99.9440	
   597	-3.2425	 3.8897	 0.6472	-7.1322	-3.7754	 4.1924	 0.4170	-7.9678	-4.0184	 4.1373	 0.1194	-8.1558	57.3631	99.9436	
   598	-3.1778	 3.4869	 0.3092	-6.6647	-3.7705	 3.8037	 0.0331	-7.5742	-4.0400	 3.7194	-0.3201	-7.7595	57.5448	99.9413	
   599	-3.2806	 3.2427	-0.0378	-6.5233	-3.8721	 3.5856	-0.2866	-7.4576	-4.0784	 3.4417	-0.6361	-7.5202	57.9153	99.9386	
   600	-3.3204	 3.2493	-0.0709	-6.5697	-3.8335	 3.6611	-0.1724	-7.4946	-3.9605	 3.5131	-0.4469	-7.4737	58.0446	99.9360	
   601	-3.2288	 3.3042	 0.0755	-6.5329	-3.7491	 3.6991	-0.0501	-7.4482	-3.9214	 3.5715	-0.3494	-7.4929	57.9270	99.9364	
   602	-3.3093	 3.3017	-0.0075	-6.6109	-3.8453	 3.6932	-0.1523	-7.5384	-4.0300	 3.5635	-0.4660	-7.5936	57.8368	99.9363	
   603	-3.4148	 3.2842	-0.1305	-6.6989	-3.9312	 3.6281	-0.3032	-7.5593	-4.1007	 3.4745	-0.6258	-7.5753	58.0885	99.9370	
   604	-3.4953	 3.2817	-0.2135	-6.7769	-4.0574	 3.6955	-0.3620	-7.7528	-4.1939	 3.5338	-0.6596	-7.7277	57.8268	99.9360	
   605	-3.5128	 3.3929	-0.1198	-6.9057	-4.0117	 3.7753	-0.2365	-7.7870	-4.1691	 3.6644	-0.5041	-7.8336	57.7715	99.9383	
   606	-3.3860	 3.4993	 0.1134	-6.8853	-3.8951	 3.8981	 0.0029	-7.7931	-4.0375	 3.7672	-0.2698	-7.8048	57.7866	99.9371	
   607	-3.3814	 3.5782	 0.1969	-6.9595	-3.8777	 3.9608	 0.0829	-7.8385	-4.0338	 3.8388	-0.1945	-7.8727	57.7515	99.9375	
   608	-3.3943	 3.6313	 0.2371	-7.0256	-3.9085	 4.0205	 0.1119	-7.9290	-4.0549	 3.8954	-0.1590	-7.9505	57.6765	99.9381	
   609	-3.4526	 3.7335	 0.2809	-7.1860	-3.9393	 4.0802	 0.1408	-8.0195	-4.1052	 3.9691	-0.1357	-8.0744	57.6739	99.9394	
   610	-3.4748	 3.7658	 0.2911	-7.2406	-3.9835	 4.1449	 0.1614	-8.1283	-4.1264	 4.0257	-0.1002	-8.1521	57.5664	99.9391	
   611	-3.4230	 3.8273	 0.4044	-7.2503	-3.9054	 4.1921	 0.2866	-8.0975	-4.0637	 4.0752	 0.0120	-8.1390	57.6116	99.9383	
   612	-3.4378	 3.8489	 0.4112	-7.2867	-3.9322	 4.2020	 0.2697	-8.1342	-4.1109	 4.0929	-0.0175	-8.2039	57.5263	99.9389	
   613	-3.5026	 3.8406	 0.3381	-7.3431	-4.0276	 4.2096	 0.1819	-8.2372	-4.1723	 4.0673	-0.1045	-8.2397	57.5562	99.9384	
   614	-3.5590	 3.8372	 0.2783	-7.3962	-4.0907	 4.1845	 0.0937	-8.2752	-4.2455	 4.0461	-0.1990	-8.2917	57.5433	99.9395	
   615	-3.6154	 3.8339	 0.2185	-7.4493	-4.1269	 4.1495	 0.0225	-8.2764	-4.3293	 4.0532	-0.2756	-8.3826	57.4200	99.9410	
   616	-3.6478	 3.8297	 0.1820	-7.4775	-4.1656	 4.1914	 0.0258	-8.3570	-4.2940	 4.0399	-0.2535	-8.3340	57.5860	99.9386	
   617	-3.6071	 3.8389	 0.2319	-7.4460	-4.1711	 4.2142	 0.0430	-8.3853	-4.2940	 4.0399	-0.2535	-8.3340	57.5381	99.9381	
   618	-3.6636	 3.8355	 0.1721	-7.4991	-4.2208	 4.1842	-0.0367	-8.4049	-4.3722	 4.0388	-0.3328	-8.4111	57.4524	99.9399	
   619	-3.7348	 3.8538	 0.1191	-7.5886	-4.2704	 4.1541	-0.1164	-8.4245	-4.4442	 4.0415	-0.4021	-8.4858	57.4446	99.9429	
   620	-3.7996	 3.8455	 0.0460	-7.6450	-4.3051	 4.1462	-0.1590	-8.4513	-4.4820	 4.0071	-0.4744	-8.4892	57.5552	99.9396	
   621	-3.8236	 3.8463	 0.0227	-7.6699	-4.3453	 4.1611	-0.1843	-8.5063	-4.5279	 4.0486	-0.4788	-8.5767	57.3665	99.9411	
   622	-3.7987	 3.8612	 0.0627	-7.6599	-4.3106	 4.1690	-0.1417	-8.4796	-4.4808	 4.0309	-0.4493	-8.5118	57.5200	99.9399	
   623	-3.8468	 3.8629	 0.0162	-7.7096	-4.3989	 4.1809	-0.2182	-8.5798	-4.5528	 4.0336	-0.5186	-8.5865	57.4341	99.9410	
   624	-3.9032	 3.8595	-0.0436	-7.7627	-4.4407	 4.1686	-0.2721	-8.6093	-4.6012	 4.0275	-0.5732	-8.6287	57.4315	99.9410	
   625	-3.9199	 3.8496	-0.0702	-7.7694	-4.4888	 4.1657	-0.3232	-8.6544	-4.6837	 4.0585	-0.6248	-8.7423	57.1536	99.9424	
   626	-4.0078	 3.8578	-0.1498	-7.8656	-4.5574	 4.1634	-0.3941	-8.7207	-4.7098	 4.0196	-0.6897	-8.7295	57.3832	99.9417	
   627	-3.9985	 3.8786	-0.1198	-7.8771	-4.5345	 4.2033	-0.3313	-8.7378	-4.7061	 4.0912	-0.6144	-8.7974	57.2049	99.9417	
   628	-4.0124	 3.9160	-0.0963	-7.9283	-4.5732	 4.2452	-0.3281	-8.8183	-4.7297	 4.1000	-0.6291	-8.8298	57.2346	99.9406	
   629	-4.0448	 3.9118	-0.1329	-7.9566	-4.6015	 4.2280	-0.3736	-8.8295	-4.7663	 4.0894	-0.6764	-8.8558	57.2292	99.9412	
   630	-4.1068	 3.9508	-0.1558	-8.0576	-4.6417	 4.2429	-0.3990	-8.8846	-4.8135	 4.1072	-0.7058	-8.9207	57.2644	99.9415	
   631	-4.1068	 3.9508	-0.1558	-8.0576	-4.6804	 4.2848	-0.3957	-8.9652	-4.8594	 4.1487	-0.7102	-9.0083	57.0319	99.9403	
   632	-4.1345	 4.0256	-0.1088	-8.1600	-4.6307	 4.3148	-0.3160	-8.9455	-4.7968	 4.1982	-0.5980	-8.9951	57.2453	99.9420	
   633	-4.0309	 4.0115	-0.0193	-8.0423	-4.5677	 4.3399	-0.2279	-8.9076	-4.7409	 4.2320	-0.5084	-8.9730	57.0593	99.9418	
   634	-4.0364	 4.0538	 0.0175	-8.0902	-4.6055	 4.3953	-0.2103	-9.0009	-4.7633	 4.2648	-0.4980	-9.0281	57.0161	99.9414	
   635	-4.0827	 4.0870	 0.0045	-8.1697	-4.6189	 4.4003	-0.2188	-9.0192	-4.7986	 4.2781	-0.5201	-9.0768	57.0511	99.9411	
   636	-4.0901	 4.0978	 0.0078	-8.1879	-4.6458	 4.4102	-0.2357	-9.0559	-4.8210	 4.3108	-0.5097	-9.1319	56.9378	99.9438	
   637	-4.1049	 4.1194	 0.0146	-8.2243	-4.6694	 4.4742	-0.1953	-9.1436	-4.8067	 4.3541	-0.4521	-9.1610	56.9140	99.9423	
   638	-4.0225	 4.1535	 0.1311	-8.1760	-4.5969	 4.5442	-0.0529	-9.1411	-4.7037	 4.3702	-0.3330	-9.0740	57.0380	99.9384	
   639	-4.0133	 4.1743	 0.1611	-8.1875	-4.5701	 4.5343	-0.0359	-9.1044	-4.7379	 4.4074	-0.3300	-9.1453	56.8790	99.9398	
   640	-4.0438	 4.2016	 0.1580	-8.2454	-4.5969	 4.5442	-0.0529	-9.1411	-4.7602	 4.4401	-0.3196	-9.2004	56.8442	99.9425	
   641	-4.0595	 4.2075	 0.1480	-8.2670	-4.6561	 4.5867	-0.0694	-9.2428	-4.7838	 4.4490	-0.3343	-9.2329	56.8037	99.9414	
   642	-4.1067	 4.2249	 0.1183	-8.3316	-4.6829	 4.5966	-0.0863	-9.2795	-4.8322	 4.4428	-0.3889	-9.2751	56.8330	99.9387	
   643	-4.0975	 4.2456	 0.1483	-8.3431	-4.6411	 4.6088	-0.0324	-9.2499	-4.7987	 4.5093	-0.2889	-9.3081	56.7396	99.9417	
   644	-4.0558	 4.2706	 0.2149	-8.3264	-4.6317	 4.6537	 0.0220	-9.2854	-4.7751	 4.5005	-0.2742	-9.2757	56.8065	99.9385	
   645	-4.1030	 4.2880	 0.1851	-8.3910	-4.6600	 4.6366	-0.0236	-9.2966	-4.8105	 4.5138	-0.2963	-9.3244	56.8065	99.9416	
   646	-4.1187	 4.2938	 0.1752	-8.4125	-4.7002	 4.6514	-0.0489	-9.3516	-4.8577	 4.5315	-0.3257	-9.3893	56.6849	99.9418	
   647	-4.1585	 4.3004	 0.1420	-8.4589	-4.7539	 4.6712	-0.0827	-9.4250	-4.8825	 4.5164	-0.3656	-9.3991	56.7575	99.9405	
   648	-4.2066	 4.3021	 0.0955	-8.5087	-4.7767	 4.6313	-0.1455	-9.4080	-4.9253	 4.5021	-0.4227	-9.4275	56.7896	99.9426	
   649	-4.1742	 4.3062	 0.1321	-8.4805	-4.7751	 4.6583	-0.1169	-9.4335	-4.9061	 4.5253	-0.3803	-9.4315	56.7170	99.9432	
   650	-4.2066	 4.3021	 0.0955	-8.5087	-4.7767	 4.6313	-0.1455	-9.4080	-4.9371	 4.5065	-0.4301	-9.4437	56.7490	99.9423	
   651	-4.2547	 4.3037	 0.0491	-8.5584	-4.8382	 4.6333	-0.2050	-9.4714	-5.0079	 4.5331	-0.4743	-9.5411	56.5923	99.9441	
   652	-4.2862	 4.3153	 0.0292	-8.6015	-4.8973	 4.6758	-0.2216	-9.5731	-5.0315	 4.5419	-0.4890	-9.5735	56.5923	99.9428	
   653	-4.3019	 4.3211	 0.0193	-8.6231	-4.8918	 4.6531	-0.2388	-9.5448	-5.0551	 4.5508	-0.5038	-9.6060	56.5516	99.9443	
   654	-4.2751	 4.3677	 0.0927	-8.6427	-4.8477	 4.7059	-0.1419	-9.5535	-4.9744	 4.5996	-0.3743	-9.5741	56.6501	99.9450	
   655	-4.2482	 4.4142	 0.1660	-8.6624	-4.8233	 4.7728	-0.0505	-9.5961	-4.9539	 4.6467	-0.3067	-9.6007	56.6153	99.9424	
   656	-4.2556	 4.4250	 0.1694	-8.6806	-4.8367	 4.7778	-0.0590	-9.6144	-4.9775	 4.6556	-0.3215	-9.6332	56.5718	99.9427	
   657	-4.3112	 4.4374	 0.1263	-8.7486	-4.8903	 4.7976	-0.0928	-9.6879	-5.0247	 4.6733	-0.3509	-9.6981	56.5341	99.9424	
   658	-4.3436	 4.4332	 0.0898	-8.7768	-4.9455	 4.7903	-0.1552	-9.7358	-5.0793	 4.6633	-0.4155	-9.7428	56.4848	99.9432	
   659	-4.3759	 4.4291	 0.0532	-8.8050	-4.9399	 4.7676	-0.1725	-9.7075	-5.1029	 4.6722	-0.4302	-9.7752	56.4500	99.9436	
   660	-4.3750	 4.4449	 0.0700	-8.8199	-4.9667	 4.7775	-0.1894	-9.7442	-5.1041	 4.6483	-0.4553	-9.7526	56.5545	99.9437	
   661	-4.4685	 4.3585	-0.1099	-8.8269	-5.1157	 4.6874	-0.4284	-9.8030	-5.2549	 4.5224	-0.7321	-9.7774	56.5518	99.9430	
   662	-4.6175	 4.2845	-0.3329	-8.9020	-5.2781	 4.6022	-0.6759	-9.8803	-5.4026	 4.4561	-0.9460	-9.8588	56.4993	99.9461	
   663	-4.7692	 4.1632	-0.6059	-8.9324	-5.3978	 4.4253	-0.9726	-9.8231	-5.5590	 4.3383	-1.2201	-9.8974	56.4788	99.9500	
   664	-4.9219	 4.0261	-0.8957	-8.9481	-5.5988	 4.3821	-1.2168	-9.9809	-5.6949	 4.2677	-1.4267	-9.9627	56.3266	99.9481	
   665	-4.9460	 4.0270	-0.9190	-8.9729	-5.5586	 4.3673	-1.1915	-9.9258	-5.7141	 4.2445	-1.4692	-9.9587	56.3967	99.9431	
   666	-5.0691	 3.9837	-1.0852	-9.0528	-5.6698	 4.3392	-1.3307	-10.0089	-5.8252	 4.1888	-1.6359	-10.0141	56.4230	99.9397	
   667	-5.3189	 3.8342	-1.4847	-9.1531	-5.9858	 4.2003	-1.7857	-10.1861	-6.1734	 4.0822	-2.0907	-10.2556	56.0245	99.9421	
   668	-5.5956	 3.7751	-1.8204	-9.3707	-6.2602	 4.1910	-2.0692	-10.4511	-6.4446	 4.0684	-2.3757	-10.5131	55.7787	99.9390	
   669	-5.7353	 3.7219	-2.0133	-9.4572	-6.3926	 4.1501	-2.2426	-10.5426	-6.5780	 4.0455	-2.5321	-10.6236	55.6572	99.9393	
   670	-5.7853	 3.6920	-2.0932	-9.4773	-6.4351	 4.1243	-2.3109	-10.5595	-6.6264	 4.0393	-2.5867	-10.6658	55.5805	99.9400	
   671	-5.7668	 3.7335	-2.0332	-9.5003	-6.4462	 4.1699	-2.2764	-10.6161	-6.6724	 4.0809	-2.5910	-10.7534	55.4072	99.9387	
   672	-5.8325	 3.7094	-2.1230	-9.5419	-6.5037	 4.1220	-2.3818	-10.6257	-6.7406	 4.0396	-2.7006	-10.7803	55.4325	99.9396	
   673	-5.9047	 3.7119	-2.1927	-9.6166	-6.5518	 4.1191	-2.4328	-10.6708	-6.8126	 4.0422	-2.7699	-10.8550	55.3874	99.9381	
   674	-5.9602	 3.5873	-2.3728	-9.5475	-6.6117	 4.0306	-2.5812	-10.6423	-6.8952	 3.9576	-2.9371	-10.8529	55.2585	99.9352	
   675	-6.0537	 3.5009	-2.5527	-9.5546	-6.6676	 4.0098	-2.6579	-10.6775	-6.9411	 3.9992	-2.9414	-10.9404	54.9879	99.9357	
   676	-6.0694	 3.5067	-2.5626	-9.5761	-6.6117	 4.0306	-2.5812	-10.6423	-6.9213	 4.0343	-2.8864	-10.9557	54.9701	99.9312	
   677	-6.1231	 3.5507	-2.5723	-9.6738	-6.6614	 4.1181	-2.5434	-10.7794	-6.9647	 4.1237	-2.8405	-11.0885	54.7924	99.9291	
   678	-6.1508	 3.6254	-2.5253	-9.7762	-6.6646	 4.1814	-2.4832	-10.8460	-6.9921	 4.1765	-2.8150	-11.1687	54.7889	99.9265	
   679	-6.2211	 3.6595	-2.5616	-9.8806	-6.7489	 4.2610	-2.4881	-11.0099	-7.0579	 4.2986	-2.7588	-11.3566	54.4659	99.9291	
   680	-6.2424	 3.7076	-2.5347	-9.9500	-6.7584	 4.3335	-2.4250	-11.0920	-7.0840	 4.3754	-2.7081	-11.4594	54.3203	99.9266	
   681	-6.2350	 3.8339	-2.4010	-10.0688	-6.6828	 4.4576	-2.2253	-11.1404	-7.0363	 4.6008	-2.4349	-11.6372	54.0324	99.9307	
   682	-6.2248	 4.1445	-2.0802	-10.3692	-6.6790	 4.8777	-1.8014	-11.5567	-7.0284	 5.2186	-1.8093	-12.2471	52.9011	99.9407	
   683	-5.9229	 5.0406	-0.8822	-10.9636	-6.2750	 5.9446	-0.3306	-12.2196	-6.5304	 6.3643	-0.1656	-12.8948	52.2104	99.9397	
   684	-5.7322	 5.6876	-0.0445	-11.4198	-6.1909	 6.4524	 0.2615	-12.6433	-6.5671	 6.5849	 0.0183	-13.1522	52.5609	99.9224	
   685	-6.0867	 5.3993	-0.6872	-11.4860	-6.5928	 6.0135	-0.5793	-12.6063	-7.0107	 6.1430	-0.8673	-13.1538	52.7818	99.9295	
   686	-6.3578	 5.1609	-1.1968	-11.5187	-6.6511	 5.9522	-0.6990	-12.6032	-6.8500	 6.2287	-0.6208	-13.0788	52.8794	99.9356	
   687	-5.9488	 5.2840	-0.6648	-11.2327	-6.2073	 6.0508	-0.1565	-12.2581	-6.4789	 6.3145	-0.1639	-12.7935	53.0545	99.9308	
   688	-5.8174	 5.3322	-0.4851	-11.1495	-6.1876	 6.1541	-0.0336	-12.3417	-6.4199	 6.2924	-0.1271	-12.7124	53.1306	99.9244	
   689	-5.8285	 5.4169	-0.4115	-11.2453	-6.1632	 6.2211	 0.0578	-12.3843	-6.4330	 6.5042	 0.0717	-12.9373	52.6934	99.9335	
   690	-5.7156	 5.6976	-0.0178	-11.4131	-6.0396	 6.5831	 0.5434	-12.6227	-6.2277	 6.7557	 0.5285	-12.9834	52.8708	99.9248	
   691	-5.6063	 5.9152	 0.3090	-11.5215	-5.9380	 6.8013	 0.8632	-12.7392	-6.1619	 6.9805	 0.8191	-13.1426	52.6625	99.9237	
   692	-5.3167	 6.0582	 0.7416	-11.3748	-5.6251	 7.0036	 1.3784	-12.6286	-5.7970	 7.0626	 1.2661	-12.8597	53.0867	99.9124	
   693	-5.2649	 5.9826	 0.7178	-11.2474	-5.6487	 6.9501	 1.3013	-12.5988	-5.8752	 7.0615	 1.1868	-12.9368	52.6497	99.9155	
   694	-5.2676	 6.0723	 0.8048	-11.3399	-5.6354	 7.0626	 1.4272	-12.6980	-5.8629	 7.1846	 1.3223	-13.0476	52.5273	99.9144	
   695	-5.2769	 6.1886	 0.9118	-11.4654	-5.6133	 7.2065	 1.5931	-12.8198	-5.8430	 7.3354	 1.4929	-13.1786	52.4135	99.9120	
   696	-5.2648	 6.2567	 0.9919	-11.5214	-5.6016	 7.2920	 1.6903	-12.8935	-5.8102	 7.3900	 1.5804	-13.2003	52.4619	99.9096	
   697	-5.2287	 6.3239	 1.0953	-11.5526	-5.5480	 7.3897	 1.8416	-12.9376	-5.7959	 7.5490	 1.7535	-13.3450	52.1268	99.9101	
   698	-5.1538	 6.3688	 1.2151	-11.5225	-5.4692	 7.4504	 1.9811	-12.9195	-5.7041	 7.5814	 1.8778	-13.2856	52.2156	99.9073	
   699	-5.1676	 6.4062	 1.2386	-11.5738	-5.4826	 7.4553	 1.9726	-12.9379	-5.7277	 7.5903	 1.8631	-13.3181	52.2397	99.9090	
   700	-5.1991	 6.4178	 1.2188	-11.6169	-5.5228	 7.4702	 1.9473	-12.9929	-5.7513	 7.5991	 1.8484	-13.3505	52.2397	99.9097	
   701	-5.1972	 6.4493	 1.2522	-11.6466	-5.5260	 7.5335	 2.0075	-13.0595	-5.7420	 7.6626	 1.9211	-13.4047	52.1472	99.9088	
   702	-5.2620	 6.3040	 1.0421	-11.5660	-5.6236	 7.2656	 1.6419	-12.8892	-5.9002	 7.3934	 1.4937	-13.2936	52.3367	99.9134	
   703	-5.4786	 6.1744	 0.6959	-11.6529	-5.8112	 7.0999	 1.2886	-12.9111	-6.1242	 7.2462	 1.1226	-13.3705	52.3287	99.9134	
   704	-5.7016	 5.9343	 0.2328	-11.6359	-6.1107	 7.0101	 0.8993	-13.1208	-6.3724	 7.2117	 0.8397	-13.5842	51.7147	99.9154	
   705	-5.8201	 5.9700	 0.1500	-11.7900	-6.1746	 7.0890	 0.9143	-13.2636	-6.4854	 7.3514	 0.8665	-13.8370	51.3386	99.9128	
   706	-5.7904	 6.2008	 0.4105	-11.9912	-6.0943	 7.4117	 1.3173	-13.5060	-6.3695	 7.7339	 1.3649	-14.1035	50.9843	99.9129	
   707	-5.5294	 6.6768	 1.1475	-12.2061	-5.8627	 7.7477	 1.8849	-13.6103	-6.2269	 8.0515	 1.8252	-14.2785	50.9808	99.9157	
   708	-5.2730	 6.7998	 1.5268	-12.0728	-5.5505	 7.8190	 2.2683	-13.3695	-5.8134	 7.7929	 1.9799	-13.6064	52.4983	99.8931	
   709	-5.5286	 6.0074	 0.4789	-11.5360	-5.8576	 6.7716	 0.9139	-12.6291	-6.1259	 6.7479	 0.6225	-12.8739	53.4826	99.9105	
   710	-5.3973	 5.5075	 0.1103	-10.9048	-5.7580	 6.1268	 0.3687	-11.8847	-6.1337	 6.1302	-0.0031	-12.2640	53.9254	99.9159	
   711	-5.4029	 5.2758	-0.1269	-10.6787	-5.7263	 5.8456	 0.1192	-11.5719	-6.0802	 5.7693	-0.3104	-11.8496	54.6080	99.9114	
   712	-5.4409	 4.9029	-0.5378	-10.3438	-5.8113	 5.4417	-0.3697	-11.2530	-6.1595	 5.2818	-0.8772	-11.4414	55.0977	99.9077	
   713	-5.6362	 4.4511	-1.1850	-10.0873	-6.0500	 4.9840	-1.0661	-11.0340	-6.3685	 4.8431	-1.5250	-11.2117	55.2371	99.9132	
   714	-5.9638	 4.2093	-1.7544	-10.1731	-6.3519	 4.8536	-1.4983	-11.2055	-6.7205	 4.8961	-1.8239	-11.6166	54.2728	99.9182	
   715	-6.1877	 4.2275	-1.9601	-10.4152	-6.6309	 4.8807	-1.7504	-11.5116	-7.0420	 5.0716	-1.9700	-12.1137	53.4219	99.9296	
   716	-6.3608	 4.2914	-2.0692	-10.6521	-6.8454	 4.9599	-1.8856	-11.8052	-7.1910	 5.0971	-2.0934	-12.2882	53.4444	99.9298	
   717	-6.4616	 4.3528	-2.1087	-10.8144	-6.9526	 4.9995	-1.9533	-11.9521	-7.3325	 5.1502	-2.1818	-12.4828	53.2655	99.9303	
   718	-6.5106	 4.3387	-2.1718	-10.8493	-7.0220	 4.9836	-2.0385	-12.0056	-7.4176	 5.1334	-2.2836	-12.5511	53.1660	99.9302	
   719	-6.5745	 4.3461	-2.2282	-10.9206	-7.0906	 4.9813	-2.1094	-12.0719	-7.4660	 5.1273	-2.3382	-12.5933	53.2000	99.9317	
   720	-6.5643	 4.3827	-2.1815	-10.9470	-7.1079	 5.0361	-2.0720	-12.1440	-7.4753	 5.1794	-2.2953	-12.6548	53.0860	99.9321	
   721	-6.5893	 4.5048	-2.0844	-11.0940	-7.1214	 5.1585	-1.9630	-12.2799	-7.4995	 5.2920	-2.2070	-12.7916	53.0139	99.9302	
   722	-6.6679	 4.6708	-1.9970	-11.3387	-7.2176	 5.2700	-1.9477	-12.4876	-7.6032	 5.3796	-2.2231	-12.9829	53.0200	99.9316	
   723	-6.7040	 4.7406	-1.9633	-11.4445	-7.2767	 5.3126	-1.9642	-12.5893	-7.6162	 5.3601	-2.2556	-12.9765	53.2710	99.9317	
   724	-6.7919	 4.7489	-2.0429	-11.5407	-7.3705	 5.2298	-2.1408	-12.6003	-7.7689	 5.3140	-2.4544	-13.0830	53.2157	99.9363	
   725	-6.8307	 4.6342	-2.1964	-11.4650	-7.4509	 5.2595	-2.1916	-12.7104	-7.8267	 5.5913	-2.2349	-13.4181	52.0602	99.9496	
   726	-6.5807	 5.8800	-0.7006	-12.4607	-6.7391	 7.1523	 0.4132	-13.8914	-6.5979	 7.6188	 1.0214	-14.2168	51.4911	99.9386	
   727	-5.0742	 6.3555	 1.2815	-11.4297	-5.0750	 7.5190	 2.4439	-12.5941	-5.3398	 7.6516	 2.3123	-12.9915	52.7023	99.8862	
   728	-4.7716	 6.4453	 1.6738	-11.2169	-4.8583	 7.5979	 2.7395	-12.4562	-5.2622	 7.7563	 2.4946	-13.0187	52.2522	99.8839	
   729	-5.3101	 6.7167	 1.4067	-12.0268	-5.6184	 8.0651	 2.4466	-13.6835	-6.0246	 8.3590	 2.3348	-14.3837	50.3035	99.8943	
   730	-5.2692	 7.4110	 2.1419	-12.6802	-5.6361	 8.8248	 3.1886	-14.4608	-5.8809	 9.0474	 3.1670	-14.9284	50.1363	99.8975	
   731	-5.2489	 7.4841	 2.2353	-12.7329	-5.7700	 8.6393	 2.8692	-14.4093	-6.2557	 8.7743	 2.5191	-15.0301	50.0993	99.8962	
   732	-5.5940	 7.3536	 1.7597	-12.9476	-6.0254	 8.6024	 2.5768	-14.6277	-6.3699	 8.8902	 2.5208	-15.2602	49.8564	99.9096	
   733	-5.0888	 7.6104	 2.5217	-12.6991	-5.4406	 8.8908	 3.4501	-14.3314	-5.6667	 9.0035	 3.3373	-14.6703	50.8594	99.8964	
   734	-5.3349	 7.3869	 2.0521	-12.7218	-5.7802	 8.5809	 2.8006	-14.3611	-6.1595	 8.7747	 2.6157	-14.9343	50.2836	99.9030	
   735	-5.3442	 7.5032	 2.1591	-12.8473	-5.7315	 8.8324	 3.1008	-14.5638	-6.0342	 9.1049	 3.0712	-15.1392	49.9379	99.9045	
   736	-5.0360	 7.6876	 2.6517	-12.7236	-5.4596	 9.0360	 3.5763	-14.4955	-5.7531	 9.1941	 3.4416	-14.9473	50.1976	99.8952	
   737	-5.0517	 7.6934	 2.6418	-12.7451	-5.4596	 9.0360	 3.5763	-14.4955	-5.7730	 9.2746	 3.5022	-15.0477	49.9705	99.9011	
   738	-4.8602	 7.8081	 2.9480	-12.6682	-5.2578	 9.2102	 3.9523	-14.4680	-5.5328	 9.3853	 3.8530	-14.9182	50.1374	99.8937	
   739	-4.7945	 7.8322	 3.0378	-12.6266	-5.2137	 9.2630	 4.0492	-14.4767	-5.5347	 9.4651	 3.9309	-14.9999	49.8482	99.8924	
   740	-4.7824	 7.9003	 3.1180	-12.6827	-5.1428	 9.3059	 4.1631	-14.4487	-5.4832	 9.5309	 4.0483	-15.0142	49.9117	99.8924	
   741	-4.7167	 7.9244	 3.2078	-12.6411	-5.1184	 9.3729	 4.2545	-14.4912	-5.4342	 9.5490	 4.1154	-14.9833	49.9117	99.8885	
   742	-4.7361	 8.0041	 3.2681	-12.7402	-5.0561	 9.3845	 4.3283	-14.4405	-5.4398	 9.6729	 4.2336	-15.1128	49.7623	99.8954	
   743	-4.6214	 8.0424	 3.4211	-12.6637	-4.9741	 9.4993	 4.5251	-14.4734	-5.2859	 9.7429	 4.4575	-15.0289	49.8136	99.8928	
   744	-4.5141	 8.0914	 3.5774	-12.6054	-4.8875	 9.5779	 4.6903	-14.4653	-5.1990	 9.7955	 4.5969	-14.9946	49.7875	99.8895	
   745	-4.4872	 8.1379	 3.6508	-12.6251	-4.8630	 9.6448	 4.7817	-14.5079	-5.1320	 9.8129	 4.6814	-14.9450	49.9472	99.8863	
   746	-4.4372	 8.1678	 3.7307	-12.6050	-4.7874	 9.6514	 4.8640	-14.4388	-5.1277	 9.8965	 4.7693	-15.0242	49.7050	99.8894	
   747	-4.3780	 8.2185	 3.8406	-12.5965	-4.7275	 9.7399	 5.0123	-14.4674	-5.0644	 9.9579	 4.8940	-15.0224	49.6885	99.8846	
   748	-4.3280	 8.2484	 3.9205	-12.5764	-4.7141	 9.8524	 5.1382	-14.5665	-5.0402	10.0766	 5.0369	-15.1169	49.4002	99.8823	
   749	-4.2105	 8.3340	 4.1236	-12.5445	-4.5336	 9.8963	 5.3626	-14.4299	-4.8801	10.1504	 5.2708	-15.0306	49.5479	99.8839	
   750	-4.1133	 8.3465	 4.2332	-12.4598	-4.4958	 9.9583	 5.4624	-14.4541	-4.8168	10.2118	 5.3955	-15.0287	49.3869	99.8852	
   751	-4.0717	 8.3714	 4.2998	-12.4431	-4.4398	 9.9791	 5.5392	-14.4190	-4.7579	10.1897	 5.4323	-14.9476	49.5619	99.8808	
   752	-4.0995	 8.3091	 4.2097	-12.4086	-4.4666	 9.8716	 5.4049	-14.3381	-4.7764	10.0628	 5.2868	-14.8393	49.7794	99.8823	
   753	-4.1309	 8.3207	 4.1899	-12.4516	-4.4398	 9.8617	 5.4218	-14.3014	-4.7976	10.1194	 5.3223	-14.9170	49.6577	99.8843	
   754	-4.1587	 8.2584	 4.0998	-12.4171	-4.4619	 9.8353	 5.3733	-14.2971	-4.7622	10.1061	 5.3444	-14.8684	49.6995	99.8869	
   755	-4.0218	 8.2643	 4.2426	-12.2860	-4.2545	 9.8693	 5.6146	-14.1238	-4.4643	10.1707	 5.7070	-14.6351	49.9972	99.8913	
   756	-3.6035	 8.2711	 4.6677	-11.8746	-3.7406	 9.8798	 6.1392	-13.6204	-3.8287	10.0234	 6.1952	-13.8521	51.1443	99.8800	
   757	-3.3621	 8.0046	 4.6426	-11.3666	-3.4503	 9.5723	 6.1219	-13.0226	-3.6374	 9.7690	 6.1321	-13.4065	51.3046	99.8789	
   758	-3.6212	 7.8342	 4.2132	-11.4554	-3.8050	 9.4753	 5.6701	-13.2803	-4.1358	 9.7797	 5.6444	-13.9156	50.2313	99.8786	
   759	-4.1338	 7.7253	 3.5916	-11.8591	-4.5837	 9.0304	 4.4466	-13.6141	-5.0455	 9.1597	 4.1147	-14.2053	50.4435	99.8856	
   760	-4.5772	 6.8814	 2.3043	-11.4586	-4.9671	 7.7279	 2.7607	-12.6950	-5.4385	 7.7190	 2.2810	-13.1576	52.5366	99.8973	
   761	-4.5533	 6.1954	 1.6423	-10.7487	-4.9534	 6.9006	 1.9471	-11.8540	-5.2979	 6.7170	 1.4196	-12.0150	54.2157	99.8982	
   762	-4.4220	 5.6955	 1.2737	-10.1175	-4.8586	 6.2921	 1.4335	-11.1507	-5.1444	 6.0813	 0.9374	-11.2257	55.0967	99.9078	
   763	-4.2925	 5.3011	 1.0087	-9.5936	-4.6155	 5.7602	 1.1445	-10.3757	-4.9499	 5.6553	 0.7059	-10.6054	55.6961	99.9177	
   764	-4.4323	 4.8368	 0.4046	-9.2691	-4.7596	 5.2814	 0.5216	-10.0410	-5.2347	 5.1476	-0.0865	-10.3824	55.7430	99.9065	
   765	-4.8442	 4.3924	-0.4517	-9.2365	-5.1970	 4.9385	-0.2586	-10.1355	-5.6219	 4.8670	-0.7543	-10.4890	55.3881	99.9098	
   766	-4.9423	 4.2271	-0.7151	-9.1693	-5.2269	 4.7768	-0.4502	-10.0037	-5.6609	 4.8087	-0.8518	-10.4697	55.2668	99.9151	
   767	-5.0968	 4.0585	-1.0383	-9.1553	-5.4389	 4.6616	-0.7774	-10.1005	-5.8471	 4.6960	-1.1506	-10.5432	55.0556	99.9160	
   768	-5.2366	 4.0053	-1.2312	-9.2418	-5.5437	 4.6243	-0.9195	-10.1680	-5.8967	 4.6660	-1.2303	-10.5628	55.1541	99.9176	
   769	-5.2652	 4.0642	-1.2009	-9.3294	-5.5745	 4.6840	-0.8906	-10.2585	-5.9626	 4.7880	-1.1740	-10.7507	54.8194	99.9208	
   770	-5.2134	 4.2627	-0.9506	-9.4761	-5.4374	 4.9236	-0.5139	-10.3610	-5.8050	 5.0453	-0.7592	-10.8504	54.7818	99.9178	
   771	-4.7913	 4.7437	-0.0475	-9.5350	-5.0569	 5.4671	 0.4102	-10.5240	-5.3682	 5.5872	 0.2195	-10.9556	54.5431	99.9200	
   772	-4.4914	 5.3343	 0.8429	-9.8257	-4.8418	 5.8714	 1.0295	-10.7132	-5.2609	 5.8025	 0.5421	-11.0636	54.9583	99.9118	
   773	-4.5812	 5.3110	 0.7299	-9.8921	-4.7748	 5.8466	 1.0717	-10.6214	-5.0238	 5.7378	 0.7145	-10.7618	55.8011	99.9125	
   774	-4.3370	 5.0918	 0.7550	-9.4287	-4.6194	 5.5751	 0.9556	-10.1945	-4.8406	 5.4439	 0.6038	-10.2846	56.1791	99.9192	
   775	-4.1926	 4.9498	 0.7573	-9.1425	-4.4782	 5.4124	 0.9340	-9.8906	-4.7580	 5.2973	 0.5398	-10.0554	56.2358	99.9183	
   776	-4.1779	 4.7912	 0.6135	-8.9691	-4.4522	 5.2715	 0.8192	-9.7236	-4.6543	 5.0940	 0.4402	-9.7485	56.6941	99.9161	
   777	-4.1659	 4.5853	 0.4195	-8.7511	-4.4599	 5.0187	 0.5587	-9.4786	-4.6989	 4.8126	 0.1142	-9.5116	56.9482	99.9147	
   778	-4.2094	 4.5288	 0.3195	-8.7381	-4.5033	 4.9794	 0.4760	-9.4827	-4.7709	 4.8153	 0.0449	-9.5863	56.7209	99.9155	
   779	-4.2510	 4.5039	 0.2530	-8.7549	-4.5529	 4.9494	 0.3964	-9.5023	-4.8267	 4.7815	-0.0447	-9.6083	56.7097	99.9154	
   780	-4.3547	 4.3809	 0.0264	-8.7356	-4.7074	 4.8821	 0.1745	-9.5895	-4.9986	 4.7122	-0.2860	-9.7109	56.4214	99.9127	
   781	-4.5111	 4.3178	-0.1932	-8.8288	-4.8619	 4.8148	-0.0473	-9.6766	-5.2091	 4.7120	-0.4965	-9.9212	56.0625	99.9152	
   782	-4.6461	 4.3435	-0.3026	-8.9896	-4.9747	 4.8771	-0.0977	-9.8518	-5.3537	 4.8211	-0.5321	-10.1749	55.6929	99.9140	
   783	-4.6369	 4.3642	-0.2726	-9.0011	-4.9786	 4.9269	-0.0518	-9.9056	-5.3332	 4.8682	-0.4645	-10.2015	55.6304	99.9142	
   784	-4.6517	 4.3858	-0.2658	-9.0375	-4.9786	 4.9269	-0.0518	-9.9056	-5.3780	 4.9337	-0.4438	-10.3117	55.4053	99.9178	
   785	-4.6683	 4.3758	-0.2924	-9.0442	-5.0441	 4.9788	-0.0654	-10.0228	-5.4015	 4.9425	-0.4585	-10.3442	55.3303	99.9150	
   786	-4.6674	 4.3916	-0.2757	-9.0590	-5.0039	 4.9639	-0.0401	-9.9678	-5.4059	 4.9746	-0.4308	-10.3806	55.2586	99.9165	
   787	-4.6831	 4.3974	-0.2856	-9.0806	-5.0307	 4.9738	-0.0570	-10.0045	-5.4295	 4.9834	-0.4456	-10.4130	55.2179	99.9168	
   788	-4.6831	 4.3974	-0.2856	-9.0806	-5.0039	 4.9639	-0.0401	-9.9678	-5.3811	 4.9896	-0.3910	-10.3708	55.3123	99.9190	
   789	-4.6008	 4.4315	-0.1692	-9.0323	-4.9511	 5.0481	 0.0969	-9.9991	-5.2781	 5.0057	-0.2719	-10.2838	55.4374	99.9146	
   790	-4.5693	 4.4199	-0.1493	-8.9892	-4.9124	 5.0061	 0.0936	-9.9186	-5.2781	 5.0057	-0.2719	-10.2838	55.3562	99.9174	
   791	-4.5841	 4.4415	-0.1426	-9.0256	-4.9298	 5.0609	 0.1310	-9.9907	-5.3110	 5.0667	-0.2437	-10.3778	55.1725	99.9151	
   792	-4.5536	 4.4141	-0.1394	-8.9677	-4.8975	 5.0283	 0.1307	-9.9257	-5.2650	 5.0251	-0.2394	-10.2903	55.2879	99.9154	
   793	-4.5841	 4.4415	-0.1426	-9.0256	-4.8975	 5.0283	 0.1307	-9.9257	-5.2874	 5.0579	-0.2290	-10.3454	55.2538	99.9172	
   794	-4.5203	 4.4340	-0.0862	-8.9543	-4.8478	 5.0583	 0.2104	-9.9061	-5.2197	 5.0872	-0.1320	-10.3071	55.1954	99.9167	
   795	-4.4703	 4.4639	-0.0063	-8.9342	-4.7792	 5.0606	 0.2813	-9.8398	-5.1651	 5.0972	-0.0674	-10.2624	55.2732	99.9174	
   796	-4.4472	 4.4473	 0.0002	-8.8945	-4.7982	 5.0883	 0.2901	-9.8865	-5.1639	 5.1210	-0.0423	-10.2850	55.1274	99.9175	
   797	-4.4379	 4.4681	 0.0303	-8.9060	-4.7832	 5.1104	 0.3271	-9.8936	-5.1447	 5.1443	 0.0001	-10.2890	55.1339	99.9176	
   798	-4.4111	 4.5146	 0.1036	-8.9257	-4.7146	 5.1127	 0.3980	-9.8273	-5.1006	 5.1825	 0.0824	-10.2832	55.1810	99.9200	
   799	-4.3713	 4.5080	 0.1368	-8.8793	-4.6933	 5.1256	 0.4322	-9.8189	-5.0652	 5.1692	 0.1045	-10.2345	55.2182	99.9183	
   800	-4.3537	 4.5337	 0.1801	-8.8874	-4.6634	 5.1698	 0.5063	-9.8332	-5.0199	 5.2313	 0.2119	-10.2513	55.1666	99.9192	
   801	-4.2566	 4.5462	 0.2898	-8.8027	-4.5735	 5.1850	 0.6114	-9.7585	-4.9523	 5.2607	 0.3089	-10.2131	55.0956	99.9193	
   802	-4.2149	 4.5711	 0.3563	-8.7860	-4.5436	 5.2292	 0.6855	-9.7728	-4.9436	 5.3122	 0.3691	-10.2559	54.9471	99.9180	
   803	-4.1807	 4.6069	 0.4263	-8.7875	-4.5342	 5.2741	 0.7399	-9.8082	-4.9008	 5.3265	 0.4262	-10.2274	55.0246	99.9180	
   804	-4.1714	 4.6276	 0.4563	-8.7990	-4.4671	 5.2494	 0.7821	-9.7165	-4.8996	 5.3504	 0.4514	-10.2501	54.9875	99.9183	
   805	-4.1566	 4.6060	 0.4495	-8.7626	-4.5073	 5.2642	 0.7568	-9.7715	-4.9008	 5.3265	 0.4262	-10.2274	54.9809	99.9176	
   806	-4.1566	 4.6060	 0.4495	-8.7626	-4.5073	 5.2642	 0.7568	-9.7715	-4.9008	 5.3265	 0.4262	-10.2274	54.9809	99.9176	
   807	-4.1344	 4.5737	 0.4394	-8.7080	-4.4647	 5.1725	 0.7076	-9.6372	-4.8474	 5.1970	 0.3501	-10.0444	55.3767	99.9177	
   808	-4.2334	 4.3926	 0.1592	-8.6260	-4.5703	 5.0042	 0.4338	-9.5745	-4.9677	 5.0778	 0.1106	-10.0457	55.2149	99.9203	
   809	-4.4111	 4.2406	-0.1705	-8.6517	-4.7090	 4.8550	 0.1459	-9.5640	-5.0912	 5.0147	-0.0761	-10.1060	55.0825	99.9264	
   810	-4.5018	 4.2015	-0.3002	-8.7033	-4.8123	 4.8448	 0.0324	-9.6570	-5.1105	 4.9915	-0.1185	-10.1020	55.1764	99.9292	
   811	-4.5370	 4.1500	-0.3869	-8.6870	-4.8769	 4.7926	-0.0843	-9.6695	-5.1911	 4.9426	-0.2480	-10.1339	55.0792	99.9296	
   812	-4.5389	 4.1184	-0.4203	-8.6573	-4.8650	 4.7606	-0.1045	-9.6257	-5.2160	 4.9276	-0.2878	-10.1437	54.9982	99.9283	
   813	-4.5379	 4.1342	-0.4036	-8.6721	-4.8919	 4.7705	-0.1214	-9.6624	-5.2290	 4.9082	-0.3203	-10.1373	55.0594	99.9282	
   814	-4.5694	 4.1458	-0.4234	-8.7152	-4.9573	 4.8223	-0.1351	-9.7796	-5.2501	 4.9648	-0.2848	-10.2150	54.9238	99.9303	
   815	-4.5499	 4.2031	-0.3467	-8.7531	-4.9557	 4.8494	-0.1064	-9.8051	-5.3016	 5.0145	-0.2866	-10.3163	54.7513	99.9314	
   816	-4.6277	 4.2480	-0.3796	-8.8756	-5.0764	 4.8939	-0.1825	-9.9703	-5.3916	 5.0179	-0.3732	-10.4096	54.7682	99.9315	
   817	-4.7331	 4.2305	-0.5026	-8.9636	-5.1292	 4.8098	-0.3195	-9.9389	-5.4885	 5.0056	-0.4824	-10.4941	54.7241	99.9360	
   818	-4.8182	 4.4231	-0.3950	-9.2413	-5.2673	 5.2615	-0.0058	-10.5288	-5.5998	 5.7593	 0.1600	-11.3593	52.8394	99.9481	
   819	-4.4867	 5.8242	 1.3376	-10.3109	-4.6665	 7.1264	 2.4597	-11.7929	-4.7315	 7.5571	 2.8261	-12.2887	52.2294	99.9253	
   820	-3.3975	 6.3088	 2.9113	-9.7063	-3.3336	 7.4495	 4.1158	-10.7831	-3.5231	 7.6754	 4.1528	-11.1986	53.8079	99.9006	
   821	-3.0931	 6.4301	 3.3371	-9.5232	-3.2824	 7.6240	 4.3415	-10.9065	-3.7243	 7.9700	 4.2462	-11.6944	52.2726	99.9029	
   822	-3.4567	 6.8062	 3.3496	-10.2628	-3.6839	 8.1385	 4.4545	-11.8224	-3.9783	 8.4062	 4.4284	-12.3846	51.9041	99.8987	
   823	-3.5963	 7.0270	 3.4308	-10.6234	-3.9078	 8.2903	 4.3823	-12.1981	-4.2415	 8.5476	 4.3066	-12.7892	51.6101	99.9031	
   824	-3.5926	 7.2272	 3.6347	-10.8198	-3.9363	 8.5081	 4.5716	-12.4443	-4.2751	 8.7123	 4.4377	-12.9875	51.4912	99.8983	
   825	-3.6833	 7.1881	 3.5049	-10.8714	-3.9757	 8.4190	 4.4432	-12.3946	-4.2906	 8.6451	 4.3550	-12.9358	51.7165	99.9026	
   826	-3.6278	 6.9016	 3.2739	-10.5294	-4.0693	 7.9837	 3.9143	-12.0530	-4.4810	 8.2176	 3.7371	-12.6987	51.7530	99.9122	
   827	-3.8315	 6.5818	 2.7505	-10.4133	-4.1874	 7.5989	 3.4114	-11.7863	-4.5603	 7.8457	 3.2860	-12.4061	52.2842	99.9156	
   828	-4.0323	 6.1723	 2.1401	-10.2046	-4.3615	 7.1934	 2.8318	-11.5548	-4.7172	 7.4848	 2.7681	-12.2021	52.4083	99.9187	
   829	-4.1786	 5.8717	 1.6932	-10.0502	-4.5277	 6.9231	 2.3953	-11.4508	-4.9114	 7.2169	 2.3060	-12.1284	52.3203	99.9160	
   830	-4.2036	 5.7197	 1.5162	-9.9233	-4.4993	 6.8228	 2.3234	-11.3220	-4.8363	 7.1583	 2.3225	-11.9946	52.3802	99.9171	
   831	-4.1388	 5.7280	 1.5893	-9.8668	-4.4575	 6.7175	 2.2599	-11.1749	-4.8995	 6.9812	 2.0822	-11.8808	52.6350	99.9120	
   832	-4.1194	 5.5113	 1.3919	-9.6307	-4.5677	 6.4680	 1.9002	-11.0357	-4.9410	 6.6438	 1.7034	-11.5849	52.9944	99.9159	
   833	-4.2102	 5.1982	 0.9881	-9.4083	-4.6590	 6.0733	 1.4142	-10.7324	-5.1264	 6.3118	 1.1859	-11.4384	52.9866	99.9199	
   834	-4.4221	 5.0104	 0.5884	-9.4325	-4.8119	 5.9156	 1.1036	-10.7275	-5.2077	 6.2511	 1.0439	-11.4589	52.9346	99.9278	
   835	-4.4230	 4.9946	 0.5717	-9.4176	-4.7717	 5.9008	 1.1290	-10.6724	-5.1885	 6.2743	 1.0863	-11.4629	52.8809	99.9279	
   836	-4.4073	 4.9888	 0.5816	-9.3961	-4.7717	 5.9008	 1.1290	-10.6724	-5.2121	 6.2831	 1.0716	-11.4953	52.7594	99.9276	
   837	-4.4175	 4.9523	 0.5349	-9.3697	-4.7598	 5.8688	 1.1088	-10.6286	-5.1798	 6.2102	 1.0309	-11.3901	52.9829	99.9244	
   838	-4.4536	 4.8850	 0.4315	-9.3385	-4.8197	 5.7803	 0.9605	-10.6000	-5.2077	 6.1355	 0.9283	-11.3432	53.0484	99.9294	
   839	-4.4915	 4.7861	 0.2947	-9.2777	-4.8528	 5.6820	 0.8291	-10.5347	-5.2610	 6.0338	 0.7732	-11.2949	53.0658	99.9276	
   840	-4.5378	 4.6823	 0.1446	-9.2201	-4.9087	 5.5437	 0.6349	-10.4524	-5.2684	 5.8905	 0.6226	-11.1590	53.3150	99.9322	
   841	-4.5656	 4.6200	 0.0545	-9.1856	-4.9441	 5.4048	 0.4605	-10.3489	-5.3273	 5.6814	 0.3546	-11.0088	53.6934	99.9297	
   842	-4.5952	 4.6632	 0.0681	-9.2584	-4.9883	 5.4695	 0.4810	-10.4577	-5.5074	 5.9194	 0.4125	-11.4269	52.7263	99.9346	
   843	-4.6274	 5.7553	 1.1280	-10.3826	-4.6816	 7.2217	 2.5401	-11.9033	-4.3746	 7.5996	 3.2255	-11.9743	53.0193	99.9279	
   844	-2.8775	 6.1329	 3.2554	-9.0104	-2.8803	 7.4756	 4.5951	-10.3559	-3.1737	 7.6903	 4.5171	-10.8641	53.3055	99.8828	
   845	-2.7405	 6.4128	 3.6723	-9.1533	-2.8670	 7.7056	 4.8384	-10.5726	-3.2662	 7.8772	 4.6115	-11.1435	52.9356	99.8803	
   846	-2.5934	 6.4552	 3.8619	-9.0486	-2.6210	 7.5802	 4.9591	-10.2012	-2.8397	 7.6380	 4.7987	-10.4778	54.4000	99.8885	
   847	-2.1373	 5.8757	 3.7384	-8.0130	-2.0310	 6.7750	 4.7439	-8.8060	-2.1189	 6.9292	 4.8108	-9.0482	55.9805	99.9141	
   848	-1.8071	 5.2056	 3.3985	-7.0127	-1.7564	 6.0794	 4.3229	-7.8358	-1.6848	 6.1395	 4.4552	-7.8243	57.1729	99.9193	
   849	-1.7832	 4.7937	 3.0106	-6.5768	-1.7917	 5.5880	 3.7963	-7.3797	-1.7864	 5.6847	 3.8989	-7.4712	57.3223	99.9250	
   850	-1.8174	 4.6209	 2.8036	-6.4383	-1.9556	 5.3584	 3.4027	-7.3139	-1.8937	 5.4694	 3.5763	-7.3632	57.3891	99.9369	
   851	-1.8582	 4.4748	 2.6167	-6.3329	-2.0217	 5.1617	 3.1399	-7.1834	-2.0302	 5.2712	 3.2415	-7.3015	57.4133	99.9365	
   852	-1.9544	 4.3410	 2.3867	-6.2954	-2.0792	 4.8789	 2.7996	-6.9580	-2.1015	 5.0545	 2.9536	-7.1561	57.7499	99.9464	
   853	-2.1053	 4.2355	 2.1303	-6.3407	-2.2927	 4.7366	 2.4438	-7.0294	-2.4186	 4.9667	 2.5486	-7.3854	57.3304	99.9486	
   854	-2.1886	 4.1856	 1.9972	-6.3742	-2.5079	 4.6848	 2.1768	-7.1927	-2.5986	 4.8578	 2.2597	-7.4565	57.2819	99.9509	
   855	-2.3838	 4.1449	 1.7612	-6.5287	-2.7901	 4.6578	 1.8675	-7.4479	-3.0126	 4.8733	 1.8612	-7.8859	56.5529	99.9495	
   856	-2.8242	 4.1705	 1.3463	-6.9947	-3.3625	 4.8208	 1.4581	-8.1833	-3.6848	 5.1256	 1.4413	-8.8106	55.0957	99.9484	
   857	-3.3748	 4.3738	 0.9991	-7.7485	-3.9980	 5.0761	 1.0780	-9.0741	-4.2510	 5.3382	 1.0877	-9.5892	54.5739	99.9491	
   858	-3.6634	 4.5207	 0.8573	-8.1841	-4.2337	 5.1425	 0.9086	-9.3762	-4.5576	 5.4533	 0.8962	-10.0110	54.3548	99.9508	
   859	-3.5737	 4.5440	 0.9704	-8.1176	-4.0729	 5.0831	 1.0101	-9.1560	-4.2510	 5.3382	 1.0877	-9.5892	55.2971	99.9555	
   860	-3.1268	 4.4918	 1.3651	-7.6185	-3.5392	 4.9620	 1.4227	-8.5011	-3.7351	 5.1993	 1.4647	-8.9345	55.9992	99.9540	
   861	-2.7187	 4.3250	 1.6064	-7.0437	-3.1102	 4.8036	 1.6933	-7.9138	-3.2956	 4.9795	 1.6844	-8.2752	56.5728	99.9496	
   862	-2.4347	 4.2362	 1.8016	-6.6709	-2.7854	 4.7389	 1.9534	-7.5244	-2.9654	 4.8555	 1.8907	-7.8210	57.0003	99.9434	
   863	-2.3468	 4.2279	 1.8813	-6.5747	-2.6286	 4.7294	 2.1007	-7.3579	-2.8623	 4.8716	 2.0098	-7.7341	57.0163	99.9401	
   864	-2.2394	 4.2770	 2.0377	-6.5164	-2.5553	 4.8129	 2.2575	-7.3681	-2.7283	 4.9065	 2.1787	-7.6349	57.1416	99.9394	
   865	-2.2144	 4.2919	 2.0776	-6.5064	-2.5206	 4.8208	 2.3001	-7.3414	-2.7519	 4.9154	 2.1640	-7.6673	57.0555	99.9363	
   866	-2.1931	 4.3808	 2.1878	-6.5739	-2.4607	 4.9092	 2.4484	-7.3699	-2.7091	 5.0453	 2.3367	-7.7545	56.9308	99.9372	
   867	-2.0155	 4.5328	 2.5175	-6.5483	-2.2913	 5.1161	 2.8247	-7.4074	-2.5068	 5.1215	 2.6152	-7.6284	57.1989	99.9265	
   868	-1.8480	 4.5113	 2.6634	-6.3593	-2.1068	 4.9927	 2.8858	-7.0995	-2.3907	 4.9258	 2.5356	-7.3166	57.7082	99.9216	
   869	-1.8832	 4.3228	 2.4397	-6.2059	-2.1911	 4.8373	 2.6461	-7.0284	-2.4142	 4.7034	 2.2897	-7.1176	57.9499	99.9195	
   870	-1.8499	 4.3427	 2.4930	-6.1925	-2.1044	 4.9158	 2.8113	-7.0202	-2.2609	 4.7615	 2.5011	-7.0224	58.1021	99.9162	
   871	-1.6204	 4.4192	 2.7989	-6.0395	-1.9593	 4.9383	 2.9788	-6.8976	-2.1870	 4.7946	 2.6081	-6.9817	57.9619	99.9196	
   872	-1.6213	 4.4034	 2.7822	-6.0247	-1.9593	 4.9383	 2.9788	-6.8976	-2.1740	 4.8140	 2.6405	-6.9881	57.8983	99.9211	
   873	-1.6528	 4.4150	 2.7624	-6.0678	-1.9404	 4.9106	 2.9700	-6.8510	-2.2063	 4.7714	 2.5656	-6.9777	58.0327	99.9169	
   874	-1.6694	 4.4051	 2.7357	-6.0744	-1.9554	 4.8885	 2.9330	-6.8438	-2.2342	 4.8123	 2.5786	-7.0466	57.8545	99.9222	
   875	-1.6435	 4.4358	 2.7924	-6.0793	-1.9728	 4.9432	 2.9704	-6.9160	-2.2342	 4.8123	 2.5786	-7.0466	57.8815	99.9190	
   876	-1.6241	 4.4931	 2.8691	-6.1171	-1.9815	 5.0294	 3.0478	-7.0108	-2.2107	 4.9191	 2.7089	-7.1298	57.7131	99.9222	
   877	-1.4167	 4.7390	 3.3223	-6.1557	-1.7963	 5.2719	 3.4755	-7.0682	-1.9451	 5.0567	 3.1121	-7.0018	58.0998	99.9194	
   878	-1.3418	 4.7839	 3.4422	-6.1256	-1.7293	 5.2472	 3.5178	-6.9764	-1.9376	 5.0843	 3.1472	-7.0220	58.0127	99.9247	
   879	-1.3594	 4.7581	 3.3988	-6.1175	-1.7695	 5.2620	 3.4924	-7.0315	-1.9140	 5.0755	 3.1619	-6.9896	58.0609	99.9250	
   880	-1.3159	 4.8146	 3.4988	-6.1304	-1.6891	 5.3498	 3.6606	-7.0389	-1.8917	 5.1584	 3.2671	-7.0502	57.9198	99.9179	
   881	-1.2215	 4.9168	 3.6954	-6.1382	-1.5922	 5.4867	 3.8944	-7.0789	-1.8334	 5.3555	 3.5226	-7.1891	57.5389	99.9188	
   882	-1.1076	 5.0763	 3.9687	-6.1839	-1.5742	 5.6805	 4.1062	-7.2546	-1.8037	 5.4661	 3.6629	-7.2699	57.4486	99.9143	
   883	-1.1511	 5.2938	 4.1429	-6.4449	-1.5955	 5.9025	 4.3069	-7.4980	-1.8689	 5.7157	 3.8473	-7.5848	57.1287	99.9130	
   884	-1.1797	 5.4898	 4.3102	-6.6695	-1.6878	 6.0817	 4.3938	-7.7695	-1.9559	 5.7788	 3.8234	-7.7347	57.2381	99.9065	
   885	-1.4888	 5.1525	 3.6638	-6.6414	-1.9360	 5.5791	 3.6431	-7.5151	-2.1599	 5.3199	 3.1605	-7.4799	57.9013	99.9202	
   886	-1.5296	 4.8693	 3.3398	-6.3989	-1.8097	 5.3943	 3.5845	-7.2041	-1.8620	 5.2689	 3.4074	-7.1310	58.1284	99.9291	
   887	-1.4167	 4.7390	 3.3223	-6.1557	-1.8144	 5.1957	 3.3812	-7.0101	-1.8892	 4.9749	 3.0862	-6.8641	58.4646	99.9283	
   888	-1.5324	 4.8220	 3.2897	-6.3544	-1.7293	 5.2472	 3.5178	-6.9764	-1.8358	 5.0765	 3.2412	-6.9125	58.6518	99.9246	
   889	-1.6814	 4.6110	 2.9297	-6.2924	-1.9831	 5.1198	 3.1366	-7.1028	-1.9922	 5.0744	 3.0827	-7.0667	58.0876	99.9391	
   890	-1.4102	 4.9865	 3.5764	-6.3967	-1.6190	 5.4966	 3.8775	-7.1156	-1.7199	 5.3433	 3.6240	-7.0633	58.2844	99.9222	
   891	-1.4722	 5.0255	 3.5534	-6.4977	-1.8705	 5.5273	 3.6567	-7.3978	-2.1643	 5.3520	 3.1882	-7.5163	57.4812	99.9167	
   892	-1.9876	 5.1432	 3.1558	-7.1308	-2.4902	 5.7009	 3.2106	-8.1910	-2.8129	 5.5955	 2.7830	-8.4085	56.4429	99.9217	
   893	-2.0532	 5.5302	 3.4771	-7.5834	-2.4802	 6.2292	 3.7489	-8.7093	-2.6685	 6.1802	 3.5122	-8.8488	56.0255	99.9235	
   894	-1.7145	 5.6873	 3.9729	-7.4018	-2.1917	 6.3645	 4.1727	-8.5562	-2.4228	 6.2827	 3.8604	-8.7055	56.0559	99.9218	
   895	-1.6340	 5.6898	 4.0559	-7.3238	-2.1033	 6.2351	 4.1317	-8.3385	-2.5314	 6.1591	 3.6283	-8.6906	56.0436	99.9177	
   896	-1.9449	 5.5950	 3.6502	-7.5399	-2.5322	 6.2760	 3.7437	-8.8082	-2.7580	 6.3111	 3.5537	-9.0692	55.4057	99.9352	
   897	-1.7432	 5.7462	 4.0032	-7.4894	-2.2185	 6.3744	 4.1558	-8.5929	-2.4352	 6.3908	 3.9561	-8.8261	55.8924	99.9332	
   898	-1.6451	 5.7745	 4.1295	-7.4196	-2.0829	 6.3520	 4.2690	-8.4348	-2.3402	 6.2517	 3.9120	-8.5920	56.4073	99.9229	
   899	-1.6979	 5.6973	 3.9995	-7.3951	-2.2405	 6.2305	 3.9899	-8.4710	-2.5201	 6.0271	 3.5075	-8.5474	56.5812	99.9194	
   900	-1.8015	 5.5743	 3.7729	-7.3758	-2.3949	 6.0457	 3.6507	-8.4406	-2.6883	 5.7982	 3.1104	-8.4865	56.7802	99.9203	
   901	-1.8339	 5.4331	 3.5993	-7.2670	-2.4083	 5.8157	 3.4074	-8.2239	-2.7558	 5.4219	 2.6666	-8.1778	57.4888	99.9082	
   902	-2.3818	 4.7246	 2.3428	-7.1064	-3.0834	 4.7937	 1.7102	-7.8771	-3.6039	 4.4807	 0.8772	-8.0847	57.7307	99.9277	
   903	-3.1055	 4.4436	 1.3382	-7.5491	-3.6912	 4.5828	 0.8916	-8.2740	-4.0445	 4.3296	 0.2856	-8.3743	57.7715	99.9333	
   904	-3.4840	 4.2932	 0.8093	-7.7771	-4.2232	 4.3785	 0.1552	-8.6017	-4.5515	 4.0575	-0.4935	-8.6091	57.7509	99.9377	
   905	-4.0743	 4.2290	 0.1548	-8.3033	-4.8010	 4.3293	-0.4718	-9.1303	-5.0214	 4.0392	-0.9817	-9.0606	57.5946	99.9442	
   906	-4.2510	 4.5039	 0.2530	-8.7549	-4.9911	 4.5930	-0.3982	-9.5841	-5.1388	 4.3266	-0.8116	-9.4655	57.3857	99.9505	
   907	-4.0983	 4.9150	 0.8168	-9.0132	-4.8856	 4.9962	 0.1105	-9.8819	-5.0018	 4.7681	-0.2332	-9.7700	57.0388	99.9566	
   908	-3.7808	 5.2573	 1.4765	-9.0380	-4.4735	 5.4936	 1.0199	-9.9671	-4.5694	 5.3421	 0.7732	-9.9115	56.5283	99.9528	
   909	-3.3228	 5.3944	 2.0718	-8.7172	-3.9549	 5.7028	 1.7478	-9.6577	-4.1213	 5.5207	 1.3999	-9.6421	56.5425	99.9419	
   910	-3.0590	 5.3696	 2.3107	-8.4286	-3.6703	 5.6530	 1.9826	-9.3233	-3.9475	 5.3946	 1.4476	-9.3422	56.8109	99.9307	
   911	-3.4469	 4.7873	 1.3406	-8.2342	-4.3401	 4.8432	 0.5030	-9.1832	-4.6814	 4.3375	-0.3434	-9.0189	57.6861	99.9297	
   912	-4.7156	 4.1192	-0.5963	-8.8348	-5.6452	 4.0538	-1.5915	-9.6989	-5.8716	 3.6403	-2.2308	-9.5119	57.7291	99.9498	
   913	-5.3754	 3.9678	-1.4074	-9.3432	-6.3783	 3.9237	-2.4547	-10.3020	-6.3749	 3.6710	-2.7034	-10.0461	57.2472	99.9706	
   914	-5.8167	 3.9777	-1.8390	-9.7944	-6.8592	 4.0115	-2.8478	-10.8707	-6.7499	 3.8605	-2.8889	-10.6105	56.5709	99.9773	
   915	-5.8879	 4.2700	-1.6179	-10.1579	-6.7632	 4.4873	-2.2760	-11.2505	-6.6049	 4.4571	-2.1472	-11.0621	55.8806	99.9747	
   916	-5.3261	 4.9412	-0.3849	-10.2673	-5.9059	 5.3453	-0.5606	-11.2512	-5.6934	 5.4598	-0.2331	-11.1533	55.5382	99.9704	
   917	-4.5802	 5.4638	 0.8836	-10.0440	-5.0389	 5.7783	 0.7393	-10.8172	-4.9897	 5.8163	 0.8271	-10.8061	55.9893	99.9604	
   918	-3.9649	 5.6799	 1.7151	-9.6447	-4.3209	 6.1212	 1.8003	-10.4420	-4.2903	 6.0892	 1.7994	-10.3797	56.2062	99.9464	
   919	-3.6252	 5.8528	 2.2276	-9.4780	-4.0568	 6.3070	 2.2501	-10.3638	-4.1501	 6.1279	 1.9783	-10.2780	56.2215	99.9311	
   920	-3.5309	 5.8179	 2.2871	-9.3488	-3.9346	 6.2895	 2.3548	-10.2241	-4.0197	 6.2067	 2.1875	-10.2266	56.0448	99.9372	
   921	-3.4892	 5.9799	 2.4908	-9.4690	-3.8677	 6.4997	 2.6319	-10.3674	-3.9615	 6.4039	 2.4429	-10.3655	55.8884	99.9323	
   922	-3.4179	 6.0986	 2.6808	-9.5165	-3.7385	 6.6040	 2.8654	-10.3425	-3.8293	 6.5186	 2.6898	-10.3480	55.9942	99.9320	
   923	-3.2643	 6.1145	 2.8502	-9.3788	-3.5926	 6.6400	 3.0472	-10.2326	-3.7182	 6.5743	 2.8565	-10.2926	55.8573	99.9310	
   924	-3.2125	 6.1759	 2.9635	-9.3884	-3.5509	 6.7697	 3.2187	-10.3206	-3.5997	 6.6576	 3.0584	-10.2574	55.9294	99.9283	
   925	-3.1264	 6.2731	 3.1468	-9.3995	-3.4232	 6.8469	 3.4236	-10.2701	-3.5321	 6.8026	 3.2710	-10.3348	55.7297	99.9300	
   926	-3.0755	 6.3188	 3.2434	-9.3943	-3.4044	 6.9367	 3.5322	-10.3410	-3.4874	 6.8527	 3.3658	-10.3403	55.6995	99.9271	
   927	-3.0487	 6.3653	 3.3168	-9.4140	-3.3673	 6.9852	 3.6177	-10.3525	-3.4781	 6.9162	 3.4385	-10.3944	55.5939	99.9263	
   928	-2.9830	 6.3894	 3.4066	-9.3724	-3.3121	 6.9924	 3.6802	-10.3046	-3.4217	 6.9619	 3.5407	-10.3837	55.5307	99.9308	
   929	-2.8830	 6.4493	 3.5663	-9.3323	-3.2026	 7.1109	 3.9082	-10.3135	-3.2554	 7.0394	 3.7846	-10.2949	55.6425	99.9273	
   930	-2.7211	 6.4701	 3.7491	-9.1912	-3.0584	 7.1198	 4.0614	-10.1781	-3.1499	 7.1033	 3.9539	-10.2533	55.4685	99.9309	
   931	-2.6702	 6.5158	 3.8457	-9.1860	-3.0127	 7.1997	 4.1869	-10.2123	-3.1108	 7.1616	 4.0513	-10.2725	55.4027	99.9273	
   932	-2.6119	 6.5507	 3.9389	-9.1626	-2.9756	 7.2482	 4.2725	-10.2238	-3.0264	 7.1665	 4.1406	-10.1929	55.5557	99.9265	
   933	-2.5777	 6.5864	 4.0088	-9.1640	-2.9134	 7.2597	 4.3463	-10.1731	-3.0407	 7.2388	 4.1986	-10.2795	55.3369	99.9274	
   934	-2.5443	 6.6063	 4.0621	-9.1507	-2.8779	 7.2812	 4.4032	-10.1591	-2.9917	 7.2569	 4.2657	-10.2486	55.3821	99.9278	
   935	-2.5277	 6.6163	 4.0887	-9.1440	-2.8763	 7.3082	 4.4318	-10.1846	-2.9662	 7.2838	 4.3181	-10.2501	55.3555	99.9288	
   936	-2.4129	 6.6546	 4.2417	-9.0675	-2.7550	 7.3947	 4.6397	-10.1496	-2.8073	 7.3337	 4.5269	-10.1412	55.4579	99.9251	
   937	-2.2029	 6.6737	 4.4709	-8.8766	-2.5413	 7.4195	 4.8780	-9.9608	-2.6131	 7.3703	 4.7577	-9.9835	55.4762	99.9247	
   938	-2.0188	 6.6622	 4.6435	-8.6809	-2.3269	 7.3403	 5.0133	-9.6671	-2.4045	 7.2190	 4.8150	-9.6236	56.0395	99.9211	
   939	-1.9189	 6.1739	 4.2551	-8.0928	-2.2194	 6.7133	 4.4938	-8.9327	-2.3491	 6.6627	 4.3141	-9.0118	56.5299	99.9311	
   940	-2.2669	 5.8590	 3.5922	-8.1259	-2.6640	 6.6011	 3.9370	-9.2650	-2.7841	 6.6191	 3.8355	-9.4034	55.5795	99.9293	
   941	-2.3317	 5.8507	 3.5191	-8.1823	-2.4361	 6.5169	 4.0807	-8.9531	-2.6121	 6.4572	 3.8456	-9.0694	56.5160	99.9122	
   942	-2.3872	 5.5891	 3.2019	-7.9763	-2.5440	 6.1906	 3.6465	-8.7346	-2.6660	 6.1123	 3.4468	-8.7784	56.9127	99.9196	
   943	-2.4159	 5.5110	 3.0952	-7.9269	-2.4604	 6.0975	 3.6370	-8.5579	-2.5288	 6.0913	 3.5629	-8.6202	57.1473	99.9251	
   944	-2.0393	 5.6299	 3.5907	-7.6692	-2.1885	 6.3011	 4.1125	-8.4896	-2.2577	 6.2207	 3.9635	-8.4784	57.0091	99.9186	
   945	-1.9375	 5.5842	 3.6468	-7.5217	-2.1065	 6.1810	 4.0745	-8.2875	-2.2793	 6.0341	 3.7553	-8.3135	57.2373	99.9116	
   946	-2.1494	 5.5335	 3.3842	-7.6829	-2.4100	 6.1411	 3.7310	-8.5510	-2.5624	 6.1404	 3.5785	-8.7028	56.5438	99.9281	
   947	-1.8885	 5.7354	 3.8470	-7.6238	-2.1965	 6.5183	 4.3217	-8.7147	-2.1715	 6.4926	 4.3216	-8.6642	56.3979	99.9285	
   948	-1.6914	 5.8077	 4.1165	-7.4990	-1.9852	 6.5024	 4.5171	-8.4876	-2.0852	 6.5332	 4.4485	-8.6185	56.3041	99.9305	
   949	-1.3934	 5.8186	 4.4253	-7.2120	-1.7653	 6.5180	 4.7526	-8.2832	-1.8382	 6.5439	 4.7062	-8.3822	56.3483	99.9344	
   950	-1.2148	 5.8494	 4.6347	-7.0642	-1.6060	 6.5490	 4.9429	-8.1550	-1.6266	 6.5679	 4.9419	-8.1946	56.5159	99.9374	
   951	-1.0372	 5.8644	 4.8273	-6.9015	-1.4263	 6.5794	 5.1530	-8.0056	-1.4857	 6.6185	 5.1333	-8.1043	56.4200	99.9362	
   952	-0.8632	 5.8163	 4.9532	-6.6795	-1.3593	 6.5546	 5.1952	-7.9139	-1.3988	 6.5554	 5.1572	-7.9543	56.4006	99.9370	
   953	-0.8873	 5.6801	 4.7929	-6.5673	-1.3363	 6.3596	 5.0231	-7.6959	-1.3192	 6.3491	 5.0304	-7.6685	56.9080	99.9403	
   954	-1.0511	 5.4907	 4.4397	-6.5418	-1.4340	 6.2091	 4.7750	-7.6431	-1.3819	 6.2996	 4.9182	-7.6816	56.7670	99.9450	
   955	-1.2121	 5.4856	 4.2736	-6.6977	-1.4963	 6.1976	 4.7011	-7.6938	-1.3819	 6.2996	 4.9182	-7.6816	57.0162	99.9458	
   956	-1.1917	 5.5587	 4.3671	-6.7504	-1.4357	 6.2995	 4.8638	-7.7352	-1.2274	 6.3816	 5.1547	-7.6091	57.2383	99.9462	
   957	-1.1279	 5.5513	 4.4235	-6.6791	-1.3434	 6.2378	 4.8943	-7.5812	-1.2646	 6.3590	 5.0949	-7.6238	57.1048	99.9444	
   958	-1.0529	 5.5961	 4.5433	-6.6491	-1.2291	 6.3200	 5.0908	-7.5491	-1.2373	 6.4218	 5.1850	-7.6593	56.9610	99.9354	
   959	-0.9215	 5.6444	 4.7229	-6.5659	-1.1637	 6.3857	 5.2218	-7.5494	-1.2038	 6.3727	 5.1694	-7.5766	57.0665	99.9264	
   960	-0.8910	 5.6170	 4.7261	-6.5079	-1.1653	 6.3586	 5.1932	-7.5239	-1.2882	 6.3679	 5.0802	-7.6562	56.7893	99.9247	
   961	-0.9558	 5.6086	 4.6530	-6.5644	-1.2291	 6.3200	 5.0908	-7.5491	-1.3540	 6.2587	 4.9052	-7.6128	57.0480	99.9203	
   962	-0.9724	 5.5987	 4.6263	-6.5711	-1.2827	 6.3398	 5.0570	-7.6225	-1.3440	 6.2185	 4.8749	-7.5626	57.1908	99.9187	
   963	-0.9687	 5.6618	 4.6932	-6.6305	-1.2276	 6.3470	 5.1194	-7.5746	-1.3819	 6.2996	 4.9182	-7.6816	57.0072	99.9207	
   964	-0.9493	 5.7191	 4.7699	-6.6683	-1.2441	 6.4154	 5.1711	-7.6595	-1.3801	 6.3354	 4.9559	-7.7156	57.0020	99.9199	
