OxySoft export of:	C:\Users\TO3 TechSupport\Documents\Train2Adapt\Post_tests\T2A_47_POST_NIRS
Export date:	2022/12/22 09:01:35
Start of measurement:	2022-12-22 08:04:43.496

Datafile sample rate:	10.00	Hz
Datafile duration:	3214.100	s
Datafile total number of samples:	32141

Description:	

Optode-template:	PortaMon TSI Fit Factor
Optode distance (mm):	 35.00
Optode gradients (mm):	 5.00
DPF:	6.61

Device id:	291
# Receivers:	1
# Light sources:	6
# ADC:	2

Light source wavelengths:
device	index	wavelength
1	1	847	nm
1	2	761	nm
1	3	848	nm
1	4	761	nm
1	5	848	nm
1	6	762	nm

Export sample rate:	10.00	Hz
Selected time span:	0	3214.100
Selected time span (sample numbers):	0	32141


Legend:
Column	Trace (Measurement)
1	(Sample number)
2	Rx1-Tx1 O2Hb (T2A_47_POST_NIRS)
3	Rx1-Tx1 HHb (T2A_47_POST_NIRS)
4	Rx1-Tx1 tHb (T2A_47_POST_NIRS)
5	Rx1-Tx1 HbDiff (T2A_47_POST_NIRS)
6	Rx1-Tx2 O2Hb (T2A_47_POST_NIRS)
7	Rx1-Tx2 HHb (T2A_47_POST_NIRS)
8	Rx1-Tx2 tHb (T2A_47_POST_NIRS)
9	Rx1-Tx2 HbDiff (T2A_47_POST_NIRS)
10	Rx1-Tx3 O2Hb (T2A_47_POST_NIRS)
11	Rx1-Tx3 HHb (T2A_47_POST_NIRS)
12	Rx1-Tx3 tHb (T2A_47_POST_NIRS)
13	Rx1-Tx3 HbDiff (T2A_47_POST_NIRS)
14	Rx1-Tx1,Tx2,Tx3 TSI% (T2A_47_POST_NIRS)
15	Rx1-Tx1,Tx2,Tx3 TSI Fit Factor (T2A_47_POST_NIRS)
16	(Event)


1	2	3	4	5	6	7	8	9	10	11	12	13	14	15	16
     0	121.9829	61.1810	183.1638	60.8020	96.7242	47.3941	144.1182	49.3301	80.5388	41.2141	121.7529	39.3247	43.7250	98.5201	
     1	 0.0069	-0.0101	-0.0032	 0.0171	-0.0074	-0.0167	-0.0241	 0.0093	-0.0628	-0.0163	-0.0792	-0.0465	59.9670	99.9771	
     2	-0.0235	-0.0140	-0.0375	-0.0094	-0.0147	-0.0334	-0.0482	 0.0187	-0.0908	-0.0116	-0.1023	-0.0792	59.9288	99.9773	
     3	-0.0391	-0.0234	-0.0625	-0.0157	-0.0465	-0.0281	-0.0748	-0.0184	-0.0966	-0.0151	-0.1117	-0.0815	59.9307	99.9777	
     4	-0.0313	-0.0187	-0.0500	-0.0125	-0.0399	-0.0241	-0.0641	-0.0158	-0.0855	-0.0192	-0.1048	-0.0663	59.9688	99.9775	
     5	-0.0313	-0.0187	-0.0500	-0.0125	-0.0525	-0.0195	-0.0720	-0.0330	-0.0966	-0.0151	-0.1117	-0.0815	59.9288	99.9777	
     6	-0.0617	-0.0226	-0.0843	-0.0390	-0.0658	-0.0275	-0.0934	-0.0382	-0.0972	-0.0263	-0.1235	-0.0709	60.0088	99.9777	
     7	-0.0617	-0.0226	-0.0843	-0.0390	-0.0717	-0.0188	-0.0906	-0.0528	-0.0966	-0.0151	-0.1117	-0.0815	59.9726	99.9779	
     8	-0.0235	-0.0140	-0.0375	-0.0094	-0.0266	-0.0161	-0.0427	-0.0105	-0.0454	-0.0058	-0.0511	-0.0396	60.0162	99.9785	
     9	 0.0069	-0.0101	-0.0032	 0.0171	 0.0119	-0.0173	-0.0055	 0.0292	-0.0285	-0.0064	-0.0349	-0.0221	60.0144	99.9777	
    10	 0.0138	-0.0202	-0.0064	 0.0341	-0.0074	-0.0167	-0.0241	 0.0093	-0.0401	-0.0134	-0.0536	-0.0267	59.9726	99.9779	
    11	-0.0235	-0.0140	-0.0375	-0.0094	-0.0392	-0.0114	-0.0507	-0.0277	-0.0407	-0.0246	-0.0654	-0.0161	60.0905	99.9781	
    12	-0.0235	-0.0140	-0.0375	-0.0094	-0.0392	-0.0114	-0.0507	-0.0277	-0.0512	-0.0093	-0.0605	-0.0419	60.0144	99.9785	
    13	-0.0235	-0.0140	-0.0375	-0.0094	-0.0458	-0.0154	-0.0613	-0.0304	-0.0518	-0.0205	-0.0723	-0.0313	60.0506	99.9787	
    14	-0.0391	-0.0234	-0.0625	-0.0157	-0.0525	-0.0195	-0.0720	-0.0330	-0.0797	-0.0157	-0.0954	-0.0640	59.9726	99.9779	
    15	-0.0391	-0.0234	-0.0625	-0.0157	-0.0710	-0.0062	-0.0772	-0.0648	-0.0797	-0.0157	-0.0954	-0.0640	59.9726	99.9779	
    16	-0.0157	-0.0093	-0.0250	-0.0063	-0.0259	-0.0034	-0.0293	-0.0225	-0.0174	-0.0106	-0.0280	-0.0069	60.0960	99.9785	
    17	 0.0373	-0.0062	 0.0311	 0.0435	 0.0074	 0.0168	 0.0241	-0.0093	 0.0169	-0.0006	 0.0163	 0.0175	60.0580	99.9780	
    18	 0.0295	-0.0109	 0.0186	 0.0404	 0.0126	-0.0046	 0.0079	 0.0172	 0.0000	 0.0000	 0.0000	-0.0000	60.0181	99.9785	
    19	 0.0069	-0.0101	-0.0032	 0.0171	-0.0125	 0.0047	-0.0080	-0.0172	-0.0005	-0.0112	-0.0117	 0.0106	60.0960	99.9781	
    20	-0.0000	 0.0000	-0.0000	-0.0000	 0.0000	 0.0000	-0.0000	 0.0000	 0.0000	 0.0000	 0.0000	-0.0000	60.0978	99.9785	
    21	-0.0000	 0.0000	-0.0000	-0.0000	-0.0066	-0.0040	-0.0107	-0.0026	-0.0005	-0.0112	-0.0117	 0.0106	60.1340	99.9787	
    22	-0.0157	-0.0093	-0.0250	-0.0063	-0.0259	-0.0034	-0.0293	-0.0225	-0.0227	-0.0029	-0.0255	-0.0198	60.0580	99.9787	
    23	-0.0157	-0.0093	-0.0250	-0.0063	-0.0384	 0.0013	-0.0372	-0.0397	-0.0396	-0.0022	-0.0418	-0.0373	60.0162	99.9785	
    24	 0.0069	-0.0101	-0.0032	 0.0171	 0.0000	 0.0000	-0.0000	 0.0000	 0.0169	-0.0006	 0.0163	 0.0175	60.1015	99.9789	
    25	 0.0676	-0.0023	 0.0653	 0.0700	 0.0459	 0.0155	 0.0613	 0.0304	 0.0513	 0.0093	 0.0606	 0.0419	60.0616	99.9783	
    26	 0.0676	-0.0023	 0.0653	 0.0700	 0.0333	 0.0202	 0.0534	 0.0132	 0.0454	 0.0058	 0.0512	 0.0396	60.0598	99.9783	
    27	 0.0451	-0.0015	 0.0435	 0.0467	 0.0141	 0.0208	 0.0347	-0.0067	 0.0449	-0.0054	 0.0395	 0.0502	60.1377	99.9783	
    28	 0.0373	-0.0062	 0.0311	 0.0435	 0.0200	 0.0121	 0.0320	 0.0079	 0.0338	-0.0012	 0.0326	 0.0350	60.0997	99.9782	
    29	 0.0303	 0.0039	 0.0342	 0.0265	 0.0074	 0.0168	 0.0241	-0.0093	 0.0280	-0.0048	 0.0232	 0.0327	60.1358	99.9783	
    30	 0.0225	-0.0008	 0.0218	 0.0233	 0.0067	 0.0041	 0.0106	 0.0026	 0.0059	 0.0035	 0.0094	 0.0023	60.0580	99.9787	
    31	 0.0147	-0.0054	 0.0093	 0.0202	 0.0000	 0.0000	-0.0000	 0.0000	 0.0111	-0.0041	 0.0070	 0.0152	60.0978	99.9789	
    32	 0.0225	-0.0008	 0.0218	 0.0233	 0.0074	 0.0168	 0.0241	-0.0093	 0.0344	 0.0100	 0.0443	 0.0244	60.1033	99.9789	
    33	 0.0833	 0.0070	 0.0903	 0.0763	 0.0717	 0.0189	 0.0906	 0.0528	 0.0961	 0.0039	 0.1000	 0.0922	60.1811	99.9785	
    34	 0.0833	 0.0070	 0.0903	 0.0763	 0.0777	 0.0103	 0.0878	 0.0674	 0.0844	-0.0031	 0.0813	 0.0876	60.1775	99.9782	
    35	 0.0676	-0.0023	 0.0653	 0.0700	 0.0459	 0.0155	 0.0613	 0.0304	 0.0513	 0.0093	 0.0606	 0.0419	60.0616	99.9783	
    36	 0.0676	-0.0023	 0.0653	 0.0700	 0.0392	 0.0115	 0.0506	 0.0277	 0.0565	 0.0016	 0.0581	 0.0548	60.0997	99.9789	
    37	 0.0529	 0.0031	 0.0560	 0.0498	 0.0333	 0.0202	 0.0534	 0.0132	 0.0565	 0.0016	 0.0581	 0.0548	60.1395	99.9784	
    38	 0.0451	-0.0015	 0.0435	 0.0467	 0.0141	 0.0208	 0.0347	-0.0067	 0.0338	-0.0012	 0.0326	 0.0350	60.0978	99.9782	
    39	 0.0373	-0.0062	 0.0311	 0.0435	-0.0052	 0.0214	 0.0161	-0.0265	 0.0280	-0.0048	 0.0232	 0.0327	60.0978	99.9785	
    40	 0.0303	 0.0039	 0.0342	 0.0265	-0.0052	 0.0214	 0.0161	-0.0265	 0.0449	-0.0054	 0.0395	 0.0502	60.1775	99.9792	
    41	 0.0833	 0.0070	 0.0903	 0.0763	 0.0592	 0.0236	 0.0826	 0.0356	 0.0961	 0.0039	 0.1000	 0.0922	60.1811	99.9789	
    42	 0.1058	 0.0063	 0.1121	 0.0996	 0.0717	 0.0189	 0.0906	 0.0528	 0.1013	-0.0038	 0.0976	 0.1051	60.1775	99.9789	
    43	 0.0685	 0.0125	 0.0810	 0.0561	 0.0399	 0.0242	 0.0640	 0.0158	 0.0623	 0.0052	 0.0675	 0.0571	60.1377	99.9787	
    44	 0.0538	 0.0179	 0.0717	 0.0359	 0.0274	 0.0288	 0.0561	-0.0014	 0.0623	 0.0052	 0.0675	 0.0571	60.1775	99.9789	
    45	 0.0607	 0.0078	 0.0685	 0.0529	 0.0333	 0.0202	 0.0534	 0.0132	 0.0513	 0.0093	 0.0606	 0.0419	60.0997	99.9789	
    46	 0.0529	 0.0031	 0.0560	 0.0498	 0.0141	 0.0208	 0.0347	-0.0067	 0.0559	-0.0096	 0.0464	 0.0655	60.1757	99.9789	
    47	 0.0381	 0.0086	 0.0467	 0.0296	-0.0052	 0.0214	 0.0161	-0.0265	 0.0501	-0.0131	 0.0370	 0.0632	60.2137	99.9794	
    48	 0.0303	 0.0039	 0.0342	 0.0265	-0.0052	 0.0214	 0.0161	-0.0265	 0.0559	-0.0096	 0.0464	 0.0655	60.2173	99.9794	
    49	 0.0763	 0.0172	 0.0935	 0.0592	 0.0592	 0.0236	 0.0826	 0.0356	 0.1072	-0.0002	 0.1069	 0.1074	60.2588	99.9793	
    50	 0.0989	 0.0164	 0.1153	 0.0826	 0.0784	 0.0229	 0.1012	 0.0555	 0.1182	-0.0044	 0.1138	 0.1226	60.2570	99.9789	
    51	 0.0911	 0.0117	 0.1028	 0.0794	 0.0466	 0.0282	 0.0747	 0.0184	 0.0844	-0.0031	 0.0813	 0.0876	60.1757	99.9789	
    52	 0.0685	 0.0125	 0.0810	 0.0561	 0.0333	 0.0202	 0.0534	 0.0132	 0.0676	-0.0025	 0.0651	 0.0701	60.1757	99.9792	
    53	 0.0685	 0.0125	 0.0810	 0.0561	 0.0333	 0.0202	 0.0534	 0.0132	 0.0565	 0.0016	 0.0581	 0.0548	60.1358	99.9790	
    54	 0.0607	 0.0078	 0.0685	 0.0529	 0.0141	 0.0208	 0.0347	-0.0067	 0.0449	-0.0054	 0.0395	 0.0502	60.1340	99.9790	
    55	 0.0381	 0.0086	 0.0467	 0.0296	 0.0067	 0.0041	 0.0106	 0.0026	 0.0332	-0.0124	 0.0208	 0.0456	60.1721	99.9796	
    56	 0.0156	 0.0094	 0.0249	 0.0063	-0.0251	 0.0093	-0.0159	-0.0344	 0.0216	-0.0195	 0.0021	 0.0411	60.2101	99.9797	
    57	 0.0685	 0.0125	 0.0810	 0.0561	 0.0340	 0.0329	 0.0668	 0.0012	 0.0844	-0.0031	 0.0813	 0.0876	60.2173	99.9787	
    58	 0.0989	 0.0164	 0.1153	 0.0826	 0.0658	 0.0276	 0.0933	 0.0383	 0.1008	-0.0150	 0.0858	 0.1157	60.2517	99.9782	
    59	 0.0598	-0.0070	 0.0529	 0.0669	-0.0022	-0.0380	-0.0403	 0.0359	-0.0052	-0.1008	-0.1059	 0.0956	60.3013	99.9780	
    60	-0.1363	-0.1387	-0.2750	 0.0024	-0.3126	-0.2993	-0.6120	-0.0133	-0.4132	-0.3586	-0.7717	-0.0547	60.2202	99.9818	
    61	-0.3750	-0.2245	-0.5995	-0.1505	-0.5869	-0.3795	-0.9665	-0.2075	-0.6303	-0.4140	-1.0443	-0.2163	60.0966	99.9852	
    62	-0.4202	-0.2229	-0.6431	-0.1972	-0.5980	-0.3494	-0.9476	-0.2486	-0.6047	-0.3551	-0.9599	-0.2496	60.0417	99.9858	
    63	-0.4462	-0.1528	-0.5990	-0.2933	-0.5589	-0.2278	-0.7868	-0.3311	-0.5658	-0.2556	-0.8214	-0.3102	60.0238	99.9820	
    64	-0.3143	-0.0881	-0.4024	-0.2261	-0.4177	-0.2281	-0.6459	-0.1895	-0.4400	-0.3314	-0.7713	-0.1086	60.5122	99.9800	
    65	-0.2657	-0.1590	-0.4246	-0.1066	-0.4287	-0.4185	-0.8472	-0.0102	-0.4684	-0.5547	-1.0231	 0.0863	60.9402	99.9832	
    66	-0.2605	-0.1987	-0.4592	-0.0617	-0.4863	-0.5268	-1.0132	 0.0405	-0.5365	-0.6718	-1.2083	 0.1353	61.0706	99.9858	
    67	-0.2240	-0.2197	-0.4437	-0.0042	-0.5018	-0.5729	-1.0748	 0.0711	-0.5918	-0.7595	-1.3513	 0.1677	61.1237	99.9849	
    68	-0.2553	-0.2384	-0.4937	-0.0168	-0.5676	-0.6005	-1.1682	 0.0329	-0.6674	-0.8053	-1.4728	 0.1379	61.1095	99.9848	
    69	-0.2691	-0.2182	-0.4873	-0.0509	-0.5868	-0.5998	-1.1868	 0.0130	-0.7018	-0.8153	-1.5171	 0.1135	61.1410	99.9846	
    70	-0.2622	-0.2283	-0.4905	-0.0338	-0.6016	-0.6333	-1.2350	 0.0317	-0.7495	-0.8658	-1.6154	 0.1163	61.1648	99.9841	
    71	-0.3429	-0.3195	-0.6624	-0.0234	-0.7391	-0.6797	-1.4189	-0.0594	-0.8421	-0.9110	-1.7531	 0.0689	61.0033	99.9853	
    72	-0.5738	-0.4006	-0.9744	-0.1732	-0.9912	-0.8199	-1.8112	-0.1713	-1.1331	-1.0871	-2.2202	-0.0460	61.1236	99.9849	
    73	-0.7014	-0.3913	-1.0927	-0.3101	-1.0349	-0.7973	-1.8323	-0.2375	-1.1092	-1.0619	-2.1711	-0.0474	61.3475	99.9848	
    74	-0.8967	-0.5082	-1.4049	-0.3885	-1.5117	-1.0490	-2.5608	-0.4627	-1.9253	-1.4690	-3.3943	-0.4563	60.8485	99.9773	
    75	-1.5902	-0.7662	-2.3564	-0.8239	-2.3568	-1.2295	-3.5864	-1.1273	-2.7246	-1.5513	-4.2759	-1.1733	59.7282	99.9844	
    76	-2.3011	-0.9347	-3.2358	-1.3663	-2.9838	-1.3026	-4.2864	-1.6812	-3.1490	-1.4719	-4.6209	-1.6772	59.2589	99.9912	
    77	-2.5805	-0.9449	-3.5255	-1.6355	-3.1110	-1.1713	-4.2824	-1.9397	-3.2108	-1.2489	-4.4597	-1.9619	58.8155	99.9897	
    78	-2.0363	-0.7905	-2.8268	-1.2457	-2.4974	-0.9961	-3.4936	-1.5012	-2.5245	-1.0614	-3.5859	-1.4631	59.2684	99.9903	
    79	-1.5165	-0.9220	-2.4385	-0.5944	-1.9590	-1.1236	-3.0827	-0.8354	-1.8992	-1.1820	-3.0811	-0.7173	59.9213	99.9921	
    80	-1.3968	-1.3216	-2.7183	-0.0752	-1.8133	-1.2681	-3.0815	-0.5451	-1.6238	-1.1997	-2.8235	-0.4241	59.3857	99.9925	
    81	-0.9472	-1.1095	-2.0567	 0.1624	-1.0230	-0.9249	-1.9479	-0.0981	-0.7827	-0.8534	-1.6361	 0.0707	59.9632	99.9848	
    82	-0.5913	-1.2107	-1.8020	 0.6194	-0.8580	-1.1802	-2.0383	 0.3222	-0.9357	-1.3040	-2.2396	 0.3683	60.2357	99.9749	
    83	-1.2067	-1.4220	-2.6287	 0.2153	-1.4857	-1.3762	-2.8619	-0.1095	-1.4893	-1.4329	-2.9221	-0.0564	59.9052	99.9805	
    84	-1.1225	-1.4001	-2.5227	 0.2777	-1.3578	-1.3845	-2.7424	 0.0268	-1.3431	-1.5505	-2.8936	 0.2074	60.5706	99.9757	
    85	-0.8752	-1.5520	-2.4272	 0.6768	-1.0028	-1.4637	-2.4666	 0.4610	-0.7335	-1.6481	-2.3816	 0.9146	61.5118	99.9783	
    86	 0.1047	-1.2938	-1.1891	 1.3986	-0.3544	-1.2430	-1.5975	 0.8886	-0.5234	-1.5101	-2.0335	 0.9867	60.4654	99.9678	
    87	 0.3843	-0.7695	-0.3852	 1.1538	 0.0070	-0.8775	-0.8705	 0.8845	-0.2196	-1.3045	-1.5241	 1.0849	61.3672	99.9598	
    88	 0.2602	-0.8295	-0.5693	 1.0897	-0.1039	-0.9078	-1.0118	 0.8039	-0.2755	-1.2949	-1.5704	 1.0195	61.2624	99.9631	
    89	 0.1803	-0.7773	-0.5970	 0.9577	-0.0758	-0.8663	-0.9422	 0.7905	-0.1946	-1.2568	-1.4514	 1.0622	61.6022	99.9624	
    90	 0.2012	-0.8077	-0.6065	 1.0089	-0.0713	-0.9004	-0.9718	 0.8290	-0.2126	-1.2786	-1.4912	 1.0660	61.5179	99.9629	
    91	 0.1326	-0.8202	-0.6876	 0.9528	-0.0721	-0.9131	-0.9852	 0.8410	-0.1625	-1.2917	-1.4542	 1.1291	61.7700	99.9630	
    92	 0.1708	-0.8116	-0.6408	 0.9824	-0.0166	-0.9530	-0.9697	 0.9364	-0.1375	-1.3525	-1.4899	 1.2150	61.9971	99.9619	
    93	 0.0857	-0.8482	-0.7625	 0.9340	-0.0772	-1.0019	-1.0792	 0.9247	-0.1846	-1.3918	-1.5765	 1.2072	62.0768	99.9629	
    94	 0.0866	-0.8334	-0.7469	 0.9201	-0.0328	-1.0118	-1.0447	 0.9790	-0.1503	-1.3819	-1.5322	 1.2316	62.1602	99.9635	
    95	 0.1343	-0.7906	-0.6563	 0.9250	 0.0352	-0.9462	-0.9111	 0.9813	-0.0618	-1.3067	-1.3685	 1.2448	62.1335	99.9634	
    96	 0.2376	-0.7002	-0.4626	 0.9379	 0.1896	-0.8282	-0.6387	 1.0179	 0.1710	-1.1658	-0.9947	 1.3367	62.2419	99.9656	
    97	 0.3782	-0.6160	-0.2378	 0.9943	 0.2569	-0.7753	-0.5185	 1.0322	 0.1791	-1.1174	-0.9383	 1.2966	62.0707	99.9664	
    98	 0.4555	-0.5841	-0.1286	 1.0396	 0.3301	-0.7310	-0.4010	 1.0612	 0.2612	-1.0569	-0.7957	 1.3181	62.0006	99.9674	
    99	 0.5466	-0.5723	-0.0257	 1.1190	 0.3774	-0.6902	-0.3129	 1.0676	 0.3351	-1.0447	-0.7096	 1.3799	62.0019	99.9669	
   100	 0.4919	-0.6051	-0.1131	 1.0971	 0.3493	-0.7317	-0.3824	 1.0810	 0.2932	-1.0918	-0.7985	 1.3850	62.0770	99.9655	
   101	 0.2992	-0.8061	-0.5069	 1.1054	 0.1550	-0.9839	-0.8291	 1.1389	 0.0017	-1.3876	-1.3859	 1.3892	62.2349	99.9605	
   102	 0.2211	-0.8529	-0.6318	 1.0740	 0.1749	-0.9719	-0.7970	 1.1468	 0.1338	-1.3401	-1.2063	 1.4739	62.3877	99.9622	
   103	 0.4433	-0.6627	-0.2194	 1.1061	 0.4248	-0.7595	-0.3349	 1.1843	 0.4702	-1.0498	-0.5796	 1.5200	62.2717	99.9691	
   104	 0.6430	-0.6004	 0.0426	 1.2434	 0.5297	-0.7205	-0.1909	 1.2503	 0.5145	-1.0664	-0.5519	 1.5808	62.2503	99.9670	
   105	 0.4807	-0.6690	-0.1883	 1.1497	 0.3715	-0.7917	-0.4203	 1.1633	 0.3532	-1.1314	-0.7782	 1.4846	62.2044	99.9672	
   106	 0.5640	-0.6619	-0.0979	 1.2259	 0.4632	-0.7607	-0.2976	 1.2240	 0.4726	-1.1134	-0.6409	 1.5860	62.2914	99.9663	
   107	 0.6950	-0.6120	 0.0830	 1.3071	 0.6384	-0.7282	-0.0899	 1.3667	 0.6676	-1.0497	-0.3821	 1.7172	62.4233	99.9686	
   108	 0.8990	-0.7327	 0.1663	 1.6317	 0.8263	-0.9208	-0.0945	 1.7471	 0.7655	-1.3376	-0.5721	 2.1030	62.9783	99.9624	
   109	 0.6376	-1.2033	-0.5656	 1.8410	 0.4302	-1.3318	-0.9018	 1.7620	 0.1910	-1.6527	-1.4617	 1.8437	61.9539	99.9618	
   110	-0.1869	-1.2542	-1.4411	 1.0673	-0.2124	-1.2306	-1.4432	 1.0182	-0.2353	-1.2815	-1.5168	 1.0462	60.9865	99.9748	
   111	-0.2198	-0.6598	-0.8796	 0.4401	-0.1055	-0.6026	-0.7082	 0.4972	 0.0416	-0.6149	-0.5733	 0.6565	60.9582	99.9782	
   112	-0.0722	-0.4573	-0.5294	 0.3851	-0.3332	-0.5444	-0.8778	 0.2112	-0.2734	-0.5994	-0.8728	 0.3260	60.4332	99.9864	
   113	-0.3899	-0.7331	-1.1230	 0.3433	-0.7117	-0.8713	-1.5831	 0.1596	-0.5894	-0.9317	-1.5211	 0.3423	60.6698	99.9901	
   114	-0.7701	-1.0464	-1.8165	 0.2764	-1.0702	-1.1861	-2.2564	 0.1159	-0.8268	-1.2706	-2.0974	 0.4438	61.1315	99.9916	
   115	-1.0774	-1.4017	-2.4791	 0.3243	-1.6016	-1.8259	-3.4276	 0.2243	-1.7056	-2.1279	-3.8335	 0.4223	61.6533	99.9868	
   116	-2.1372	-1.8647	-4.0019	-0.2724	-2.8251	-2.3333	-5.1585	-0.4919	-2.8657	-2.5371	-5.4028	-0.3286	60.9615	99.9949	
   117	-2.4436	-1.8197	-4.2632	-0.6239	-2.9886	-2.1627	-5.1514	-0.8259	-2.9281	-2.3254	-5.2534	-0.6027	60.7357	99.9935	
   118	-2.0504	-1.6700	-3.7203	-0.3804	-2.5265	-2.0547	-4.5813	-0.4718	-2.4862	-2.2858	-4.7720	-0.2005	61.3650	99.9909	
   119	-1.7276	-1.9479	-3.6755	 0.2204	-2.1626	-2.3122	-4.4749	 0.1496	-2.0117	-2.4867	-4.4984	 0.4750	61.8919	99.9939	
   120	-0.8648	-1.8885	-2.7533	 1.0237	-0.9589	-2.0373	-2.9963	 1.0784	-0.8311	-2.3363	-3.1674	 1.5052	62.7765	99.9754	
   121	 0.0639	-1.4753	-1.4114	 1.5393	 0.0066	-1.5513	-1.5448	 1.5579	 0.0513	-1.8457	-1.7944	 1.8970	62.5830	99.9688	
   122	 0.5847	-0.9493	-0.3646	 1.5342	 0.4788	-1.0452	-0.5665	 1.5241	 0.5431	-1.3853	-0.8423	 1.9284	62.6027	99.9694	
   123	 0.7948	-0.7094	 0.0855	 1.5042	 0.7021	-0.8490	-0.1470	 1.5511	 0.7602	-1.2214	-0.4612	 1.9816	62.8020	99.9688	
   124	 0.8790	-0.6875	 0.1915	 1.5666	 0.7738	-0.8301	-0.0564	 1.6039	 0.8394	-1.2169	-0.3775	 2.0562	62.8801	99.9687	
   125	 0.8972	-0.7623	 0.1349	 1.6596	 0.7812	-0.9235	-0.1424	 1.7048	 0.8499	-1.3407	-0.4908	 2.1906	63.1058	99.9681	
   126	 0.8408	-1.0817	-0.2409	 1.9225	 0.6513	-1.3940	-0.7429	 2.0453	 0.4740	-1.8503	-1.3763	 2.3242	63.2822	99.9638	
   127	-0.0307	-1.5462	-1.5769	 1.5156	-0.1753	-1.5878	-1.7632	 1.4125	-0.1886	-1.7956	-1.9842	 1.6070	61.8293	99.9725	
   128	-0.4351	-1.3742	-1.8093	 0.9391	-0.5680	-1.3845	-1.9526	 0.8165	-0.4344	-1.4237	-1.8580	 0.9893	61.1314	99.9842	
   129	-0.4273	-1.1125	-1.5397	 0.6853	-0.5844	-1.2229	-1.8074	 0.6386	-0.4228	-1.3081	-1.7309	 0.8854	61.4316	99.9866	
   130	-0.6799	-1.4351	-2.1149	 0.7552	-1.0434	-1.6108	-2.6543	 0.5674	-0.8621	-1.7368	-2.5989	 0.8746	61.4816	99.9908	
   131	-1.1990	-1.6744	-2.8733	 0.4755	-1.4115	-1.8702	-3.2818	 0.4586	-1.1666	-1.9536	-3.1201	 0.7870	61.8051	99.9916	
   132	-1.7311	-2.2642	-3.9953	 0.5332	-2.1469	-2.7068	-4.8539	 0.5599	-2.2577	-3.1021	-5.3599	 0.8444	62.6680	99.9805	
   133	-2.7883	-2.8114	-5.5997	 0.0231	-3.3372	-3.1941	-6.5314	-0.1431	-3.3242	-3.4438	-6.7679	 0.1196	61.7249	99.9908	
   134	-2.9662	-2.6323	-5.5985	-0.3339	-3.5584	-3.0217	-6.5801	-0.5367	-3.4482	-3.2260	-6.6742	-0.2223	61.4478	99.9948	
   135	-2.7231	-2.3440	-5.0671	-0.3791	-3.1673	-2.6994	-5.8669	-0.4679	-3.0158	-2.9317	-5.9475	-0.0841	61.7900	99.9920	
   136	-1.9073	-2.1840	-4.0913	 0.2768	-2.3969	-2.5886	-4.9856	 0.1917	-2.2840	-2.8468	-5.1308	 0.5628	62.2133	99.9923	
   137	-1.4377	-2.2742	-3.7120	 0.8366	-1.6612	-2.5233	-4.1846	 0.8621	-1.4073	-2.7935	-4.2008	 1.3862	63.0202	99.9868	
   138	-0.4335	-1.8587	-2.2922	 1.4253	-0.3903	-1.9750	-2.3655	 1.5847	-0.2804	-2.2634	-2.5438	 1.9830	63.1213	99.9704	
   139	 0.2835	-1.3296	-1.0461	 1.6131	 0.2712	-1.4157	-1.1446	 1.6869	 0.3709	-1.7716	-1.4007	 2.1425	63.0644	99.9666	
   140	 0.7418	-0.9695	-0.2277	 1.7114	 0.6031	-1.1170	-0.5140	 1.7201	 0.6607	-1.5094	-0.8487	 2.1701	62.9802	99.9691	
   141	 1.0127	-0.8503	 0.1624	 1.8630	 0.8981	-1.0121	-0.1141	 1.9102	 0.9361	-1.4187	-0.4826	 2.3548	63.1435	99.9675	
   142	 1.1324	-0.8643	 0.2682	 1.9967	 1.0208	-0.9991	 0.0217	 2.0199	 1.1154	-1.4404	-0.3250	 2.5557	63.3839	99.9665	
   143	 1.0682	-1.0598	 0.0084	 2.1280	 0.9285	-1.2631	-0.3347	 2.1916	 0.9927	-1.7425	-0.7498	 2.7351	63.7532	99.9666	
   144	 0.7192	-1.6114	-0.8923	 2.3306	 0.5146	-1.7583	-1.2438	 2.2730	 0.5096	-2.1433	-1.6337	 2.6529	63.1863	99.9688	
   145	-0.0924	-1.6974	-1.7897	 1.6051	-0.1346	-1.7714	-1.9061	 1.6368	-0.1344	-1.9472	-2.0816	 1.8128	62.1910	99.9732	
   146	-0.4247	-1.4537	-1.8784	 1.0290	-0.3684	-1.4841	-1.8526	 1.1158	-0.1287	-1.6183	-1.7470	 1.4897	62.2812	99.9798	
   147	-0.3440	-1.3625	-1.7065	 1.0186	-0.5880	-1.5067	-2.0948	 0.9188	-0.3877	-1.6124	-2.0001	 1.2247	61.7623	99.9893	
   148	-0.8327	-1.8550	-2.6877	 1.0223	-1.2148	-2.0206	-3.2355	 0.8058	-0.9779	-2.1214	-3.0993	 1.1435	61.7087	99.9928	
   149	-1.6434	-2.3117	-3.9551	 0.6683	-1.9178	-2.5192	-4.4371	 0.6015	-1.5668	-2.7165	-4.2834	 1.1497	62.6321	99.9914	
   150	-2.2676	-2.7995	-5.0671	 0.5320	-2.7634	-3.1532	-5.9167	 0.3898	-2.6378	-3.3647	-6.0025	 0.7269	62.1939	99.9929	
   151	-2.6529	-2.6875	-5.3404	 0.0346	-3.1147	-3.0105	-6.1253	-0.1042	-2.8649	-3.1767	-6.0416	 0.3118	61.9709	99.9952	
   152	-2.2319	-2.3212	-4.5531	 0.0894	-2.6520	-2.6694	-5.3215	 0.0174	-2.4400	-2.9195	-5.3596	 0.4795	62.3108	99.9922	
   153	-1.5532	-2.1862	-3.7394	 0.6332	-2.0131	-2.6137	-4.6269	 0.6005	-1.8811	-2.9068	-4.7879	 1.0256	62.7549	99.9917	
   154	-1.1947	-2.2430	-3.4377	 1.0483	-1.3551	-2.4483	-3.8036	 1.0932	-1.0289	-2.7815	-3.8104	 1.7526	63.5161	99.9836	
   155	-0.2026	-1.7776	-1.9802	 1.5751	-0.1405	-1.8729	-2.0135	 1.7324	 0.0439	-2.2082	-2.1643	 2.2521	63.4865	99.9694	
   156	 0.6394	-1.1737	-0.5343	 1.8131	 0.6002	-1.2780	-0.6778	 1.8782	 0.7208	-1.6575	-0.9368	 2.3783	63.2665	99.9677	
   157	 1.1463	-0.8845	 0.2618	 2.0309	 0.9883	-1.0065	-0.0183	 1.9948	 1.0659	-1.4161	-0.3502	 2.4820	63.1105	99.9685	
   158	 1.3303	-0.8315	 0.4988	 2.1618	 1.1842	-0.9492	 0.2349	 2.1335	 1.2155	-1.3581	-0.1426	 2.5736	63.0747	99.9662	
   159	 1.2157	-0.8572	 0.3585	 2.0730	 1.0866	-0.9715	 0.1150	 2.0582	 1.1462	-1.3892	-0.2429	 2.5354	63.1527	99.9661	
   160	 1.0577	-1.1089	-0.0511	 2.1667	 0.9322	-1.3098	-0.3777	 2.2421	 1.0066	-1.7991	-0.7924	 2.8057	63.8703	99.9659	
   161	 0.3824	-1.6988	-1.3164	 2.0812	 0.2928	-1.8190	-1.5263	 2.1119	 0.2330	-2.0395	-1.8065	 2.2725	62.5341	99.9716	
   162	-0.3596	-1.5004	-1.8600	 1.1408	-0.2915	-1.4866	-1.7782	 1.1952	-0.1217	-1.5924	-1.7141	 1.4707	61.9744	99.9770	
   163	-0.3327	-1.2986	-1.6313	 0.9660	-0.3218	-1.3458	-1.6677	 1.0240	-0.1019	-1.5370	-1.6389	 1.4351	62.3102	99.9780	
   164	-0.5098	-1.4903	-2.0001	 0.9806	-0.8622	-1.6971	-2.5594	 0.8349	-0.7084	-1.8173	-2.5258	 1.1089	61.6778	99.9910	
   165	-1.2884	-2.0421	-3.3305	 0.7537	-1.5667	-2.2212	-3.7879	 0.6545	-1.2876	-2.2221	-3.5096	 0.9345	61.6400	99.9951	
   166	-1.9646	-2.3897	-4.3543	 0.4252	-2.2431	-2.7037	-4.9469	 0.4607	-2.0575	-2.9376	-4.9951	 0.8800	62.6226	99.9892	
   167	-2.5574	-2.6018	-5.1592	 0.0444	-2.8944	-2.8650	-5.7596	-0.0294	-2.6129	-2.9916	-5.6045	 0.3787	61.9737	99.9942	
   168	-2.4037	-2.2956	-4.6993	-0.1081	-2.8073	-2.5796	-5.3870	-0.2276	-2.6048	-2.7264	-5.3312	 0.1215	61.5974	99.9935	
   169	-1.7814	-1.8374	-3.6187	 0.0561	-2.2839	-2.1896	-4.4737	-0.0943	-2.1962	-2.4574	-4.6537	 0.2612	61.7401	99.9904	
   170	-1.4351	-1.8442	-3.2793	 0.4093	-1.9926	-2.2583	-4.2510	 0.2658	-1.9930	-2.5622	-4.5553	 0.5692	61.9627	99.9897	
   171	-1.2693	-1.8450	-3.1143	 0.5757	-1.5697	-2.0515	-3.6213	 0.4819	-1.3952	-2.4499	-3.8451	 1.0547	62.6894	99.9789	
   172	-0.3379	-1.2589	-1.5968	 0.9210	-0.5348	-1.3644	-1.8992	 0.8296	-0.4849	-1.7471	-2.2320	 1.2622	62.2704	99.9688	
   173	 0.2610	-0.8147	-0.5537	 1.0758	 0.0433	-0.9168	-0.8736	 0.9601	 0.0185	-1.2797	-1.2612	 1.2982	61.9410	99.9677	
   174	 0.6742	-0.5817	 0.0926	 1.2559	 0.4506	-0.6459	-0.1954	 1.0965	 0.4219	-1.0031	-0.5812	 1.4249	61.8119	99.9666	
   175	 0.9190	-0.5208	 0.3982	 1.4398	 0.6739	-0.5599	 0.1139	 1.2337	 0.6349	-0.9175	-0.2826	 1.5524	61.7438	99.9658	
   176	 1.0136	-0.4499	 0.5637	 1.4635	 0.7944	-0.4747	 0.3195	 1.2691	 0.7735	-0.8554	-0.0819	 1.6288	61.8717	99.9637	
   177	 0.9606	-0.5816	 0.3791	 1.5422	 0.4979	-0.7152	-0.2174	 1.2132	 0.3637	-1.1468	-0.7831	 1.5105	61.6722	99.9677	
   178	 0.1160	-1.1014	-0.9853	 1.2175	-0.3396	-1.3198	-1.6595	 0.9802	-0.4930	-1.7955	-2.2885	 1.3024	62.0415	99.9672	
   179	-1.1998	-1.4321	-2.6319	 0.2324	-1.5625	-1.4839	-3.0465	-0.0786	-1.6056	-1.7203	-3.3258	 0.1146	60.5847	99.9756	
   180	-1.9913	-1.3062	-3.2975	-0.6851	-2.2953	-1.3883	-3.6837	-0.9071	-2.1628	-1.4825	-3.6453	-0.6803	60.1780	99.9872	
   181	-2.0295	-1.1862	-3.2157	-0.8432	-2.5630	-1.3542	-3.9174	-1.2088	-2.5110	-1.4546	-3.9655	-1.0564	59.6134	99.9912	
   182	-2.7898	-1.5557	-4.3455	-1.2341	-3.2232	-1.6678	-4.8911	-1.5554	-3.0418	-1.6891	-4.7309	-1.3528	59.5501	99.9934	
   183	-3.3618	-1.6696	-5.0314	-1.6921	-3.7237	-1.9950	-5.7188	-1.7287	-3.6926	-2.0612	-5.7538	-1.6314	60.0096	99.9925	
   184	-3.9850	-1.8856	-5.8706	-2.0994	-4.4845	-2.1612	-6.6458	-2.3232	-4.4144	-2.1726	-6.5871	-2.2418	59.1770	99.9955	
   185	-3.9980	-1.5935	-5.5914	-2.4044	-4.5076	-1.7833	-6.2910	-2.7242	-4.4128	-1.8137	-6.2265	-2.5992	58.7175	99.9940	
   186	-3.3330	-1.0527	-4.3857	-2.2803	-3.9872	-1.3339	-5.3211	-2.6533	-4.0141	-1.5181	-5.5322	-2.4960	58.8714	99.9911	
   187	-3.0406	-1.0775	-4.1181	-1.9630	-3.8178	-1.4029	-5.2208	-2.4149	-3.9308	-1.6521	-5.5829	-2.2787	58.9330	99.9901	
   188	-2.8036	-0.8928	-3.6964	-1.9107	-3.2945	-1.0129	-4.3074	-2.2816	-3.3616	-1.2209	-4.5824	-2.1408	58.8987	99.9814	
   189	-1.8991	-0.2514	-2.1505	-1.6476	-2.2189	-0.1786	-2.3977	-2.0403	-2.2336	-0.4514	-2.6850	-1.7822	59.0395	99.9683	
   190	-1.1205	 0.1718	-0.9487	-1.2922	-1.4420	 0.2668	-1.1753	-1.7087	-1.5608	 0.0209	-1.5399	-1.5817	58.7406	99.9650	
   191	-0.5407	 0.2904	-0.2503	-0.8310	-0.8749	 0.4138	-0.4611	-1.2887	-1.0608	 0.2042	-0.8566	-1.2650	58.5828	99.9638	
   192	-0.3055	 0.3169	 0.0114	-0.6224	-0.6501	 0.5253	-0.1250	-1.1754	-0.8332	 0.3528	-0.4804	-1.1860	58.2741	99.9629	
   193	-0.2925	 0.4104	 0.1180	-0.7028	-0.6561	 0.6441	-0.0121	-1.3002	-0.8326	 0.4724	-0.3602	-1.3051	58.0881	99.9627	
   194	-0.3115	 0.4704	 0.1589	-0.7819	-0.6650	 0.7122	 0.0471	-1.3772	-0.8554	 0.5780	-0.2774	-1.4334	57.8665	99.9638	
   195	-0.3679	 0.5366	 0.1686	-0.9045	-0.6924	 0.7936	 0.1011	-1.4860	-0.8566	 0.6641	-0.1925	-1.5206	57.8483	99.9637	
   196	-0.4035	 0.5724	 0.1689	-0.9759	-0.7449	 0.8843	 0.1393	-1.6292	-0.8630	 0.7578	-0.1052	-1.6208	57.6766	99.9639	
   197	-0.4964	 0.6596	 0.1632	-1.1559	-0.7975	 0.9750	 0.1774	-1.7725	-0.9032	 0.8528	-0.0504	-1.7560	57.6539	99.9633	
   198	-0.6231	 0.6837	 0.0606	-1.3068	-0.9306	 1.0047	 0.0740	-1.9353	-1.0808	 0.9080	-0.1728	-1.9889	57.3285	99.9629	
   199	-0.6925	 0.7850	 0.0925	-1.4774	-0.9558	 1.1242	 0.1683	-2.0799	-1.0680	 1.0459	-0.0221	-2.1140	57.2870	99.9636	
   200	-0.6942	 0.8839	 0.1897	-1.5781	-0.9802	 1.2564	 0.2760	-2.2366	-1.0780	 1.1810	 0.1030	-2.2590	57.0687	99.9636	
   201	-0.6803	 0.9922	 0.3119	-1.6724	-0.9352	 1.3693	 0.4341	-2.3045	-1.0157	 1.2946	 0.2788	-2.3103	57.0935	99.9633	
   202	-0.6456	 1.0701	 0.4245	-1.7156	-0.9041	 1.4616	 0.5573	-2.3657	-0.9942	 1.3835	 0.3893	-2.3778	56.9849	99.9622	
   203	-0.7254	 1.1222	 0.3968	-1.8476	-1.0365	 1.5040	 0.4674	-2.5405	-1.1514	 1.3969	 0.2455	-2.5483	56.8312	99.9612	
   204	-0.9589	 1.1253	 0.1664	-2.0841	-1.2946	 1.4826	 0.1879	-2.7771	-1.5188	 1.3807	-0.1381	-2.8994	56.4133	99.9584	
   205	-1.2002	 1.1236	-0.0765	-2.3238	-1.5142	 1.4600	-0.0543	-2.9741	-1.7126	 1.3393	-0.3733	-3.0519	56.5140	99.9585	
   206	-1.3486	 1.0348	-0.3138	-2.3833	-1.6280	 1.3789	-0.2492	-3.0069	-1.7883	 1.2935	-0.4948	-3.0818	56.5317	99.9610	
   207	-1.3937	 1.0363	-0.3574	-2.4300	-1.6398	 1.3962	-0.2437	-3.0361	-1.7848	 1.3607	-0.4241	-3.1455	56.4078	99.9632	
   208	-1.3217	 1.1080	-0.2136	-2.4297	-1.5889	 1.5005	-0.0884	-3.0894	-1.7225	 1.4743	-0.2482	-3.1969	56.2343	99.9635	
   209	-1.3086	 1.2015	-0.1071	-2.5101	-1.5697	 1.6101	 0.0403	-3.1798	-1.7115	 1.5786	-0.1329	-3.2901	56.1287	99.9619	
   210	-1.3182	 1.2958	-0.0224	-2.6139	-1.5956	 1.7169	 0.1212	-3.3125	-1.7447	 1.6995	-0.0452	-3.4443	55.9026	99.9625	
   211	-1.3572	 1.4009	 0.0437	-2.7581	-1.6400	 1.8370	 0.1969	-3.4770	-1.7675	 1.8051	 0.0376	-3.5726	55.8356	99.9620	
   212	-1.3737	 1.5053	 0.1316	-2.8789	-1.6711	 1.9651	 0.2939	-3.6362	-1.8054	 1.9449	 0.1395	-3.7503	55.5750	99.9618	
   213	-1.3667	 1.6237	 0.2570	-2.9903	-1.6571	 2.0961	 0.4388	-3.7532	-1.7530	 2.0851	 0.3320	-3.8381	55.5311	99.9633	
   214	-1.2539	 1.7484	 0.4945	-3.0022	-1.5278	 2.2233	 0.6954	-3.7510	-1.6110	 2.2144	 0.6034	-3.8254	55.5632	99.9635	
   215	-1.1801	 1.8496	 0.6696	-3.0297	-1.4694	 2.3443	 0.8748	-3.8137	-1.5482	 2.3392	 0.7910	-3.8874	55.4279	99.9636	
   216	-1.1584	 1.9626	 0.8042	-3.1209	-1.4495	 2.4666	 1.0170	-3.9160	-1.5413	 2.4736	 0.9323	-4.0148	55.2487	99.9634	
   217	-1.1444	 2.0709	 0.9264	-3.2153	-1.4481	 2.6021	 1.1540	-4.0502	-1.5343	 2.6080	 1.0736	-4.1423	55.0733	99.9628	
   218	-1.1366	 2.2041	 1.0675	-3.3406	-1.4459	 2.7504	 1.3044	-4.1963	-1.5320	 2.7612	 1.2292	-4.2933	54.8982	99.9626	
   219	-1.1210	 2.3420	 1.2210	-3.4629	-1.4371	 2.9027	 1.4655	-4.3398	-1.5065	 2.9286	 1.4221	-4.4351	54.7340	99.9639	
   220	-1.0003	 2.4713	 1.4710	-3.4715	-1.3129	 3.0513	 1.7382	-4.3642	-1.3627	 3.0915	 1.7288	-4.4542	54.6627	99.9647	
   221	-0.8588	 2.5703	 1.7115	-3.4290	-1.2146	 3.1964	 1.9817	-4.4111	-1.2271	 3.2061	 1.9790	-4.4333	54.6120	99.9637	
   222	-0.8067	 2.6871	 1.8804	-3.4938	-1.1681	 3.3348	 2.1666	-4.5029	-1.2179	 3.3853	 2.1674	-4.6032	54.2528	99.9640	
   223	-0.7911	 2.8250	 2.0340	-3.6160	-1.1467	 3.4824	 2.3356	-4.6292	-1.1987	 3.5379	 2.3392	-4.7366	54.1216	99.9636	
   224	-0.7685	 2.9528	 2.1843	-3.7212	-1.1327	 3.6134	 2.4805	-4.7461	-1.1749	 3.6716	 2.4968	-4.8466	54.0244	99.9643	
   225	-0.7537	 3.0759	 2.3222	-3.8295	-1.1180	 3.7570	 2.6389	-4.8750	-1.1505	 3.8166	 2.6661	-4.9671	53.8976	99.9640	
   226	-0.6417	 3.1857	 2.5440	-3.8274	-0.9946	 3.8929	 2.8982	-4.8874	-0.9916	 3.9453	 2.9537	-4.9369	53.9447	99.9636	
   227	-0.5315	 3.2660	 2.7345	-3.7974	-0.9051	 3.9959	 3.0907	-4.9011	-0.9066	 4.0618	 3.1552	-4.9685	53.7782	99.9639	
   228	-0.5271	 3.3400	 2.8129	-3.8671	-0.9259	 4.0814	 3.1554	-5.0072	-0.9422	 4.1379	 3.1957	-5.0801	53.6196	99.9629	
   229	-0.6200	 3.4272	 2.8072	-4.0471	-0.9991	 4.1473	 3.1481	-5.1464	-1.0173	 4.2118	 3.1945	-5.2291	53.5827	99.9637	
   230	-0.6469	 3.4825	 2.8356	-4.1293	-1.0642	 4.2426	 3.1783	-5.3068	-1.0534	 4.2767	 3.2233	-5.3302	53.4719	99.9623	
   231	-0.6651	 3.5573	 2.8922	-4.2223	-1.0798	 4.3067	 3.2268	-5.3865	-1.0826	 4.3676	 3.2850	-5.4502	53.3281	99.9638	
   232	-0.6078	 3.6344	 3.0266	-4.2421	-0.9970	 4.4058	 3.4087	-5.4027	-0.9813	 4.4723	 3.4909	-5.4536	53.3329	99.9633	
   233	-0.4984	 3.6999	 3.2015	-4.1982	-0.9098	 4.4708	 3.5609	-5.3805	-0.8783	 4.5021	 3.6238	-5.3804	53.4469	99.9624	
   234	-0.4958	 3.7443	 3.2485	-4.2400	-0.9009	 4.5129	 3.6118	-5.4137	-0.9027	 4.5740	 3.6713	-5.4768	53.2631	99.9629	
   235	-0.5071	 3.8089	 3.3019	-4.3159	-0.9409	 4.5989	 3.6579	-5.5398	-0.9325	 4.6537	 3.7212	-5.5862	53.1162	99.9628	
   236	-0.5105	 3.8783	 3.3677	-4.3887	-0.9239	 4.6704	 3.7464	-5.5943	-0.9168	 4.7391	 3.8223	-5.6559	53.0619	99.9630	
   237	-0.4984	 3.9569	 3.4586	-4.4552	-0.9306	 4.7766	 3.8459	-5.7071	-0.9052	 4.8546	 3.9495	-5.7598	52.8980	99.9636	
   238	-0.4558	 4.0395	 3.5837	-4.4953	-0.8611	 4.8676	 4.0063	-5.7287	-0.8109	 4.9334	 4.1225	-5.7443	53.0060	99.9628	
   239	-0.3395	 4.0949	 3.7554	-4.4343	-0.7613	 4.9279	 4.1665	-5.6892	-0.6968	 4.9590	 4.2623	-5.6559	53.1232	99.9615	
   240	-0.3230	 4.1190	 3.7960	-4.4420	-0.7791	 4.9539	 4.1748	-5.7330	-0.7294	 4.9827	 4.2533	-5.7121	52.9944	99.9616	
   241	-0.3508	 4.1595	 3.8087	-4.5102	-0.7968	 4.9799	 4.1830	-5.7767	-0.7772	 5.0406	 4.2634	-5.8178	52.8443	99.9628	
   242	-0.3777	 4.2148	 3.8371	-4.5924	-0.8508	 5.0452	 4.1943	-5.8961	-0.8086	 5.0866	 4.2780	-5.8953	52.8038	99.9628	
   243	-0.3985	 4.2452	 3.8467	-4.6436	-0.8686	 5.0712	 4.2025	-5.9398	-0.8517	 5.1256	 4.2739	-5.9774	52.6863	99.9627	
   244	-0.3811	 4.2841	 3.9030	-4.6652	-0.8642	 5.1474	 4.2831	-6.0115	-0.7871	 5.1756	 4.3885	-5.9627	52.7543	99.9622	
   245	-0.2952	 4.3356	 4.0404	-4.6307	-0.7659	 5.1824	 4.4164	-5.9482	-0.6951	 5.2096	 4.5144	-5.9047	52.8390	99.9623	
   246	-0.2796	 4.3449	 4.0654	-4.6245	-0.7777	 5.1997	 4.4219	-5.9774	-0.7283	 5.2220	 4.4937	-5.9504	52.7099	99.9615	
   247	-0.3091	 4.3558	 4.0467	-4.6649	-0.8280	 5.2183	 4.3902	-6.0462	-0.7947	 5.2469	 4.4522	-6.0417	52.5479	99.9615	
   248	-0.3438	 4.4064	 4.0627	-4.7502	-0.8457	 5.2443	 4.3984	-6.0900	-0.8419	 5.3160	 4.4741	-6.1579	52.4017	99.9637	
   249	-0.3646	 4.4368	 4.0722	-4.8014	-0.8753	 5.2876	 4.4122	-6.1629	-0.8751	 5.3285	 4.4534	-6.2036	52.3896	99.9613	
   250	-0.3924	 4.4773	 4.0849	-4.8696	-0.8990	 5.3223	 4.4231	-6.2212	-0.8728	 5.3733	 4.5005	-6.2460	52.4058	99.9631	
   251	-0.2952	 4.4641	 4.1689	-4.7592	-0.8214	 5.3325	 4.5110	-6.1538	-0.7889	 5.3589	 4.5700	-6.1479	52.4463	99.9613	
   252	-0.3186	 4.4501	 4.1315	-4.7686	-0.8613	 5.3083	 4.4469	-6.1696	-0.8518	 5.3426	 4.4908	-6.1944	52.3490	99.9618	
   253	-0.3707	 4.4617	 4.0911	-4.8324	-0.9249	 5.3189	 4.3939	-6.2437	-0.9187	 5.3563	 4.4375	-6.2750	52.2636	99.9622	
   254	-0.3993	 4.4874	 4.0881	-4.8867	-0.9426	 5.3449	 4.4021	-6.2875	-0.9292	 5.3716	 4.4424	-6.3009	52.3043	99.9615	
   255	-0.4193	 4.5326	 4.1133	-4.9518	-0.9722	 5.3882	 4.4158	-6.3604	-0.9770	 5.4295	 4.4525	-6.4065	52.1497	99.9620	
   256	-0.3950	 4.5614	 4.1665	-4.9564	-0.9501	 5.4383	 4.4881	-6.3884	-0.9188	 5.4647	 4.5460	-6.3835	52.2109	99.9617	
   257	-0.2960	 4.5778	 4.2818	-4.8738	-0.8406	 5.4433	 4.6025	-6.2839	-0.8448	 5.4769	 4.6321	-6.3218	52.2109	99.9610	
   258	-0.3038	 4.5732	 4.2693	-4.8769	-0.8665	 5.4399	 4.5733	-6.3064	-0.8675	 5.4741	 4.6065	-6.3416	52.1661	99.9616	
   259	-0.3481	 4.5895	 4.2414	-4.9375	-0.9042	 5.4538	 4.5495	-6.3580	-0.9118	 5.4907	 4.5789	-6.4025	52.1254	99.9614	
   260	-0.3837	 4.6253	 4.2416	-5.0089	-0.9471	 5.4891	 4.5418	-6.4362	-0.9555	 5.5185	 4.5630	-6.4740	52.0806	99.9611	
   261	-0.4045	 4.6557	 4.2512	-5.0601	-0.9716	 5.5111	 4.5394	-6.4826	-0.9770	 5.5380	 4.5610	-6.5150	52.0765	99.9615	
   262	-0.3802	 4.6845	 4.3043	-5.0647	-0.9368	 5.5566	 4.6196	-6.4934	-0.9019	 5.5726	 4.6706	-6.4745	52.1825	99.9614	
   263	-0.2596	 4.6853	 4.4258	-4.9448	-0.8274	 5.5615	 4.7340	-6.3889	-0.8169	 5.5806	 4.7637	-6.3976	52.1460	99.9608	
   264	-0.2448	 4.6799	 4.4351	-4.9246	-0.8533	 5.5581	 4.7048	-6.4114	-0.8571	 5.5672	 4.7101	-6.4243	52.0440	99.9607	
   265	-0.2674	 4.6807	 4.4133	-4.9480	-0.8917	 5.5594	 4.6675	-6.4510	-0.8909	 5.5684	 4.6776	-6.4593	51.9991	99.9613	
   266	-0.2882	 4.7110	 4.4228	-4.9992	-0.9161	 5.5813	 4.6651	-6.4974	-0.9246	 5.5697	 4.6451	-6.4943	52.0191	99.9600	
   267	-0.3099	 4.7266	 4.4167	-5.0364	-0.9538	 5.5953	 4.6413	-6.5491	-0.9677	 5.6087	 4.6410	-6.5764	51.8683	99.9619	
   268	-0.2708	 4.7500	 4.4792	-5.0208	-0.8880	 5.6228	 4.7347	-6.5108	-0.8822	 5.6279	 4.7458	-6.5101	52.0074	99.9613	
   269	-0.1884	 4.7422	 4.5539	-4.9305	-0.8244	 5.6123	 4.7877	-6.4367	-0.8274	 5.5960	 4.7686	-6.4234	52.0682	99.9602	
   270	-0.2196	 4.7235	 4.5039	-4.9431	-0.8651	 5.5754	 4.7102	-6.4405	-0.8909	 5.5684	 4.6776	-6.4593	52.0066	99.9610	
   271	-0.2578	 4.7149	 4.4571	-4.9727	-0.9169	 5.5686	 4.6517	-6.4855	-0.9473	 5.5668	 4.6195	-6.5141	51.9207	99.9614	
   272	-0.2873	 4.7258	 4.4385	-5.0131	-0.9427	 5.5652	 4.6224	-6.5079	-0.9805	 5.5793	 4.5987	-6.5598	51.8797	99.9626	
   273	-0.2943	 4.7360	 4.4417	-5.0302	-0.9664	 5.5999	 4.6334	-6.5663	-1.0015	 5.6100	 4.6085	-6.6115	51.7696	99.9619	
   274	-0.2179	 4.7531	 4.5352	-4.9709	-0.8629	 5.6135	 4.7505	-6.4764	-0.8827	 5.6167	 4.7340	-6.4995	51.9458	99.9615	
   275	-0.1502	 4.7508	 4.6006	-4.9009	-0.8237	 5.6250	 4.8012	-6.4487	-0.8495	 5.6043	 4.7547	-6.4538	51.9332	99.9599	
   276	-0.1589	 4.7313	 4.5725	-4.8901	-0.8326	 5.5829	 4.7502	-6.4154	-0.8897	 5.5908	 4.7011	-6.4805	51.8430	99.9615	
   277	-0.1971	 4.7228	 4.5257	-4.9198	-0.8910	 5.5720	 4.6810	-6.4630	-0.9572	 5.5933	 4.6361	-6.5506	51.7158	99.9626	
   278	-0.2049	 4.7181	 4.5132	-4.9229	-0.9287	 5.5860	 4.6572	-6.5146	-0.9695	 5.5751	 4.6056	-6.5446	51.7441	99.9616	
   279	-0.2049	 4.7181	 4.5132	-4.9229	-0.9169	 5.5686	 4.6517	-6.4855	-1.0131	 5.6029	 4.5898	-6.6161	51.5472	99.9627	
   280	 0.0104	 4.7898	 4.8002	-4.7794	-0.5753	 5.7017	 5.1264	-6.2770	-0.4089	 5.7299	 5.3211	-6.1388	52.4531	99.9664	
   281	 0.6657	 5.0393	 5.7050	-4.3735	 0.0553	 5.9485	 6.0037	-5.8931	 0.2064	 5.9613	 6.1677	-5.7549	52.6363	99.9660	
   282	 0.8037	 5.2076	 6.0113	-4.4038	 0.1026	 6.0995	 6.2020	-5.9969	 0.2104	 6.0397	 6.2501	-5.8293	52.5373	99.9631	
   283	 0.6301	 5.0751	 5.7052	-4.4449	-0.1450	 5.9252	 5.7801	-6.0703	-0.1155	 5.8424	 5.7269	-5.9579	52.3367	99.9623	
   284	 0.3046	 4.9231	 5.2277	-4.6184	-0.4644	 5.7321	 5.2676	-6.1965	-0.4927	 5.6358	 5.1432	-6.1285	52.2757	99.9607	
   285	 0.1093	 4.8062	 4.9155	-4.6968	-0.6736	 5.5566	 4.8829	-6.2301	-0.8012	 5.4491	 4.6480	-6.2503	52.1602	99.9589	
   286	-0.0330	 4.6924	 4.6594	-4.7254	-0.8244	 5.3919	 4.5674	-6.2162	-0.9857	 5.2615	 4.2759	-6.2472	52.2714	99.9585	
   287	-0.2361	 4.5708	 4.3347	-4.8069	-1.0779	 5.2263	 4.1483	-6.3042	-1.3442	 5.0879	 3.7437	-6.4322	51.9868	99.9568	
   288	-0.7370	 4.3853	 3.6483	-5.1222	-1.6316	 4.9771	 3.3454	-6.6087	-2.0195	 4.8962	 2.8768	-6.9157	51.3522	99.9597	
   289	-1.0286	 4.2964	 3.2678	-5.3249	-1.8306	 4.9793	 3.1486	-6.8098	-2.1615	 4.9838	 2.8223	-7.1454	51.0729	99.9607	
   290	-1.0190	 4.3307	 3.3116	-5.3497	-1.7633	 5.0322	 3.2688	-6.7955	-2.0975	 5.0226	 2.9250	-7.1201	51.1848	99.9570	
   291	-0.9539	 4.4125	 3.4585	-5.3664	-1.7219	 5.0817	 3.3597	-6.8036	-2.0632	 5.0325	 2.9693	-7.0957	51.3087	99.9563	
   292	-0.8081	 4.4569	 3.6488	-5.2650	-1.6051	 5.1034	 3.4982	-6.7085	-1.9735	 5.0217	 3.0482	-6.9952	51.3953	99.9549	
   293	-0.7144	 4.5130	 3.7987	-5.2274	-1.5696	 5.1616	 3.5919	-6.7312	-1.9363	 5.0876	 3.1513	-7.0239	51.2348	99.9573	
   294	-0.6883	 4.5715	 3.8831	-5.2597	-1.5341	 5.2198	 3.6855	-6.7539	-1.8763	 5.1564	 3.2801	-7.0328	51.2664	99.9589	
   295	-0.6536	 4.6494	 3.9958	-5.3029	-1.4965	 5.3160	 3.8195	-6.8125	-1.7658	 5.2234	 3.4576	-6.9891	51.4666	99.9592	
   296	-0.6961	 4.6953	 3.9992	-5.3914	-1.5593	 5.3393	 3.7798	-6.8986	-1.8100	 5.2400	 3.4300	-7.0500	51.4910	99.9611	
   297	-0.6475	 4.6245	 3.9769	-5.2719	-1.4757	 5.2306	 3.7548	-6.7063	-1.7779	 5.0967	 3.3187	-6.8746	51.7581	99.9573	
   298	-0.6814	 4.5613	 3.8800	-5.2427	-1.5415	 5.2031	 3.6614	-6.7446	-1.8361	 5.0614	 3.2253	-6.8976	51.6314	99.9564	
   299	-0.7517	 4.5193	 3.7676	-5.2709	-1.6532	 5.1600	 3.5068	-6.8132	-2.0510	 5.0507	 2.9998	-7.1017	51.1330	99.9552	
   300	-0.8402	 4.5519	 3.7117	-5.3921	-1.7279	 5.2006	 3.4726	-6.9284	-2.1162	 5.0981	 2.9819	-7.2143	51.0661	99.9553	
   301	-0.8228	 4.5909	 3.7681	-5.4137	-1.7353	 5.2941	 3.5587	-7.0293	-2.0417	 5.2299	 3.1882	-7.2716	50.9124	99.9597	
   302	-0.4409	 4.8052	 4.3643	-5.2461	-1.2592	 5.5330	 4.2737	-6.7922	-1.3700	 5.4629	 4.0929	-6.8329	51.7123	99.9638	
   303	-0.0703	 4.9557	 4.8854	-5.0259	-0.9036	 5.6869	 4.7832	-6.5904	-1.0236	 5.6183	 4.5946	-6.6419	51.7639	99.9639	
   304	-0.0295	 5.0087	 4.9792	-5.0381	-0.8985	 5.7757	 4.8772	-6.6741	-0.9811	 5.6765	 4.6954	-6.6577	51.7396	99.9629	
   305	-0.2404	 5.0110	 4.7706	-5.2513	-1.0996	 5.7398	 4.6401	-6.8393	-1.2874	 5.6431	 4.3557	-6.9304	51.4624	99.9602	
   306	-0.5485	 4.8979	 4.3494	-5.4464	-1.3650	 5.5915	 4.2265	-6.9565	-1.5941	 5.4900	 3.8959	-7.0841	51.4712	99.9584	
   307	-0.7785	 4.8316	 4.0531	-5.6101	-1.6777	 5.5126	 3.8348	-7.1903	-1.9818	 5.4072	 3.4254	-7.3890	51.0019	99.9578	
   308	-1.0120	 4.8347	 3.8226	-5.8466	-1.8707	 5.5061	 3.6353	-7.3767	-2.1722	 5.4330	 3.2608	-7.6052	50.8885	99.9592	
   309	-1.0519	 4.7965	 3.7445	-5.8484	-1.9579	 5.4411	 3.4831	-7.3990	-2.3189	 5.3225	 3.0037	-7.6414	50.8287	99.9562	
   310	-1.0910	 4.6446	 3.5535	-5.7355	-2.0074	 5.2520	 3.2445	-7.2593	-2.4393	 5.1737	 2.7344	-7.6130	50.6866	99.9578	
   311	-1.0737	 4.5550	 3.4813	-5.6286	-1.9866	 5.1665	 3.1798	-7.1532	-2.4265	 5.0947	 2.6682	-7.5212	50.7201	99.9575	
   312	-1.0746	 4.5402	 3.4656	-5.6147	-1.9482	 5.1653	 3.2170	-7.1135	-2.3857	 5.1193	 2.7336	-7.5051	50.7197	99.9575	
   313	-0.9973	 4.5722	 3.5748	-5.5694	-1.8868	 5.2269	 3.3399	-7.1137	-2.3153	 5.1728	 2.8575	-7.4881	50.6625	99.9565	
   314	-0.8827	 4.5979	 3.7152	-5.4806	-1.7626	 5.2653	 3.5025	-7.0279	-2.1232	 5.1806	 3.0574	-7.3038	50.9845	99.9566	
   315	-0.6788	 4.6057	 3.9270	-5.2845	-1.5689	 5.2845	 3.7155	-6.8534	-1.9520	 5.2191	 3.2670	-7.1712	50.9318	99.9568	
   316	-0.5868	 4.6323	 4.0455	-5.2190	-1.4898	 5.3201	 3.8302	-6.8099	-1.8554	 5.2342	 3.3788	-7.0896	51.0213	99.9562	
   317	-0.5399	 4.6603	 4.1204	-5.2002	-1.4432	 5.3482	 3.9049	-6.7915	-1.8083	 5.2736	 3.4653	-7.0819	50.9973	99.9571	
   318	-0.4783	 4.6829	 4.2047	-5.1611	-1.3900	 5.3804	 3.9903	-6.7704	-1.7390	 5.3046	 3.5656	-7.0437	51.0156	99.9575	
   319	-0.4158	 4.7203	 4.3046	-5.1361	-1.3301	 5.4166	 4.0864	-6.7468	-1.6855	 5.3587	 3.6733	-7.0442	50.9539	99.9586	
   320	-0.2630	 4.7547	 4.4917	-5.0176	-1.1608	 5.4578	 4.2969	-6.6186	-1.4701	 5.3806	 3.9105	-6.8507	51.2344	99.9586	
   321	-0.0955	 4.7835	 4.6880	-4.8790	-0.9797	 5.4817	 4.5019	-6.4613	-1.3164	 5.4085	 4.0922	-6.7249	51.2900	99.9576	
   322	-0.0269	 4.7960	 4.7691	-4.8229	-0.9457	 5.5145	 4.5687	-6.4601	-1.2751	 5.4444	 4.1693	-6.7195	51.1818	99.9582	
   323	 0.0269	 4.8140	 4.8408	-4.7870	-0.8991	 5.5426	 4.6434	-6.4417	-1.2064	 5.4643	 4.2579	-6.6707	51.2373	99.9584	
   324	 0.0521	 4.8576	 4.9097	-4.8055	-0.8703	 5.5968	 4.7264	-6.4671	-1.1750	 5.5267	 4.3517	-6.7016	51.1804	99.9585	
   325	 0.0989	 4.8856	 4.9846	-4.7867	-0.8237	 5.6250	 4.8012	-6.4487	-1.1220	 5.5696	 4.4476	-6.6916	51.1610	99.9598	
   326	 0.2135	 4.9114	 5.1249	-4.6978	-0.6670	 5.6708	 5.0037	-6.3377	-0.9229	 5.6033	 4.6804	-6.5262	51.4143	99.9586	
   327	 0.3428	 4.9317	 5.2745	-4.5888	-0.5620	 5.7098	 5.1477	-6.2718	-0.7972	 5.6360	 4.8388	-6.4332	51.4363	99.9590	
   328	 0.4036	 4.9395	 5.3431	-4.5359	-0.5154	 5.7380	 5.2224	-6.2534	-0.7290	 5.6447	 4.9156	-6.3737	51.4866	99.9581	
   329	 0.4209	 4.9785	 5.3994	-4.5574	-0.4947	 5.7627	 5.2679	-6.2574	-0.7320	 5.6971	 4.9652	-6.4291	51.3751	99.9595	
   330	 0.4305	 5.0127	 5.4432	-4.5822	-0.4851	 5.8175	 5.3323	-6.3026	-0.6907	 5.7330	 5.0423	-6.4237	51.4342	99.9587	
   331	 0.4470	 5.0369	 5.4839	-4.5898	-0.4578	 5.8463	 5.3884	-6.3041	-0.6610	 5.7618	 5.1008	-6.4228	51.4473	99.9583	
   332	 0.5242	 5.0688	 5.5931	-4.5445	-0.3395	 5.8934	 5.5538	-6.2328	-0.5114	 5.8198	 5.3084	-6.3312	51.5821	99.9585	
   333	 0.6614	 5.0938	 5.7552	-4.4324	-0.2042	 5.9017	 5.6974	-6.1059	-0.3810	 5.8336	 5.4526	-6.2146	51.6688	99.9595	
   334	 0.6770	 5.1032	 5.7802	-4.4261	-0.1901	 5.9225	 5.7322	-6.1126	-0.3746	 5.8483	 5.4738	-6.2229	51.6320	99.9583	
   335	 0.6709	 5.1281	 5.7990	-4.4571	-0.1946	 5.9565	 5.7618	-6.1511	-0.3670	 5.8855	 5.5184	-6.2525	51.6080	99.9585	
   336	 0.6874	 5.1522	 5.8397	-4.4648	-0.1857	 5.9986	 5.8128	-6.1843	-0.3484	 5.9184	 5.5700	-6.2668	51.5798	99.9577	
   337	 0.6822	 5.1920	 5.8742	-4.5097	-0.1835	 6.0367	 5.8530	-6.2202	-0.3356	 5.9479	 5.6123	-6.2835	51.6252	99.9575	
   338	 0.7213	 5.2154	 5.9366	-4.4940	-0.1237	 6.0729	 5.9491	-6.1965	-0.2320	 5.9889	 5.7569	-6.2209	51.7456	99.9585	
   339	 0.8350	 5.2263	 6.0613	-4.3912	 0.0109	 6.0686	 6.0794	-6.0576	-0.1249	 5.9886	 5.8637	-6.1135	51.8274	99.9577	
   340	 0.8202	 5.2317	 6.0520	-4.4114	-0.0209	 6.0738	 6.0528	-6.0947	-0.1586	 5.9899	 5.8312	-6.1485	51.7780	99.9579	
   341	 0.8133	 5.2419	 6.0552	-4.4285	-0.0512	 6.1045	 6.0532	-6.1556	-0.1691	 6.0052	 5.8361	-6.1744	51.7413	99.9574	
   342	 0.8064	 5.2520	 6.0583	-4.4456	-0.0505	 6.1171	 6.0666	-6.1676	-0.1738	 6.0241	 5.8503	-6.1979	51.7089	99.9573	
   343	 0.7855	 5.2824	 6.0679	-4.4968	-0.0616	 6.1472	 6.0855	-6.2087	-0.1889	 6.0583	 5.8694	-6.2473	51.6765	99.9571	
   344	 0.7873	 5.3120	 6.0992	-4.5246	-0.0224	 6.1586	 6.1361	-6.1810	-0.1476	 6.0942	 5.9466	-6.2418	51.7386	99.9586	
   345	 0.9079	 5.3128	 6.2207	-4.4048	 0.0745	 6.1682	 6.2426	-6.0937	-0.0300	 6.0786	 6.0486	-6.1086	51.8568	99.9581	
   346	 0.9070	 5.2980	 6.2050	-4.3909	 0.0612	 6.1602	 6.2212	-6.0990	-0.0370	 6.0527	 6.0157	-6.0897	51.8850	99.9572	
   347	 0.8845	 5.2988	 6.1832	-4.4142	 0.0353	 6.1568	 6.1920	-6.1215	-0.0812	 6.0693	 5.9880	-6.1505	51.7667	99.9581	
   348	 0.8636	 5.3291	 6.1928	-4.4654	 0.0116	 6.1914	 6.2030	-6.1798	-0.0917	 6.0846	 5.9929	-6.1764	51.8034	99.9572	
   349	 0.8498	 5.3494	 6.1991	-4.4996	 0.0124	 6.2041	 6.2164	-6.1918	-0.1069	 6.1188	 6.0120	-6.2257	51.7343	99.9579	
   350	 0.8211	 5.3751	 6.1962	-4.5539	-0.0239	 6.2434	 6.2194	-6.2673	-0.1331	 6.1572	 6.0241	-6.2903	51.6654	99.9579	
   351	 0.8749	 5.3930	 6.2679	-4.5180	 0.0478	 6.2623	 6.3100	-6.2145	-0.0260	 6.1570	 6.1310	-6.1829	51.8778	99.9575	
   352	 0.9053	 5.3969	 6.3022	-4.4915	 0.0604	 6.2577	 6.3180	-6.1973	-0.0376	 6.1499	 6.1123	-6.1875	51.8202	99.9573	
   353	 0.8524	 5.3938	 6.2462	-4.5413	 0.0086	 6.2509	 6.2594	-6.2422	-0.0993	 6.1560	 6.0566	-6.2553	51.7386	99.9578	
   354	 0.8072	 5.3953	 6.2026	-4.5880	-0.0542	 6.2741	 6.2198	-6.3283	-0.1552	 6.1655	 6.0103	-6.3208	51.6568	99.9567	
   355	 0.7179	 5.4132	 6.1311	-4.6953	-0.1237	 6.2933	 6.1694	-6.4170	-0.2064	 6.1562	 5.9498	-6.3627	51.7667	99.9548	
   356	 0.6328	 5.3766	 6.0094	-4.7437	-0.1895	 6.2657	 6.0761	-6.4552	-0.2809	 6.1328	 5.8519	-6.4138	51.7259	99.9537	
   357	 0.6015	 5.3579	 5.9594	-4.7563	-0.1910	 6.2403	 6.0492	-6.4313	-0.2699	 6.1287	 5.8588	-6.3986	51.7836	99.9551	
   358	 0.6172	 5.3672	 5.9844	-4.7500	-0.1784	 6.2357	 6.0572	-6.4141	-0.2652	 6.1098	 5.8446	-6.3750	51.8442	99.9546	
   359	 0.6319	 5.3618	 5.9937	-4.7298	-0.1991	 6.2109	 6.0117	-6.4100	-0.3217	 6.1082	 5.7865	-6.4299	51.6637	99.9566	
   360	 0.6337	 5.3914	 6.0250	-4.7576	-0.2287	 6.2543	 6.0254	-6.4830	-0.3543	 6.1318	 5.7775	-6.4861	51.5731	99.9554	
   361	 0.6588	 5.4350	 6.0938	-4.7761	-0.2398	 6.2843	 6.0444	-6.5241	-0.3980	 6.1596	 5.7617	-6.5576	51.4281	99.9556	
   362	 0.6302	 5.4607	 6.0909	-4.8304	-0.2650	 6.2936	 6.0285	-6.5585	-0.4248	 6.1868	 5.7621	-6.6116	51.3913	99.9574	
   363	 0.6311	 5.4755	 6.1066	-4.8444	-0.2369	 6.3350	 6.0981	-6.5719	-0.3176	 6.1866	 5.8689	-6.5042	51.7004	99.9558	
   364	 0.6354	 5.4210	 6.0564	-4.7855	-0.1748	 6.2991	 6.1243	-6.4739	-0.2693	 6.1399	 5.8706	-6.4092	51.8316	99.9519	
   365	 0.4149	 5.3890	 5.8039	-4.9740	-0.4395	 6.2738	 5.8342	-6.7132	-0.5907	 6.1406	 5.5500	-6.7313	51.3545	99.9521	
   366	 0.5356	 5.5183	 6.0539	-4.9826	-0.2798	 6.3703	 6.0904	-6.6501	-0.3834	 6.2227	 5.8392	-6.6061	51.7046	99.9537	
   367	 0.7240	 5.6453	 6.3693	-4.9213	-0.1290	 6.4248	 6.2957	-6.5538	-0.2210	 6.2016	 5.9806	-6.4227	52.1162	99.9537	
   368	 0.6267	 5.5300	 6.1568	-4.9032	-0.2628	 6.3316	 6.0688	-6.5944	-0.3060	 6.0851	 5.7792	-6.3911	52.1733	99.9540	
   369	 0.5955	 5.5113	 6.1068	-4.9158	-0.3877	 6.2806	 5.8928	-6.6683	-0.6017	 6.1448	 5.5431	-6.7465	51.2444	99.9587	
   370	 0.5877	 5.6352	 6.2229	-5.0474	-0.3759	 6.3734	 5.9974	-6.7493	-0.6425	 6.2286	 5.5861	-6.8711	51.1850	99.9568	
   371	 0.3230	 5.4910	 5.8139	-5.1679	-0.7219	 6.1642	 5.4422	-6.8860	-1.0132	 5.9283	 4.9150	-6.9416	51.3186	99.9548	
   372	-0.2508	 5.2189	 4.9682	-5.4696	-1.1824	 5.8611	 4.6786	-7.0435	-1.5051	 5.6849	 4.1798	-7.1900	51.2692	99.9553	
   373	-0.7169	 5.1113	 4.3944	-5.8281	-1.6135	 5.7351	 4.1216	-7.3486	-1.8474	 5.6079	 3.7605	-7.4553	51.2737	99.9620	
   374	-1.0979	 5.1688	 4.0709	-6.2666	-1.9218	 5.8425	 3.9206	-7.7644	-2.1141	 5.7936	 3.6795	-7.9077	50.8863	99.9642	
   375	-1.3408	 5.3946	 4.0538	-6.7354	-2.2569	 6.1542	 3.8972	-8.4111	-2.5177	 6.1677	 3.6501	-8.6854	49.6754	99.9641	
   376	-1.3964	 5.6041	 4.2078	-7.0004	-2.3236	 6.3343	 4.0107	-8.6579	-2.5457	 6.3894	 3.8437	-8.9351	49.5228	99.9696	
   377	-1.7913	 5.4248	 3.6336	-7.2161	-2.8729	 6.1613	 3.2883	-9.0342	-3.0260	 6.3700	 3.3440	-9.3959	48.6687	99.9824	
   378	-1.9788	 5.3126	 3.3338	-7.2913	-3.0562	 5.9892	 2.9329	-9.0454	-3.2413	 6.1312	 2.8899	-9.3725	48.9297	99.9804	
   379	-2.5091	 5.0094	 2.5003	-7.5185	-3.5877	 5.6800	 2.0921	-9.2676	-3.8018	 5.8679	 2.0660	-9.6697	48.5801	99.9817	
   380	-2.5282	 5.0694	 2.5412	-7.5976	-3.3947	 5.6865	 2.2916	-9.0812	-3.5253	 5.8725	 2.3472	-9.3978	49.5049	99.9815	
   381	-2.2027	 5.0929	 2.8901	-7.2956	-3.0176	 5.7676	 2.7498	-8.7852	-3.0986	 5.9463	 2.8477	-9.0449	49.8274	99.9798	
   382	-1.8703	 5.2348	 3.3645	-7.1050	-2.6835	 5.8840	 3.2004	-8.5674	-2.7970	 5.9986	 3.2016	-8.7957	50.1367	99.9766	
   383	-1.7740	 5.2067	 3.4328	-6.9807	-2.6805	 5.8245	 3.1440	-8.5050	-2.8558	 5.9522	 3.0964	-8.8081	49.8613	99.9785	
   384	-1.9198	 5.1623	 3.2425	-7.0820	-2.7559	 5.8524	 3.0964	-8.6083	-2.8657	 5.9788	 3.1130	-8.8445	49.9446	99.9764	
   385	-2.1949	 5.0976	 2.9026	-7.2924	-3.0302	 5.7722	 2.7419	-8.8024	-3.1783	 5.9306	 2.7522	-9.1090	49.6555	99.9772	
   386	-2.2930	 5.0960	 2.8030	-7.3889	-3.1027	 5.7406	 2.6379	-8.8433	-3.2208	 5.8723	 2.6515	-9.0932	49.9137	99.9773	
   387	-2.3451	 5.1076	 2.7626	-7.4526	-3.2379	 5.6221	 2.3841	-8.8600	-3.3687	 5.7395	 2.3708	-9.1082	50.0554	99.9823	
   388	-2.4136	 5.0951	 2.6815	-7.5087	-3.3673	 5.4949	 2.1275	-8.8621	-3.4874	 5.6242	 2.1369	-9.1116	50.2003	99.9874	
   389	-2.5108	 5.1084	 2.5975	-7.6191	-3.5262	 5.4110	 1.8847	-8.9372	-3.6463	 5.4955	 1.8493	-9.1418	50.3993	99.9893	
   390	-2.7868	 5.1573	 2.3705	-7.9441	-3.8213	 5.4162	 1.5949	-9.2375	-4.0253	 5.4723	 1.4470	-9.4976	50.1172	99.9878	
   391	-3.1756	 5.2102	 2.0345	-8.3858	-4.2938	 5.4611	 1.1672	-9.7549	-4.6237	 5.4572	 0.8335	-10.0810	49.4352	99.9840	
   392	-3.7797	 5.1913	 1.4116	-8.9710	-4.9830	 5.5341	 0.5511	-10.5170	-5.4772	 5.4180	-0.0591	-10.8952	48.3674	99.9717	
   393	-4.2146	 4.8453	 0.6307	-9.0598	-5.3962	 5.2719	-0.1244	-10.6681	-5.8334	 5.1808	-0.6526	-11.0142	48.1971	99.9711	
   394	-4.2190	 4.5142	 0.2952	-8.7332	-5.3636	 5.0590	-0.3047	-10.4225	-5.7268	 5.0608	-0.6660	-10.7877	48.0970	99.9733	
   395	-3.8059	 4.6187	 0.8129	-8.4246	-4.9200	 5.1803	 0.2603	-10.1003	-5.3321	 5.1695	-0.1626	-10.5017	48.2497	99.9695	
   396	-3.8510	 4.6203	 0.7693	-8.4712	-5.0420	 5.1800	 0.1380	-10.2220	-5.5010	 5.1758	-0.3251	-10.6768	47.8430	99.9702	
   397	-3.7364	 4.7746	 1.0382	-8.5109	-4.8734	 5.3187	 0.4452	-10.1921	-5.2699	 5.2831	 0.0133	-10.5530	48.2946	99.9700	
   398	-3.4326	 4.8136	 1.3810	-8.2462	-4.5096	 5.2816	 0.7718	-9.7912	-4.8862	 5.1790	 0.2929	-10.0653	49.1628	99.9685	
   399	-3.1410	 4.9025	 1.7615	-8.0434	-4.1266	 5.3540	 1.2273	-9.4806	-4.4333	 5.2145	 0.7812	-9.6478	49.9240	99.9673	
   400	-2.9257	 5.1028	 2.1771	-8.0284	-3.9492	 5.5348	 1.5854	-9.4840	-4.3472	 5.4619	 1.1147	-9.8091	49.4124	99.9697	
   401	-2.8432	 5.4806	 2.6374	-8.3237	-3.8710	 5.8883	 2.0172	-9.7592	-3.9894	 6.0581	 2.0688	-10.0475	49.2726	99.9897	
   402	-3.0636	 5.4486	 2.3849	-8.5122	-4.0012	 6.0789	 2.0776	-10.0801	-4.2398	 6.2320	 1.9923	-10.4718	48.4279	99.9777	
   403	-3.2251	 5.1377	 1.9126	-8.3628	-4.3670	 5.5270	 1.1599	-9.8940	-4.9852	 5.4445	 0.4593	-10.4298	48.3731	99.9654	
   404	-3.1827	 4.8347	 1.6521	-8.0173	-4.2745	 5.2401	 0.9655	-9.5145	-4.9589	 5.0808	 0.1219	-10.0397	48.7816	99.9548	
   405	-2.9396	 4.8660	 1.9263	-7.8055	-4.0209	 5.2955	 1.2745	-9.3164	-4.7232	 5.1692	 0.4460	-9.8924	48.7291	99.9549	
   406	-2.6697	 4.9704	 2.3007	-7.6401	-3.7274	 5.4853	 1.7578	-9.2126	-4.3390	 5.4017	 1.0627	-9.7408	48.7643	99.9574	
   407	-2.3216	 5.1217	 2.8000	-7.4432	-3.3688	 5.6899	 2.3209	-9.0587	-3.8850	 5.6765	 1.7915	-9.5615	48.8096	99.9637	
   408	-2.1211	 5.1988	 3.0777	-7.3199	-3.1123	 5.7960	 2.6836	-8.9083	-3.5381	 5.7346	 2.1965	-9.2727	49.3605	99.9616	
   409	-1.9580	 5.2822	 3.3243	-7.2401	-2.9548	 5.8546	 2.8996	-8.8094	-3.3908	 5.7478	 2.3570	-9.1386	49.5859	99.9596	
   410	-1.9354	 5.2815	 3.3461	-7.2168	-2.9423	 5.8499	 2.9076	-8.7922	-3.4368	 5.7308	 2.2940	-9.1676	49.4627	99.9566	
   411	-1.7575	 5.2309	 3.4734	-6.9883	-2.8403	 6.0585	 3.2181	-8.8988	-3.0323	 6.2468	 3.2144	-9.2791	48.5079	99.9774	
   412	-1.2201	 5.9095	 4.6894	-7.1296	-2.1101	 6.9166	 4.8064	-9.0266	-2.2711	 7.0112	 4.7401	-9.2824	48.7374	99.9618	
   413	-1.2522	 5.8760	 4.6238	-7.1282	-2.3769	 6.6327	 4.2557	-9.0096	-2.6727	 6.6597	 3.9870	-9.3324	48.6911	99.9693	
   414	-1.6637	 5.4155	 3.7518	-7.0792	-3.0413	 5.8022	 2.7608	-8.8435	-3.5817	 5.7624	 2.1807	-9.3442	48.7025	99.9774	
   415	-2.3469	 4.8210	 2.4741	-7.1678	-3.4360	 5.3064	 1.8703	-8.7423	-4.0828	 5.3398	 1.2569	-9.4227	48.6408	99.9659	
   416	-2.5629	 4.9915	 2.4286	-7.5544	-3.5388	 5.5258	 1.9869	-9.0646	-4.0142	 5.3597	 1.3455	-9.3738	49.6382	99.9545	
   417	-2.6150	 4.8746	 2.2596	-7.4896	-3.7925	 5.6908	 1.8981	-9.4833	-4.0754	 5.8107	 1.7353	-9.8862	47.8979	99.9733	
   418	-2.6045	 5.3093	 2.7048	-7.9138	-3.2662	 6.1316	 2.8652	-9.3978	-3.2757	 6.2297	 2.9540	-9.5054	49.8006	99.9689	
   419	-2.5203	 5.4597	 2.9393	-7.9799	-3.1664	 6.1919	 3.0254	-9.3583	-3.4102	 6.3544	 2.9442	-9.7646	49.2386	99.9671	
   420	-2.5820	 5.1800	 2.5980	-7.7619	-3.6166	 5.8462	 2.2295	-9.4628	-3.1010	 4.5888	 1.4878	-7.6899	55.0780	99.9022	
   421	-2.7382	 5.2150	 2.4768	-7.9532	-3.3047	 6.1328	 2.8280	-9.4375	-3.5825	 6.2935	 2.7110	-9.8760	48.8370	99.9548	
   422	-2.4830	 5.4534	 2.9704	-7.9364	-3.1206	 6.3176	 3.1968	-9.4382	-3.1517	 6.2288	 3.0771	-9.3805	50.2230	99.9536	
   423	-2.4223	 5.4613	 3.0390	-7.8834	-3.0017	 6.4875	 3.4858	-9.4892	-3.0341	 6.3216	 3.2875	-9.3558	50.1507	99.9373	
   424	-2.1549	 5.5213	 3.3664	-7.6762	-2.7317	 6.2712	 3.5394	-9.0029	-2.7418	 6.3032	 3.5614	-9.0451	50.5863	99.9660	
   425	-2.1680	 5.1708	 3.0028	-7.3387	-2.9690	 6.0542	 3.0851	-9.0231	-2.9392	 6.4116	 3.4724	-9.3509	48.9635	99.9837	
   426	-1.5274	 5.6828	 4.1554	-7.2101	-2.0545	 6.6563	 4.6016	-8.7108	-1.8181	 6.8298	 5.0116	-8.6479	50.5550	99.9727	
   427	-1.2965	 5.6353	 4.3388	-6.9318	-2.0064	 6.5996	 4.5931	-8.6060	-1.9770	 6.7010	 4.7240	-8.6781	49.9696	99.9664	
   428	-2.0282	 5.6257	 3.5976	-7.6539	-2.6283	 6.5052	 3.8768	-9.1334	-2.5382	 6.6435	 4.1053	-9.1817	50.0874	99.9711	
   429	-1.9675	 5.2480	 3.2805	-7.2154	-2.8920	 5.8313	 2.9393	-8.7233	-3.0333	 5.7905	 2.7572	-8.8239	50.3684	99.9726	
   430	-1.9016	 4.9590	 3.0574	-6.8605	-2.6827	 5.6763	 2.9935	-8.3589	-2.8215	 5.8537	 3.0322	-8.6752	49.9365	99.9758	
   431	-1.6238	 5.3252	 3.7014	-6.9489	-2.1578	 6.0917	 3.9338	-8.2495	-2.0303	 5.9962	 3.9659	-8.0265	51.8786	99.9617	
   432	-1.8096	 5.1140	 3.3045	-6.9236	-2.3796	 6.0310	 3.6513	-8.4106	-2.4657	 5.8628	 3.3971	-8.3286	51.0274	99.9403	
   433	-2.1741	 4.8101	 2.6360	-6.9842	-2.6649	 5.6503	 2.9853	-8.3152	-2.8272	 5.5248	 2.6976	-8.3520	51.1236	99.9408	
   434	-2.2836	 4.3591	 2.0755	-6.6426	-2.7187	 5.1646	 2.4459	-7.8833	-2.8549	 4.9873	 2.1323	-7.8422	51.8664	99.9376	
   435	-2.3549	 3.7881	 1.4332	-6.1429	-2.6992	 4.5029	 1.8036	-7.2020	-2.7837	 4.4012	 1.6175	-7.1849	52.6636	99.9477	
   436	-2.0511	 3.9557	 1.9046	-6.0067	-2.2675	 4.8619	 2.5943	-7.1294	-2.0865	 5.0184	 2.9320	-7.1049	52.3569	99.9644	
   437	-1.1074	 5.2630	 4.1557	-6.3704	-1.3726	 6.1258	 4.7531	-7.4983	-0.9371	 6.2022	 5.2651	-7.1393	52.8876	99.9723	
   438	-0.3792	 5.4705	 5.0913	-5.8496	-0.8964	 6.2545	 5.3580	-7.1509	-0.5354	 6.2283	 5.6930	-6.7637	52.9245	99.9732	
   439	-0.0155	 5.5025	 5.4870	-5.5180	-0.5186	 6.3483	 5.8296	-6.8669	-0.1366	 6.3070	 6.1703	-6.4436	53.0721	99.9705	
   440	 0.2675	 5.7005	 5.9680	-5.4330	-0.3376	 6.5926	 6.2549	-6.9301	-0.0476	 6.5018	 6.4542	-6.5495	52.6354	99.9653	
   441	 0.2926	 5.3585	 5.6511	-5.0659	-0.5260	 6.2214	 5.6954	-6.7474	-0.6366	 5.9067	 5.2702	-6.5433	52.1153	99.9401	
   442	-0.4956	 4.9010	 4.4054	-5.3966	-1.0914	 5.7692	 4.6777	-6.8606	-1.1127	 5.6403	 4.5276	-6.7530	52.1613	99.9505	
   443	-0.2195	 5.2376	 5.0181	-5.4571	-0.7084	 5.8416	 5.1331	-6.5501	-0.2435	 5.6565	 5.4129	-5.9000	54.5442	99.9741	
   444	 0.2473	 4.7174	 4.9648	-4.4701	-0.1714	 5.2480	 5.0765	-5.4194	 0.1939	 5.1726	 5.3665	-4.9788	55.0254	99.9780	
   445	 0.4877	 4.4472	 4.9349	-3.9595	-0.0190	 4.9973	 4.9782	-5.0162	 0.3290	 4.9507	 5.2797	-4.6217	54.9665	99.9800	
   446	 0.5996	 4.3000	 4.8997	-3.7004	 0.0491	 4.8425	 4.8916	-4.7934	 0.4531	 4.7328	 5.1859	-4.2798	55.3900	99.9796	
   447	 0.6213	 4.1559	 4.7772	-3.5346	 0.0906	 4.6717	 4.7622	-4.5811	 0.5428	 4.6136	 5.1563	-4.0708	55.5966	99.9835	
   448	 0.8435	 4.2175	 5.0610	-3.3740	 0.4536	 4.8422	 5.2957	-4.3886	 0.8286	 4.6889	 5.5175	-3.8603	55.7929	99.9703	
   449	 0.5380	 4.2774	 4.8154	-3.7394	 0.1519	 4.8435	 4.9953	-4.6915	 0.3490	 4.3553	 4.7043	-4.0063	56.3776	99.9428	
   450	-0.4187	 3.1336	 2.7149	-3.5522	-0.7520	 3.7579	 3.0058	-4.5099	-0.8319	 3.5429	 2.7110	-4.3749	55.0637	99.9445	
   451	-0.4560	 3.0113	 2.5553	-3.4673	-0.5834	 3.6762	 3.0928	-4.2596	-0.6782	 3.3539	 2.6757	-4.0321	55.8172	99.9243	
   452	-0.4743	 2.8290	 2.3547	-3.3032	-0.7385	 3.4354	 2.6968	-4.1739	-0.9034	 3.1417	 2.2382	-4.0451	55.5299	99.9316	
   453	-0.4612	 2.9225	 2.4613	-3.3837	-0.6728	 3.5732	 2.9003	-4.2459	-0.7370	 3.3075	 2.5705	-4.0445	55.6153	99.9352	
   454	-0.1591	 3.4461	 3.2870	-3.6051	-0.3905	 4.1235	 3.7328	-4.5140	-0.0008	 4.0242	 4.0235	-4.0250	55.8508	99.9675	
   455	 0.9832	 4.0299	 5.0130	-3.0466	 0.7932	 4.3863	 5.1794	-3.5931	 1.4453	 4.1834	 5.6287	-2.7382	58.1115	99.9813	
   456	 1.4996	 3.8392	 5.3387	-2.3396	 1.1481	 4.3071	 5.4551	-3.1590	 1.7026	 4.1439	 5.8465	-2.4413	57.4837	99.9800	
   457	 1.6888	 3.8525	 5.5413	-2.1637	 1.3182	 4.3610	 5.6790	-3.0428	 1.9017	 4.1776	 6.0793	-2.2759	57.5418	99.9789	
   458	 1.7955	 3.8736	 5.6691	-2.0780	 1.4054	 4.3158	 5.7211	-2.9103	 1.8913	 4.0845	 5.9758	-2.1932	57.6729	99.9766	
   459	 1.7338	 3.4654	 5.1992	-1.7315	 1.2452	 3.6556	 4.9007	-2.4103	 1.6912	 3.3776	 5.0689	-1.6864	58.5710	99.9835	
   460	 2.0115	 3.0604	 5.0719	-1.0489	 1.6107	 3.2031	 4.8137	-1.5923	 2.1705	 2.9409	 5.1114	-0.7704	59.6041	99.9867	
   461	 2.3595	 2.8261	 5.1855	-0.4665	 1.9006	 2.9988	 4.8993	-1.0981	 2.4035	 2.7564	 5.1598	-0.3529	59.5600	99.9863	
   462	 2.4575	 2.6991	 5.1566	-0.2415	 1.9894	 2.8688	 4.8581	-0.8793	 2.4169	 2.6886	 5.1054	-0.2717	59.3309	99.9873	
   463	 2.6537	 2.7023	 5.3560	-0.0486	 2.2061	 2.8406	 5.0466	-0.6345	 2.6725	 2.5070	 5.1795	 0.1655	60.1693	99.9827	
   464	 2.6649	 2.6376	 5.3026	 0.0274	 2.2165	 2.7979	 5.0143	-0.5814	 2.7878	 2.5550	 5.3428	 0.2327	60.0962	99.9879	
   465	 3.0156	 2.7048	 5.7203	 0.3109	 2.6246	 2.8611	 5.4856	-0.2365	 3.1184	 2.6250	 5.7434	 0.4934	60.1862	99.9859	
   466	 3.1466	 2.6261	 5.7728	 0.5206	 2.7733	 2.6571	 5.4303	 0.1162	 3.1494	 2.3508	 5.5002	 0.7985	60.7269	99.9837	
   467	 3.2742	 2.6168	 5.8910	 0.6575	 3.0447	 2.6865	 5.7311	 0.3582	 3.4858	 2.4243	 5.9101	 1.0616	61.0001	99.9835	
   468	 3.2698	 2.4143	 5.6841	 0.8556	 2.9190	 2.6227	 5.5416	 0.2963	 3.4614	 2.3878	 5.8492	 1.0736	60.5766	99.9850	
   469	 3.3766	 2.4353	 5.8119	 0.9413	 2.9656	 2.5407	 5.5062	 0.4249	 3.4358	 2.2204	 5.6563	 1.2154	60.9326	99.9839	
   470	 3.3896	 2.2718	 5.6614	 1.1179	 3.0965	 2.4729	 5.5694	 0.6236	 3.4906	 2.1885	 5.6790	 1.3021	60.7341	99.9782	
   471	 3.3123	 2.2398	 5.5521	 1.0726	 3.0085	 2.3953	 5.4037	 0.6133	 3.5226	 2.1536	 5.6762	 1.3690	60.9669	99.9849	
   472	 3.5302	 2.2274	 5.7576	 1.3028	 3.2326	 2.3838	 5.6163	 0.8488	 3.7636	 2.1259	 5.8895	 1.6377	61.1955	99.9845	
   473	 3.6117	 2.0763	 5.6881	 1.5355	 3.1498	 2.2848	 5.4345	 0.8651	 3.7934	 1.9378	 5.7312	 1.8556	61.3626	99.9844	
   474	 3.5397	 2.0046	 5.5443	 1.5351	 3.1440	 2.0730	 5.2169	 1.0710	 3.5786	 1.8187	 5.3973	 1.7599	61.2186	99.9865	
   475	 3.4407	 1.8597	 5.3004	 1.5810	 3.0006	 1.9251	 4.9256	 1.0755	 3.4075	 1.6717	 5.0792	 1.7358	61.1239	99.9867	
   476	 3.3921	 1.8021	 5.1942	 1.5901	 2.9585	 1.8629	 4.8212	 1.0956	 3.3877	 1.6163	 5.0041	 1.7714	61.1986	99.9875	
   477	 3.3904	 1.7725	 5.1628	 1.6180	 2.9156	 1.8982	 4.8136	 1.0174	 3.4739	 1.6468	 5.1207	 1.8271	61.2200	99.9887	
   478	 3.6724	 1.8271	 5.4995	 1.8454	 3.3984	 1.9208	 5.3191	 1.4777	 3.8884	 1.7024	 5.5907	 2.1860	61.6189	99.9866	
   479	 3.6473	 1.7835	 5.4307	 1.8639	 3.3822	 1.8620	 5.2440	 1.5202	 3.8121	 1.6454	 5.4575	 2.1667	61.5709	99.9855	
   480	 3.5882	 1.6767	 5.2649	 1.9116	 3.1693	 1.6230	 4.7922	 1.5463	 3.5397	 1.5022	 5.0419	 2.0375	61.2706	99.9930	
   481	 3.5240	 1.6097	 5.1337	 1.9143	 3.2062	 1.8168	 5.0229	 1.3895	 3.1785	 2.1515	 5.3300	 1.0270	58.3139	99.9915	
   482	 3.4936	 1.6058	 5.0994	 1.8879	 2.9755	 1.7140	 4.6894	 1.2616	 3.3156	 1.4208	 4.7364	 1.8948	61.0193	99.9836	
   483	 3.2055	 1.7046	 4.9101	 1.5009	 2.8454	 1.6843	 4.5296	 1.1612	 3.1474	 1.3299	 4.4772	 1.8175	61.6732	99.9810	
   484	 3.2532	 1.6190	 4.8722	 1.6343	 2.8595	 1.7050	 4.5644	 1.1545	 3.3709	 1.5085	 4.8794	 1.8623	61.2902	99.9897	
   485	 3.4797	 1.7546	 5.2343	 1.7252	 3.1115	 1.8452	 4.9567	 1.2663	 3.5432	 1.5694	 5.1126	 1.9738	61.4323	99.9845	
   486	 3.3791	 1.9656	 5.3448	 1.4135	 3.1513	 2.1999	 5.3512	 0.9514	 3.7433	 1.9509	 5.6942	 1.7924	61.3218	99.9828	
   487	 3.7932	 2.2135	 6.0066	 1.5797	 3.3886	 2.3067	 5.6953	 1.0819	 3.8120	 1.8623	 5.6743	 1.9497	61.6882	99.9773	
   488	 3.5553	 2.0140	 5.5693	 1.5414	 3.1603	 2.0217	 5.1818	 1.1386	 3.5758	 1.6542	 5.2300	 1.9215	61.7462	99.9833	
   489	 3.4902	 1.9322	 5.4224	 1.5581	 2.9141	 1.8728	 4.7868	 1.0414	 3.1113	 1.3948	 4.5061	 1.7165	61.4719	99.9778	
   490	 3.0544	 1.4429	 4.4973	 1.6116	 2.4012	 1.2197	 3.6208	 1.1816	 2.3157	 0.7289	 3.0445	 1.5868	61.3937	99.9757	
   491	 2.6238	 0.6567	 3.2805	 1.9671	 2.1877	 0.6374	 2.8251	 1.5503	 2.2925	 0.3894	 2.6819	 1.9031	61.2107	99.9815	
   492	 2.8721	 0.9053	 3.7774	 1.9668	 2.5684	 1.0024	 3.5707	 1.5660	 2.7249	 0.7921	 3.5170	 1.9328	61.0575	99.9782	
   493	 3.0491	 1.0970	 4.1461	 1.9522	 2.6837	 1.2191	 3.9026	 1.4646	 2.9001	 1.0175	 3.9175	 1.8826	60.8903	99.9809	
   494	 3.2106	 1.2793	 4.4899	 1.9313	 2.9402	 1.4354	 4.3755	 1.5048	 3.2551	 1.2323	 4.4875	 2.0228	61.1634	99.9807	
   495	 3.4285	 1.3955	 4.8239	 2.0331	 3.1250	 1.5227	 4.6476	 1.6023	 3.4204	 1.2673	 4.6878	 2.1531	61.3411	99.9794	
   496	 3.5352	 1.4165	 4.9518	 2.1188	 3.2477	 1.5357	 4.7833	 1.7120	 3.5858	 1.3023	 4.8880	 2.2835	61.4675	99.9816	
   497	 3.6715	 1.4267	 5.0982	 2.2449	 3.3564	 1.5280	 4.8843	 1.8285	 3.6341	 1.2556	 4.8897	 2.3785	61.5260	99.9792	
   498	 3.6342	 1.4329	 5.0671	 2.2013	 3.2773	 1.4924	 4.7696	 1.7850	 3.5602	 1.2434	 4.8036	 2.3168	61.4798	99.9826	
   499	 3.6863	 1.4213	 5.1075	 2.2651	 3.2552	 1.4422	 4.6973	 1.8129	 3.4700	 1.1346	 4.6045	 2.3354	61.5211	99.9808	
   500	 3.6316	 1.3885	 5.0201	 2.2431	 3.1908	 1.4401	 4.6308	 1.7508	 3.4589	 1.1387	 4.5976	 2.3202	61.4923	99.9818	
   501	 3.5986	 1.3402	 4.9388	 2.2584	 3.1199	 1.3237	 4.4435	 1.7962	 3.2762	 0.9847	 4.2609	 2.2914	61.5271	99.9799	
   502	 3.6576	 1.3184	 4.9760	 2.3392	 3.1561	 1.2844	 4.4404	 1.8718	 3.2651	 0.8804	 4.1455	 2.3847	61.6951	99.9763	
   503	 3.6376	 1.2351	 4.8727	 2.4026	 3.0940	 1.2101	 4.3040	 1.8840	 3.1190	 0.7811	 3.9002	 2.3379	61.5193	99.9727	
   504	 3.5543	 1.2280	 4.7823	 2.3263	 3.0423	 1.2033	 4.2455	 1.8390	 3.0504	 0.7613	 3.8116	 2.2891	61.5542	99.9705	
   505	 3.4788	 1.2257	 4.7044	 2.2532	 2.9794	 1.2265	 4.2058	 1.7530	 3.0544	 0.8397	 3.8941	 2.2147	61.4232	99.9746	
   506	 3.6680	 1.3675	 5.0355	 2.3006	 3.3801	 1.4933	 4.8733	 1.8868	 3.6574	 1.1612	 4.8186	 2.4962	61.7449	99.9747	
   507	 3.7348	 1.3504	 5.0852	 2.3845	 3.5014	 1.4809	 4.9822	 2.0204	 3.7954	 1.2122	 5.0076	 2.5832	61.7286	99.9771	
   508	 3.9336	 1.3980	 5.3316	 2.5357	 3.7291	 1.5329	 5.2619	 2.1962	 4.0451	 1.2440	 5.2891	 2.8011	61.9623	99.9761	
   509	 3.9848	 1.3715	 5.3563	 2.6134	 3.7224	 1.5289	 5.2513	 2.1935	 4.0853	 1.2574	 5.3427	 2.8278	61.8567	99.9788	
   510	 3.9701	 1.3769	 5.3470	 2.5932	 3.6832	 1.5175	 5.2006	 2.1658	 4.0341	 1.2481	 5.2822	 2.7859	61.8129	99.9797	
   511	 3.9553	 1.3824	 5.3377	 2.5730	 3.6367	 1.4893	 5.1259	 2.1474	 3.9468	 1.1953	 5.1421	 2.7514	61.8320	99.9791	
   512	 3.8911	 1.3154	 5.2064	 2.5757	 3.5192	 1.3448	 4.8638	 2.1744	 3.7099	 1.0845	 4.7943	 2.6254	61.6124	99.9809	
   513	 3.7331	 1.1923	 4.9253	 2.5409	 3.2996	 1.2120	 4.5115	 2.0877	 3.4992	 0.9353	 4.4344	 2.5639	61.5912	99.9819	
   514	 3.6602	 1.1058	 4.7659	 2.5544	 3.2309	 1.1336	 4.3644	 2.0972	 3.4619	 0.8693	 4.3312	 2.5926	61.6309	99.9829	
   515	 3.5942	 1.0092	 4.6033	 2.5851	 3.1207	 1.0058	 4.1265	 2.1150	 3.2186	 0.7438	 3.9624	 2.4748	61.3695	99.9812	
   516	 3.4787	 0.9686	 4.4473	 2.5102	 3.0120	 1.0135	 4.0255	 1.9985	 3.1348	 0.7581	 3.8929	 2.3766	61.2259	99.9804	
   517	 3.3885	 0.9717	 4.3602	 2.4168	 2.9351	 1.0160	 3.9511	 1.9192	 3.0498	 0.7501	 3.7999	 2.2997	61.2216	99.9794	
   518	 3.5343	 1.1447	 4.6790	 2.3897	 3.1613	 1.2630	 4.4242	 1.8983	 3.3489	 0.9745	 4.3235	 2.3744	61.3402	99.9762	
   519	 3.8911	 1.3154	 5.2064	 2.5757	 3.4977	 1.3073	 4.8049	 2.1905	 3.6197	 0.8672	 4.4869	 2.7525	62.1321	99.9712	
   520	 4.0230	 1.3801	 5.4031	 2.6430	 3.7979	 1.3909	 5.1887	 2.4070	 4.0383	 0.8927	 4.9309	 3.1456	62.9120	99.9671	
   521	 4.0403	 1.2905	 5.3308	 2.7499	 3.6641	 1.2977	 4.9617	 2.3664	 3.7903	 0.8945	 4.6847	 2.8958	62.1079	99.9725	
   522	 3.8086	 1.3231	 5.1318	 2.4855	 3.5081	 1.3748	 4.8827	 2.1333	 3.7390	 0.9936	 4.7326	 2.7454	62.1325	99.9737	
   523	 3.8720	 1.2468	 5.1188	 2.6252	 3.4697	 1.2658	 4.7354	 2.2039	 3.6168	 0.9196	 4.5364	 2.6971	61.8098	99.9764	
   524	 3.8112	 1.2390	 5.0502	 2.5722	 3.4031	 1.3358	 4.7387	 2.0673	 3.5690	 1.0860	 4.6549	 2.4830	61.2364	99.9791	
   525	 4.1819	 1.6465	 5.8284	 2.5354	 3.9146	 1.8533	 5.7678	 2.0613	 4.2389	 1.6107	 5.8496	 2.6281	61.4015	99.9775	
   526	 4.8225	 2.1585	 6.9810	 2.6640	 4.4172	 2.3288	 6.7458	 2.0884	 4.7208	 1.9892	 6.7100	 2.7316	61.4378	99.9765	
   527	 4.8173	 2.1982	 7.0155	 2.6191	 4.2516	 2.2409	 6.4923	 2.0108	 4.4012	 1.8066	 6.2079	 2.5946	61.4348	99.9750	
   528	 4.0422	 1.8342	 5.8764	 2.2080	 3.5729	 1.9406	 5.5134	 1.6323	 3.8785	 1.6205	 5.4990	 2.2580	61.2706	99.9808	
   529	 3.8703	 1.7313	 5.6016	 2.1390	 3.4096	 1.7806	 5.1900	 1.6290	 3.7284	 1.4428	 5.1712	 2.2855	61.5494	99.9820	
   530	 3.7305	 1.5334	 5.2640	 2.1972	 3.2241	 1.4602	 4.6842	 1.7639	 3.3827	 1.0817	 4.4644	 2.3009	61.7096	99.9806	
   531	 3.6950	 1.5693	 5.2642	 2.1258	 3.2366	 1.5657	 4.8023	 1.6709	 3.4612	 1.1835	 4.6447	 2.2777	61.6972	99.9790	
   532	 3.7939	 1.7142	 5.5081	 2.0798	 3.3770	 1.7731	 5.1501	 1.6039	 3.6317	 1.5362	 5.1679	 2.0955	61.1137	99.9836	
   533	 4.3399	 2.0267	 6.3666	 2.3132	 3.9780	 2.1734	 6.1513	 1.8047	 4.2900	 1.8370	 6.1270	 2.4530	61.4566	99.9767	
   534	 4.3269	 1.9332	 6.2601	 2.3937	 3.8827	 1.9688	 5.8514	 1.9140	 4.0817	 1.5156	 5.5973	 2.5661	61.8376	99.9729	
   535	 3.7679	 1.6557	 5.4236	 2.1122	 3.3053	 1.7542	 5.0595	 1.5511	 3.6090	 1.4248	 5.0338	 2.1842	61.3258	99.9804	
   536	 4.0101	 1.8007	 5.8108	 2.2094	 3.6358	 1.8072	 5.4429	 1.8286	 3.8081	 1.4585	 5.2666	 2.3496	61.6151	99.9769	
   537	 3.7644	 1.7251	 5.4895	 2.0394	 3.3378	 1.7617	 5.0994	 1.5762	 3.5258	 1.4504	 4.9761	 2.0754	61.2350	99.9793	
   538	 3.8529	 1.6924	 5.5453	 2.1606	 3.3985	 1.7004	 5.0988	 1.6981	 3.5776	 1.3624	 4.9400	 2.2152	61.4100	99.9793	
   539	 3.7904	 1.6550	 5.4454	 2.1355	 3.2736	 1.6493	 4.9228	 1.6243	 3.4094	 1.2715	 4.6808	 2.1379	61.3449	99.9778	
   540	 3.6837	 1.6339	 5.3176	 2.0498	 3.1242	 1.6202	 4.7443	 1.5040	 3.2231	 1.2672	 4.4903	 1.9559	61.0663	99.9791	
   541	 3.6186	 1.6806	 5.2992	 1.9380	 3.0776	 1.7022	 4.7797	 1.3754	 3.2103	 1.3462	 4.5565	 1.8640	61.0037	99.9783	
   542	 3.5856	 1.7608	 5.3465	 1.8248	 3.1137	 1.8833	 4.9970	 1.2305	 3.3027	 1.6083	 4.9110	 1.6944	60.6072	99.9790	
   543	 3.6447	 1.8676	 5.5123	 1.7772	 3.1684	 1.9409	 5.1092	 1.2276	 3.3289	 1.5699	 4.8989	 1.7590	60.9582	99.9752	
   544	 3.5613	 1.7320	 5.2933	 1.8294	 3.0258	 1.6954	 4.7211	 1.3304	 3.0863	 1.2386	 4.3249	 1.8476	61.3078	99.9727	
   545	 3.5353	 1.5451	 5.0803	 1.9903	 2.9616	 1.4729	 4.4344	 1.4887	 2.8710	 0.9998	 3.8708	 1.8711	61.1855	99.9686	
   546	 3.4762	 1.4383	 4.9145	 2.0380	 2.9246	 1.3893	 4.3138	 1.5354	 2.8425	 0.8850	 3.7275	 1.9575	61.3357	99.9654	
   547	 3.4962	 1.3931	 4.8893	 2.1031	 2.9121	 1.3939	 4.3059	 1.5182	 2.7691	 0.9924	 3.7615	 1.7766	60.6552	99.9680	
   548	 3.5683	 1.7219	 5.2902	 1.8464	 3.1137	 1.8833	 4.9970	 1.2305	 3.2113	 1.5855	 4.7969	 1.6258	60.4075	99.9731	
   549	 3.5692	 1.8652	 5.4344	 1.7040	 3.1876	 2.0505	 5.2380	 1.1372	 3.3667	 1.7555	 5.1222	 1.6112	60.5578	99.9734	
   550	 3.7237	 1.9291	 5.6528	 1.7946	 3.2904	 2.1616	 5.4518	 1.1288	 3.5611	 1.9165	 5.4777	 1.6445	60.3693	99.9783	
   551	 3.9789	 2.0391	 6.0179	 1.9399	 3.5210	 2.2643	 5.7853	 1.2567	 3.7706	 2.0434	 5.8140	 1.7273	60.2698	99.9797	
   552	 4.1013	 2.1980	 6.2993	 1.9033	 3.5971	 2.4696	 6.0666	 1.1276	 3.8608	 2.2607	 6.1215	 1.6001	59.9559	99.9801	
   553	 4.4146	 2.5284	 6.9430	 1.8863	 3.8565	 2.8469	 6.7033	 1.0096	 4.1675	 2.6307	 6.7982	 1.5368	59.7364	99.9806	
   554	 4.7237	 2.7848	 7.5084	 1.9390	 4.1329	 3.0753	 7.2082	 1.0576	 4.4294	 2.7892	 7.2186	 1.6402	59.9191	99.9786	
   555	 4.6681	 2.7372	 7.4053	 1.9309	 4.0538	 3.0397	 7.0935	 1.0141	 4.3281	 2.7930	 7.1211	 1.5351	59.6585	99.9798	
   556	 4.5093	 2.7278	 7.2371	 1.7815	 3.9718	 3.0636	 7.0352	 0.9082	 4.3170	 2.7971	 7.1142	 1.5199	59.8647	99.9782	
   557	 4.5510	 2.7956	 7.3466	 1.7554	 4.0287	 3.1592	 7.1877	 0.8695	 4.3508	 2.9043	 7.2551	 1.4464	59.6937	99.9769	
   558	 4.5379	 2.8307	 7.3686	 1.7073	 3.8778	 3.1047	 6.9824	 0.7731	 4.1022	 2.7865	 6.8887	 1.3158	59.6174	99.9768	
   559	 4.0675	 2.6490	 6.7165	 1.4185	 3.2672	 2.7599	 6.0270	 0.5073	 3.3985	 2.4799	 5.8784	 0.9186	59.3599	99.9840	
   560	 3.4668	 2.3037	 5.7706	 1.1632	 2.6610	 2.3810	 5.0419	 0.2800	 2.7990	 2.1170	 4.9160	 0.6819	59.3429	99.9858	
   561	 3.0502	 2.0115	 5.0617	 1.0387	 2.2929	 2.0114	 4.3042	 0.2815	 2.2222	 1.6486	 3.8708	 0.5735	59.5377	99.9771	
   562	 2.7577	 1.9078	 4.6655	 0.8499	 2.0807	 2.0055	 4.0861	 0.0752	 2.1482	 1.7449	 3.8931	 0.4033	59.3003	99.9810	
   563	 2.9121	 1.8432	 4.7553	 1.0690	 2.2568	 1.8303	 4.0870	 0.4264	 2.1390	 1.4573	 3.5963	 0.6817	59.7975	99.9729	
   564	 2.8930	 1.7746	 4.6677	 1.1185	 2.2258	 1.6279	 3.8536	 0.5979	 1.9417	 1.2402	 3.1820	 0.7015	59.9198	99.9715	
   565	 2.6404	 1.5806	 4.2210	 1.0599	 2.0469	 1.5320	 3.5787	 0.5150	 1.7264	 1.1099	 2.8363	 0.6165	59.8007	99.9614	
   566	 2.5667	 1.4793	 4.0460	 1.0874	 1.9168	 1.5022	 3.4189	 0.4145	 1.7339	 1.1470	 2.8810	 0.5869	59.5659	99.9698	
   567	 2.2429	 1.4854	 3.7284	 0.7575	 2.0224	 1.8845	 3.9068	 0.1379	 2.3176	 1.7498	 4.0674	 0.5678	59.5235	99.9735	
   568	 2.0607	 1.4620	 3.5227	 0.5987	 1.8094	 1.7557	 3.5651	 0.0537	 1.9533	 1.5727	 3.5259	 0.3806	59.5178	99.9703	
   569	 2.0815	 1.6887	 3.7702	 0.3929	 1.6918	 1.8316	 3.5233	-0.1397	 1.7536	 1.5278	 3.2814	 0.2258	59.7308	99.9701	
   570	 2.2621	 1.6825	 3.9446	 0.5796	 1.7392	 1.7622	 3.5013	-0.0230	 1.7100	 1.4471	 3.1571	 0.2628	59.5635	99.9721	
   571	 2.3723	 1.7628	 4.1351	 0.6096	 2.0349	 1.9900	 4.0248	 0.0449	 2.0708	 1.7740	 3.8448	 0.2968	59.3379	99.9695	
   572	 2.5424	 1.9646	 4.5070	 0.5779	 2.3543	 2.0730	 4.4272	 0.2813	 2.2623	 1.7706	 4.0329	 0.4917	59.9978	99.9598	
   573	 2.6605	 1.9210	 4.5815	 0.7395	 2.1318	 1.8895	 4.0211	 0.2423	 1.9806	 1.5567	 3.5373	 0.4239	59.7351	99.9713	
   574	 2.7464	 1.8439	 4.5903	 0.9025	 2.1015	 1.9201	 4.0215	 0.1814	 2.1198	 1.5216	 3.6414	 0.5982	59.8318	99.9725	
   575	 2.8488	 1.9195	 4.7683	 0.9294	 2.3106	 2.0956	 4.4061	 0.2151	 2.4160	 1.7985	 4.2145	 0.6175	59.6178	99.9746	
   576	 2.9130	 1.8580	 4.7710	 1.0551	 2.3772	 2.1358	 4.5129	 0.2413	 2.4917	 1.8443	 4.3360	 0.6474	59.3790	99.9712	
   577	 2.9938	 2.0777	 5.0715	 0.9161	 2.5650	 2.1637	 4.7286	 0.4013	 2.6483	 1.8197	 4.4680	 0.8285	60.2265	99.9722	
   578	 2.9912	 2.0333	 5.0244	 0.9579	 2.5472	 2.1897	 4.7368	 0.3575	 2.6098	 1.9483	 4.5582	 0.6615	59.6115	99.9747	
   579	 3.0267	 1.9975	 5.0242	 1.0293	 2.4393	 2.0999	 4.5391	 0.3394	 2.4445	 1.8049	 4.2494	 0.6396	59.5473	99.9754	
   580	 2.9547	 1.9258	 4.8805	 1.0290	 2.3255	 2.0188	 4.3442	 0.3066	 2.2949	 1.7469	 4.0418	 0.5480	59.3358	99.9767	
   581	 3.0571	 2.0014	 5.0585	 1.0558	 2.4104	 2.1560	 4.5663	 0.2545	 2.4556	 1.9092	 4.3648	 0.5463	59.1874	99.9785	
   582	 3.0554	 2.1003	 5.1557	 0.9552	 2.5782	 2.2819	 4.8601	 0.2963	 2.6762	 2.0319	 4.7080	 0.6443	59.5470	99.9753	
   583	 2.9964	 1.9936	 4.9899	 1.0029	 2.4615	 2.1501	 4.6115	 0.3114	 2.5912	 1.9154	 4.5066	 0.6758	59.5686	99.9792	
   584	 2.8124	 1.9405	 4.7529	 0.8719	 2.3735	 2.0724	 4.4458	 0.3011	 2.3752	 1.8823	 4.2575	 0.4929	59.3650	99.9760	
   585	 2.6717	 1.8564	 4.5281	 0.8154	 2.1783	 2.1380	 4.3162	 0.0403	 2.3222	 1.9478	 4.2701	 0.3744	59.0658	99.9764	
   586	 2.6015	 1.9428	 4.5443	 0.6587	 2.1724	 2.1467	 4.3189	 0.0257	 2.3420	 1.8947	 4.2368	 0.4473	59.6192	99.9755	
   587	 2.6908	 1.9249	 4.6158	 0.7660	 2.1864	 2.1674	 4.3537	 0.0190	 2.3886	 1.9229	 4.3115	 0.4657	59.4359	99.9772	
   588	 2.6874	 1.9942	 4.6816	 0.6932	 2.2337	 2.2083	 4.4419	 0.0254	 2.4183	 1.9517	 4.3700	 0.4665	59.5879	99.9759	
   589	 2.8618	 2.0130	 4.8748	 0.8489	 2.3624	 2.2126	 4.5749	 0.1498	 2.5545	 1.9691	 4.5236	 0.5854	59.5898	99.9784	
   590	 3.0155	 2.0621	 5.0776	 0.9534	 2.5065	 2.2631	 4.7695	 0.2435	 2.6925	 2.0200	 4.7125	 0.6724	59.5975	99.9784	
   591	 2.9582	 2.1135	 5.0717	 0.8448	 2.4348	 2.3544	 4.7890	 0.0804	 2.6523	 2.1150	 4.7673	 0.5372	59.4226	99.9784	
   592	 2.8324	 2.1524	 4.9848	 0.6800	 2.3327	 2.3661	 4.6987	-0.0334	 2.5620	 2.1147	 4.6767	 0.4473	59.5294	99.9786	
   593	 2.8237	 2.1329	 4.9566	 0.6908	 2.2706	 2.2918	 4.5624	-0.0212	 2.4619	 2.0324	 4.4943	 0.4295	59.5334	99.9801	
   594	 2.6969	 2.0285	 4.7255	 0.6685	 2.1095	 2.1699	 4.2793	-0.0604	 2.1947	 1.9900	 4.1847	 0.2047	59.0134	99.9820	
   595	 2.6301	 2.0456	 4.6757	 0.5845	 2.1716	 2.2442	 4.4156	-0.0726	 2.3437	 2.0368	 4.3805	 0.3069	59.3659	99.9787	
   596	 2.7429	 2.0418	 4.7847	 0.7012	 2.2219	 2.2256	 4.4474	-0.0037	 2.3932	 2.0125	 4.4058	 0.3807	59.3539	99.9802	
   597	 2.7421	 2.0270	 4.7690	 0.7152	 2.1938	 2.1841	 4.3778	 0.0097	 2.3117	 1.9632	 4.2749	 0.3485	59.2906	99.9797	
   598	 2.6570	 1.9903	 4.6473	 0.6667	 2.0932	 2.1111	 4.2042	-0.0178	 2.1726	 1.8899	 4.0625	 0.2828	59.2642	99.9801	
   599	 2.5702	 1.9241	 4.4943	 0.6462	 1.9521	 2.0012	 3.9531	-0.0491	 1.9724	 1.7253	 3.6977	 0.2471	59.3236	99.9783	
   600	 2.4131	 1.8158	 4.2289	 0.5974	 1.7584	 1.8718	 3.6301	-0.1134	 1.7058	 1.5856	 3.2915	 0.1202	59.1626	99.9770	
   601	 2.2673	 1.7713	 4.0386	 0.4960	 1.6135	 1.8087	 3.4220	-0.1952	 1.5207	 1.4953	 3.0161	 0.0254	59.1710	99.9749	
   602	 2.2291	 1.7627	 3.9918	 0.4664	 1.6194	 1.8000	 3.4193	-0.1806	 1.5085	 1.4771	 2.9856	 0.0314	59.2492	99.9726	
   603	 2.1909	 1.7542	 3.9450	 0.4368	 1.5817	 1.8139	 3.3955	-0.2322	 1.5009	 1.5484	 3.0493	-0.0475	59.0403	99.9759	
   604	 2.2239	 1.9310	 4.1549	 0.2930	 1.7029	 2.0219	 3.7247	-0.3190	 1.7436	 1.7712	 3.5148	-0.0276	59.2627	99.9775	
   605	 2.3125	 2.0268	 4.3393	 0.2857	 1.8011	 2.1671	 3.9681	-0.3659	 1.8862	 1.9118	 3.7980	-0.0256	59.2186	99.9767	
   606	 2.2881	 1.9980	 4.2861	 0.2902	 1.7583	 2.0922	 3.8504	-0.3339	 1.8088	 1.8324	 3.6412	-0.0236	59.2689	99.9774	
   607	 2.1944	 1.9419	 4.1363	 0.2526	 1.6496	 1.9897	 3.6393	-0.3401	 1.6394	 1.7190	 3.3584	-0.0796	59.2695	99.9769	
   608	 2.0208	 1.8094	 3.8302	 0.2114	 1.4404	 1.8142	 3.2546	-0.3737	 1.3758	 1.5269	 2.9027	-0.1512	59.2576	99.9766	
   609	 2.0737	 1.8125	 3.8863	 0.2613	 1.4863	 1.8297	 3.3159	-0.3434	 1.4101	 1.5368	 2.9470	-0.1268	59.2196	99.9756	
   610	 2.1371	 1.8647	 4.0019	 0.2724	 1.5543	 1.8953	 3.4495	-0.3410	 1.4642	 1.6021	 3.0664	-0.1379	59.1499	99.9745	
   611	 2.1918	 1.8975	 4.0893	 0.2944	 1.5765	 1.9455	 3.5218	-0.3690	 1.4945	 1.6422	 3.1366	-0.1477	59.0740	99.9744	
   612	 2.1927	 1.9123	 4.1049	 0.2804	 1.5772	 1.9581	 3.5352	-0.3809	 1.5236	 1.6598	 3.1834	-0.1362	59.1204	99.9757	
   613	 2.1935	 1.9271	 4.1206	 0.2665	 1.5653	 1.9755	 3.5407	-0.4101	 1.5015	 1.6681	 3.1695	-0.1666	59.0761	99.9751	
   614	 2.1415	 1.9388	 4.0802	 0.2028	 1.5276	 1.9894	 3.5169	-0.4618	 1.4822	 1.7324	 3.2146	-0.2502	58.9395	99.9779	
   615	 2.3142	 2.0564	 4.3706	 0.2578	 1.7435	 2.1689	 3.9123	-0.4254	 1.7686	 1.9274	 3.6960	-0.1588	58.9622	99.9778	
   616	 2.4722	 2.1796	 4.6517	 0.2927	 1.9009	 2.3376	 4.2384	-0.4367	 1.9735	 2.0731	 4.0465	-0.0996	58.9943	99.9766	
   617	 2.4522	 2.2247	 4.6770	 0.2276	 1.8684	 2.3302	 4.1985	-0.4618	 1.8984	 2.0385	 3.9369	-0.1401	59.0791	99.9760	
   618	 2.2621	 2.0681	 4.3302	 0.1941	 1.5690	 2.0389	 3.6079	-0.4699	 1.4112	 1.6677	 3.0789	-0.2565	59.0966	99.9730	
   619	 1.8524	 1.7657	 3.6181	 0.0867	 1.1366	 1.6672	 2.8037	-0.5306	 0.8647	 1.2393	 2.1040	-0.3746	59.1904	99.9686	
   620	 1.5113	 1.4758	 2.9871	 0.0355	 0.8535	 1.4347	 2.2881	-0.5812	 0.5888	 1.0290	 1.6178	-0.4401	59.1085	99.9660	
   621	 1.5087	 1.4314	 2.9401	 0.0773	 0.9422	 1.4149	 2.3570	-0.4727	 0.6523	 1.0565	 1.7088	-0.4042	59.0593	99.9641	
   622	 1.6562	 1.5055	 3.1617	 0.1508	 1.0775	 1.5335	 2.6109	-0.4559	 0.7902	 1.2159	 2.0061	-0.4257	58.7772	99.9652	
   623	 1.8793	 1.7104	 3.5897	 0.1689	 1.3103	 1.7845	 3.0947	-0.4742	 1.1010	 1.4474	 2.5484	-0.3464	58.8693	99.9651	
   624	 1.9600	 1.8016	 3.7616	 0.1585	 1.4293	 1.9544	 3.3836	-0.5251	 1.3297	 1.7268	 3.0566	-0.3972	58.5746	99.9716	
   625	 2.2552	 1.9497	 4.2049	 0.3055	 1.7960	 2.1884	 3.9843	-0.3925	 1.7820	 1.9680	 3.7500	-0.1861	58.6997	99.9701	
   626	 2.3359	 2.0409	 4.3767	 0.2951	 1.8854	 2.2915	 4.1768	-0.4061	 1.9682	 2.0807	 4.0490	-0.1125	58.8529	99.9734	
   627	 2.5086	 2.1585	 4.6672	 0.3501	 2.0539	 2.4302	 4.4840	-0.3762	 2.2348	 2.2204	 4.4552	 0.0144	59.0086	99.9761	
   628	 2.7725	 2.2879	 5.0604	 0.4846	 2.3171	 2.5404	 4.8574	-0.2232	 2.5061	 2.3412	 4.8472	 0.1649	59.1051	99.9777	
   629	 2.8515	 2.3495	 5.2010	 0.5021	 2.3777	 2.5893	 4.9669	-0.2115	 2.5584	 2.3729	 4.9313	 0.1856	59.1378	99.9774	
   630	 2.8003	 2.3760	 5.1762	 0.4244	 2.3008	 2.5918	 4.8925	-0.2909	 2.4630	 2.3802	 4.8431	 0.0828	59.0476	99.9785	
   631	 2.7543	 2.3627	 5.1170	 0.3916	 2.2217	 2.5562	 4.7778	-0.3344	 2.3861	 2.3120	 4.6981	 0.0742	59.1377	99.9784	
   632	 2.7213	 2.3144	 5.0357	 0.4070	 2.1604	 2.4946	 4.6549	-0.3342	 2.2598	 2.2681	 4.5279	-0.0083	58.9251	99.9784	
   633	 2.6727	 2.2567	 4.9294	 0.4160	 2.0865	 2.4376	 4.5240	-0.3511	 2.2057	 2.2028	 4.4085	 0.0029	58.9537	99.9791	
   634	 2.7013	 2.2310	 4.9324	 0.4703	 2.1146	 2.3689	 4.4834	-0.2543	 2.2203	 2.1574	 4.3776	 0.0629	59.0218	99.9812	
   635	 2.6267	 2.1150	 4.7416	 0.5118	 1.9032	 2.1553	 4.0584	-0.2521	 1.8612	 1.8641	 3.7253	-0.0029	58.9817	99.9792	
   636	 2.1163	 1.7666	 3.8829	 0.3497	 1.3407	 1.7539	 3.0944	-0.4132	 1.0469	 1.3821	 2.4290	-0.3352	58.6704	99.9692	
   637	 1.8637	 1.7011	 3.5648	 0.1627	 1.1795	 1.7421	 2.9214	-0.5626	 0.8880	 1.3619	 2.2498	-0.4739	58.6456	99.9637	
   638	 1.8029	 1.6933	 3.4962	 0.1097	 1.1092	 1.7486	 2.8577	-0.6394	 0.7884	 1.3992	 2.1876	-0.6109	58.3683	99.9641	
   639	 1.6606	 1.7080	 3.3686	-0.0474	 0.9894	 1.7863	 2.7756	-0.7969	 0.7057	 1.5445	 2.2501	-0.8388	57.9788	99.9705	
   640	 1.7396	 1.7696	 3.5092	-0.0299	 1.1698	 1.9077	 3.0774	-0.7379	 1.1295	 1.6707	 2.8002	-0.5413	58.5965	99.9747	
   641	 1.8680	 1.7751	 3.6431	 0.0930	 1.2763	 1.7517	 3.0279	-0.4753	 1.2267	 1.4801	 2.7069	-0.2534	59.2450	99.9791	
   642	 1.2335	 1.4952	 2.7288	-0.2616	 0.2251	 1.2261	 1.4510	-1.0010	-0.0998	 0.9051	 0.8052	-1.0049	58.3971	99.9853	
   643	-0.1196	 1.1707	 1.0511	-1.2903	-1.1812	 1.0001	-0.1813	-2.1813	-1.6204	 0.7225	-0.8979	-2.3429	56.8828	99.9815	
   644	-0.6039	 1.1379	 0.5340	-1.7417	-1.6463	 0.9514	-0.6950	-2.5977	-2.0553	 0.7088	-1.3465	-2.7641	56.6568	99.9840	
   645	-0.5969	 1.2563	 0.6593	-1.8532	-1.6582	 1.0790	-0.5793	-2.7372	-2.0501	 0.8096	-1.2405	-2.8597	56.6195	99.9834	
   646	-0.2905	 1.4682	 1.1777	-1.7587	-1.2834	 1.3424	 0.0589	-2.6258	-1.6234	 1.1003	-0.5231	-2.7238	56.6860	99.9832	
   647	 0.0636	 1.5946	 1.6582	-1.5309	-1.0328	 1.4572	 0.4243	-2.4900	-1.4383	 1.1907	-0.2477	-2.6290	56.4954	99.9827	
   648	 0.1226	 1.7013	 1.8239	-1.5786	-0.9811	 1.5742	 0.5931	-2.5553	-1.4209	 1.3097	-0.1112	-2.7306	56.2952	99.9816	
   649	 0.0775	 1.7028	 1.7803	-1.6253	-1.0587	 1.5640	 0.5052	-2.6227	-1.5030	 1.2492	-0.2538	-2.7522	56.3809	99.9802	
   650	-0.1195	 1.5563	 1.4368	-1.6758	-1.2183	 1.3573	 0.1388	-2.5756	-1.6473	 0.9666	-0.6807	-2.6139	56.9831	99.9782	
   651	-0.1187	 1.4426	 1.3239	-1.5612	-1.2634	 1.1341	-0.1294	-2.3974	-1.7688	 0.6869	-1.0820	-2.4558	57.3395	99.9778	
   652	-0.4372	 1.2805	 0.8432	-1.7177	-1.5103	 0.9725	-0.5379	-2.4828	-2.0028	 0.5236	-1.4792	-2.5264	57.4944	99.9762	
   653	-0.9815	 1.1261	 0.1446	-2.1075	-1.8740	 0.8994	-0.9747	-2.7735	-2.2991	 0.4636	-1.8355	-2.7627	57.5857	99.9713	
   654	-1.2097	 1.0894	-0.1203	-2.2990	-2.0715	 0.9270	-1.1446	-2.9984	-2.3946	 0.5794	-1.8153	-2.9740	57.2804	99.9766	
   655	-0.9953	 1.2748	 0.2795	-2.2701	-1.7351	 1.0814	-0.6538	-2.8165	-1.9726	 0.7805	-1.1921	-2.7532	57.7440	99.9802	
   656	-0.4693	 1.6325	 1.1633	-2.1018	-0.9396	 1.5136	 0.5738	-2.4532	-0.8975	 1.2902	 0.3926	-2.1877	58.6294	99.9841	
   657	 0.3093	 1.7987	 2.1080	-1.4894	-0.1892	 1.7225	 1.5332	-1.9117	-0.0989	 1.5782	 1.4793	-1.6772	58.6063	99.9879	
   658	 0.5037	 1.9008	 2.4045	-1.3971	 0.0991	 1.9336	 2.0326	-1.8345	 0.2008	 1.8139	 2.0147	-1.6131	58.4520	99.9844	
   659	 0.7676	 2.0302	 2.7978	-1.2626	 0.4894	 2.1330	 2.6223	-1.6435	 0.5437	 1.9021	 2.4458	-1.3584	58.8299	99.9723	
   660	 0.6973	 1.9881	 2.6854	-1.2908	 0.2868	 2.0717	 2.3584	-1.7848	 0.4022	 1.8924	 2.2946	-1.4902	58.5460	99.9807	
   661	 0.8014	 2.0933	 2.8948	-1.2918	 0.2979	 2.1519	 2.4497	-1.8539	 0.3359	 1.9173	 2.2532	-1.5814	58.3815	99.9786	
   662	 0.5975	 2.0855	 2.6829	-1.4879	 0.1205	 2.0813	 2.2016	-1.9608	 0.1513	 1.8382	 1.9895	-1.6868	58.5484	99.9795	
   663	 0.4525	 2.0558	 2.5083	-1.6032	 0.0325	 2.0036	 2.0360	-1.9711	 0.0419	 1.7936	 1.8355	-1.7517	58.6201	99.9807	
   664	 0.5957	 1.9273	 2.5230	-1.3316	 0.0266	 1.9021	 1.9286	-1.8754	 0.0058	 1.9670	 1.9728	-1.9613	57.3760	99.9922	
   665	 0.6070	 2.1197	 2.7268	-1.5127	 0.3637	 2.1794	 2.5430	-1.8157	 0.5652	 1.9910	 2.5562	-1.4258	59.0960	99.9801	
   666	 0.9412	 2.1627	 3.1039	-1.2215	 0.6336	 2.1834	 2.8169	-1.5498	 0.7812	 2.0241	 2.8053	-1.2429	59.0126	99.9825	
   667	 1.0375	 2.2632	 3.3007	-1.2256	 0.6661	 2.3011	 2.9670	-1.6350	 0.8388	 2.0481	 2.8869	-1.2093	59.1500	99.9798	
   668	 0.9560	 2.2858	 3.2417	-1.3298	 0.5729	 2.2447	 2.8176	-1.6718	 0.7056	 1.8698	 2.5754	-1.1643	59.6273	99.9754	
   669	 0.8544	 2.2250	 3.0794	-1.3705	 0.3592	 2.2135	 2.5726	-1.8542	 0.4744	 1.8710	 2.3454	-1.3966	59.1034	99.9780	
   670	 0.7242	 2.1899	 2.9141	-1.4656	 0.1899	 2.1723	 2.3621	-1.9823	 0.2759	 1.8485	 2.1244	-1.5726	58.8489	99.9790	
   671	 0.7910	 2.3013	 3.0924	-1.5102	 0.2934	 2.2961	 2.5894	-2.0027	 0.4459	 1.9730	 2.4189	-1.5272	59.0023	99.9799	
   672	 0.8058	 2.2959	 3.1017	-1.4900	 0.2380	 2.2258	 2.4637	-1.9878	 0.2829	 1.8744	 2.1573	-1.5915	58.9010	99.9790	
   673	 0.6296	 2.2475	 2.8771	-1.6178	 0.0228	 2.1692	 2.1919	-2.1463	 0.0879	 1.8106	 1.8985	-1.7227	58.8404	99.9803	
   674	 0.5445	 2.2109	 2.7554	-1.6663	-0.0644	 2.1042	 2.0397	-2.1686	 0.0087	 1.8061	 1.8148	-1.7974	58.7253	99.9842	
   675	 0.6574	 2.3355	 2.9929	-1.6781	 0.0975	 2.2388	 2.3362	-2.1413	 0.2386	 1.9995	 2.2381	-1.7609	58.7457	99.9872	
   676	 0.8718	 2.3925	 3.2642	-1.5206	 0.3289	 2.3543	 2.6831	-2.0254	 0.4784	 2.1663	 2.6447	-1.6879	58.5254	99.9874	
   677	 1.2433	 2.4292	 3.6725	-1.1859	 0.6963	 2.4908	 3.1870	-1.7945	 0.8562	 2.2756	 3.1318	-1.4194	58.4935	99.9839	
   678	 1.4038	 2.3397	 3.7435	-0.9358	 0.8405	 2.4311	 3.2715	-1.5905	 0.9785	 2.2411	 3.2196	-1.2627	58.3876	99.9838	
   679	 1.4142	 2.1317	 3.5459	-0.7175	 0.8465	 2.3122	 3.1586	-1.4657	 0.9604	 2.2194	 3.1798	-1.2589	57.8815	99.9846	
   680	 1.3352	 2.0701	 3.4053	-0.7349	 0.8665	 2.3243	 3.1906	-1.4578	 1.1141	 2.2473	 3.3614	-1.1332	58.1452	99.9847	
   681	 1.5852	 2.3483	 3.9335	-0.7630	 1.2796	 2.6967	 3.9762	-1.4170	 1.6694	 2.6267	 4.2961	-0.9574	58.4646	99.9829	
   682	 2.0964	 2.4544	 4.5508	-0.3579	 1.5407	 2.6586	 4.1992	-1.1179	 1.7114	 2.4568	 4.1682	-0.7455	58.4725	99.9806	
   683	 1.8777	 2.3235	 4.2012	-0.4457	 1.3263	 2.5044	 3.8307	-1.1781	 1.4791	 2.3271	 3.8063	-0.8480	58.4102	99.9818	
   684	 1.8646	 2.2300	 4.0946	-0.3653	 1.2672	 2.3707	 3.6378	-1.1035	 1.3418	 2.1789	 3.5207	-0.8372	58.3594	99.9812	
   685	 1.8334	 2.3398	 4.1732	-0.5063	 1.2827	 2.5270	 3.8096	-1.2444	 1.4122	 2.3409	 3.7530	-0.9287	58.3263	99.9805	
   686	 1.8326	 2.3250	 4.1576	-0.4924	 1.4563	 2.7545	 4.2108	-1.2982	 1.9833	 2.3719	 4.3552	-0.3887	59.5158	99.9698	
   687	 1.8248	 2.5774	 4.4022	-0.7525	 1.3343	 2.8644	 4.1986	-1.5301	 1.5861	 2.7607	 4.3468	-1.1747	57.9804	99.9832	
   688	 2.0314	 2.6296	 4.6610	-0.5982	 1.6626	 2.9895	 4.6519	-1.3269	 2.1711	 2.8436	 5.0147	-0.6725	58.8375	99.9834	
   689	 2.3039	 2.6500	 4.9539	-0.3460	 1.8489	 2.9920	 4.8408	-1.1431	 2.2148	 2.8158	 5.0306	-0.6010	58.6062	99.9807	
   690	 2.2128	 2.6383	 4.8510	-0.4255	 1.8052	 3.0146	 4.8197	-1.2093	 2.2788	 2.8545	 5.1334	-0.5757	58.7586	99.9822	
   691	 2.4289	 2.7248	 5.1537	-0.2959	 1.9812	 3.0598	 5.0409	-1.0785	 2.3697	 2.8661	 5.2358	-0.4965	58.7672	99.9806	
   692	 2.3525	 2.7076	 5.0602	-0.3551	 1.8710	 3.0421	 4.9131	-1.1710	 2.3015	 2.8574	 5.1590	-0.5559	58.7286	99.9827	
   693	 2.3872	 2.7856	 5.1728	-0.3983	 1.8925	 3.0796	 4.9719	-1.1871	 2.2905	 2.8616	 5.1521	-0.5711	58.8189	99.9819	
   694	 2.3256	 2.7629	 5.0886	-0.4373	 1.8326	 3.0433	 4.8758	-1.2107	 2.2148	 2.8158	 5.0306	-0.6010	58.8428	99.9815	
   695	 2.3812	 2.8105	 5.1916	-0.4293	 1.9006	 3.1090	 5.0095	-1.2084	 2.3143	 2.8869	 5.2012	-0.5725	58.8640	99.9817	
   696	 2.5053	 2.8705	 5.3758	-0.3652	 2.0122	 3.1520	 5.1641	-1.1397	 2.4547	 2.8742	 5.3288	-0.4195	59.1582	99.9808	
   697	 2.6459	 2.8261	 5.4720	-0.1802	 2.1638	 3.1090	 5.2727	-0.9451	 2.6217	 2.8343	 5.4560	-0.2125	59.3181	99.9811	
   698	 2.6893	 2.7950	 5.4843	-0.1057	 2.2119	 3.0523	 5.2642	-0.8404	 2.6194	 2.7895	 5.4089	-0.1700	59.3063	99.9811	
   699	 2.6745	 2.8005	 5.4750	-0.1259	 2.1491	 3.0756	 5.2245	-0.9265	 2.5635	 2.7990	 5.3626	-0.2355	59.1866	99.9809	
   700	 2.6242	 2.8417	 5.4659	-0.2175	 2.0707	 3.0526	 5.1232	-0.9819	 2.4663	 2.7727	 5.2391	-0.3064	59.2357	99.9828	
   701	 2.5816	 2.7591	 5.3408	-0.1774	 2.0042	 2.9022	 4.9063	-0.8980	 2.3400	 2.6204	 4.9604	-0.2803	59.3080	99.9838	
   702	 2.5678	 2.7794	 5.3471	-0.2116	 1.8288	 3.2003	 5.0290	-1.3714	 2.3778	 3.0229	 5.4006	-0.6451	58.1796	99.9868	
   703	 2.5556	 2.9578	 5.5134	-0.4021	 2.2119	 3.0523	 5.2642	-0.8404	 2.7557	 2.5899	 5.3456	 0.1658	60.8810	99.9782	
   704	 2.6623	 2.2077	 4.8699	 0.4547	 2.1774	 2.3457	 4.5230	-0.1682	 2.5102	 2.0942	 4.6044	 0.4160	59.9060	99.9836	
   705	 2.7655	 2.0410	 4.8065	 0.7246	 2.2633	 2.1649	 4.4281	 0.0984	 2.5615	 1.8866	 4.4481	 0.6750	60.1097	99.9823	
   706	 2.8141	 1.9701	 4.7842	 0.8440	 2.2907	 2.0835	 4.3741	 0.2072	 2.5912	 1.8069	 4.3981	 0.7843	60.1785	99.9831	
   707	 2.8853	 1.8985	 4.7837	 0.9868	 2.3373	 2.0015	 4.3387	 0.3358	 2.5994	 1.7468	 4.3462	 0.8526	60.0937	99.9839	
   708	 2.8835	 1.8689	 4.7524	 1.0147	 2.3233	 1.9808	 4.3039	 0.3425	 2.6041	 1.7279	 4.3320	 0.8762	60.0955	99.9844	
   709	 3.0345	 1.8736	 4.9081	 1.1610	 2.4778	 1.9885	 4.4662	 0.4893	 2.7950	 1.7133	 4.5083	 1.0817	60.3318	99.9842	
   710	 3.1517	 1.8152	 4.9669	 1.3365	 2.5887	 1.9087	 4.4973	 0.6801	 2.8684	 1.6058	 4.4742	 1.2626	60.5053	99.9829	
   711	 2.9025	 1.5519	 4.4544	 1.3507	 2.3567	 1.6703	 4.0269	 0.6864	 2.6444	 1.4160	 4.0603	 1.2284	60.3872	99.9840	
   712	 2.7237	 1.4591	 4.1828	 1.2647	 2.2354	 1.5725	 3.8078	 0.6629	 2.5402	 1.3638	 3.9039	 1.1764	60.3957	99.9854	
   713	 2.7454	 1.4435	 4.1890	 1.3020	 2.2266	 1.5304	 3.7569	 0.6962	 2.4860	 1.2985	 3.7845	 1.1876	60.4109	99.9847	
   714	 2.6039	 1.3446	 3.9485	 1.2594	 2.0647	 1.3958	 3.4604	 0.6689	 2.2754	 1.1492	 3.4246	 1.1261	60.4159	99.9843	
   715	 2.4798	 1.2845	 3.7644	 1.1953	 2.0033	 1.3342	 3.3374	 0.6692	 2.2620	 1.1086	 3.3706	 1.1534	60.5822	99.9853	
   716	 2.5762	 1.2565	 3.8327	 1.3197	 2.0913	 1.3017	 3.3929	 0.7897	 2.3179	 1.0990	 3.4169	 1.2188	60.5059	99.9857	
   717	 2.6291	 1.2597	 3.8888	 1.3695	 2.1424	 1.2958	 3.4381	 0.8466	 2.3621	 1.0824	 3.4445	 1.2797	60.5789	99.9854	
   718	 2.5987	 1.2558	 3.8545	 1.3430	 2.0854	 1.3103	 3.3957	 0.7751	 2.3580	 1.1125	 3.4705	 1.2455	60.5126	99.9872	
   719	 2.8123	 1.4264	 4.2387	 1.3859	 2.3079	 1.4939	 3.8017	 0.8141	 2.6194	 1.2598	 3.8792	 1.3595	60.6844	99.9862	
   720	 2.8305	 1.4802	 4.3107	 1.3504	 2.3796	 1.5128	 3.8923	 0.8669	 2.6328	 1.1920	 3.8248	 1.4408	61.0425	99.9811	
   721	 2.8262	 1.5347	 4.3609	 1.2915	 2.3922	 1.6183	 4.0104	 0.7739	 2.8325	 1.2369	 4.0694	 1.5955	61.4868	99.9814	
   722	 2.9572	 1.4561	 4.4133	 1.5012	 2.5557	 1.4478	 4.0033	 1.1079	 2.7918	 1.1038	 3.8955	 1.6880	61.4180	99.9799	
   723	 2.9233	 1.3930	 4.3163	 1.5304	 2.5889	 1.4679	 4.0567	 1.1210	 2.8511	 1.1614	 4.0125	 1.6897	61.2591	99.9782	
   724	 2.7454	 1.3150	 4.0604	 1.4305	 2.4714	 1.3234	 3.7947	 1.1481	 2.6742	 1.0109	 3.6851	 1.6632	61.4635	99.9770	
   725	 2.3401	 1.2152	 3.5552	 1.1250	 2.1417	 1.1729	 3.3145	 0.9688	 2.4332	 0.9302	 3.3634	 1.5030	61.6216	99.9830	
   726	 2.1864	 1.1660	 3.3525	 1.0205	 1.9694	 1.0810	 3.0503	 0.8885	 2.2464	 0.8063	 3.0526	 1.4401	61.7495	99.9829	
   727	 2.0406	 1.1216	 3.1622	 0.9191	 1.8290	 0.9838	 2.8127	 0.8452	 2.1049	 0.6881	 2.7930	 1.4168	61.9598	99.9834	
   728	 2.0398	 1.1068	 3.1466	 0.9330	 1.8408	 0.9664	 2.8072	 0.8744	 2.1696	 0.6296	 2.7992	 1.5400	62.2639	99.9829	
   729	 2.1543	 1.1325	 3.2869	 1.0218	 1.8933	 0.9859	 2.8792	 0.9074	 2.2255	 0.6200	 2.8455	 1.6054	62.2945	99.9832	
   730	 2.1153	 1.1092	 3.2244	 1.0062	 1.8327	 0.9370	 2.7696	 0.8957	 2.1050	 0.5797	 2.6846	 1.5253	62.1668	99.9831	
   731	 2.0762	 1.0858	 3.1620	 0.9905	 1.7987	 0.9042	 2.7028	 0.8945	 2.0526	 0.5479	 2.6005	 1.5046	62.1620	99.9829	
   732	 2.0623	 1.1060	 3.1683	 0.9564	 1.7869	 0.9216	 2.7083	 0.8653	 2.0409	 0.5409	 2.5819	 1.5000	62.2350	99.9818	
   733	 2.0389	 1.0920	 3.1309	 0.9470	 1.7277	 0.8980	 2.6256	 0.8297	 1.9496	 0.5181	 2.4677	 1.4314	62.1099	99.9820	
   734	 2.0467	 1.0967	 3.1434	 0.9501	 1.7662	 0.8968	 2.6629	 0.8694	 2.0340	 0.5150	 2.5490	 1.5190	62.3092	99.9828	
   735	 2.1587	 1.0780	 3.2367	 1.0807	 1.8505	 0.9110	 2.7614	 0.9394	 2.1073	 0.5160	 2.6233	 1.5913	62.2338	99.9814	
   736	 2.1752	 1.1022	 3.2773	 1.0730	 1.8564	 0.9024	 2.7586	 0.9540	 2.0951	 0.4977	 2.5928	 1.5973	62.3024	99.9817	
   737	 2.1205	 1.0694	 3.1899	 1.0511	 1.7773	 0.8668	 2.6439	 0.9105	 1.9810	 0.4721	 2.4531	 1.5089	62.1405	99.9817	
   738	 2.0883	 1.0359	 3.1243	 1.0525	 1.7433	 0.8340	 2.5771	 0.9093	 1.9181	 0.4557	 2.3739	 1.4624	62.0220	99.9816	
   739	 2.0510	 1.0421	 3.0932	 1.0089	 1.6922	 0.8398	 2.5320	 0.8524	 1.8943	 0.4304	 2.3247	 1.4638	62.1333	99.9813	
   740	 2.0285	 1.0429	 3.0714	 0.9856	 1.6856	 0.8358	 2.5213	 0.8498	 1.8885	 0.4269	 2.3154	 1.4615	62.1725	99.9812	
   741	 2.1040	 1.0453	 3.1492	 1.0588	 1.7625	 0.8333	 2.5957	 0.9292	 1.9735	 0.4350	 2.4084	 1.5385	62.2151	99.9820	
   742	 2.1326	 1.0196	 3.1522	 1.1131	 1.7544	 0.8039	 2.5582	 0.9504	 1.9438	 0.4062	 2.3499	 1.5376	62.1309	99.9823	
   743	 2.0649	 1.0219	 3.0868	 1.0431	 1.7026	 0.7971	 2.4996	 0.9055	 1.8582	 0.3869	 2.2451	 1.4713	62.1237	99.9807	
   744	 2.0345	 1.0180	 3.0525	 1.0166	 1.6760	 0.7810	 2.4569	 0.8950	 1.7971	 0.4042	 2.2012	 1.3929	61.9678	99.9815	
   745	 2.0259	 0.9985	 3.0244	 1.0274	 1.6183	 0.7829	 2.4011	 0.8355	 1.7779	 0.3600	 2.1379	 1.4179	62.0390	99.9809	
   746	 1.9729	 0.9954	 2.9683	 0.9776	 1.5851	 0.7628	 2.3477	 0.8223	 1.6876	 0.3596	 2.0472	 1.3280	61.9170	99.9802	
   747	 1.9807	 1.0001	 2.9808	 0.9807	 1.6117	 0.7789	 2.3904	 0.8328	 1.7843	 0.3747	 2.1590	 1.4095	62.0844	99.9815	
   748	 2.0788	 1.0016	 3.0804	 1.0772	 1.6893	 0.7891	 2.4783	 0.9002	 1.8454	 0.3575	 2.2029	 1.4879	62.1188	99.9799	
   749	 2.0397	 0.9783	 3.0180	 1.0615	 1.6420	 0.7482	 2.3901	 0.8938	 1.7429	 0.3389	 2.0818	 1.4041	61.9552	99.9800	
   750	 1.9781	 0.9557	 2.9338	 1.0225	 1.5511	 0.7300	 2.2809	 0.8211	 1.6516	 0.3161	 1.9676	 1.3354	61.8711	99.9802	
   751	 1.9408	 0.9619	 2.9027	 0.9790	 1.5259	 0.7392	 2.2651	 0.7867	 1.6236	 0.3209	 1.9445	 1.3027	61.8711	99.9796	
   752	 1.9113	 0.9728	 2.8841	 0.9386	 1.5119	 0.7185	 2.2303	 0.7934	 1.5776	 0.3039	 1.8815	 1.2737	61.9029	99.9795	
   753	 1.8948	 0.9486	 2.8434	 0.9462	 1.4483	 0.7290	 2.1772	 0.7193	 1.5497	 0.3087	 1.8583	 1.2410	61.7880	99.9801	
   754	 1.9486	 0.9666	 2.9152	 0.9821	 1.5259	 0.7392	 2.2651	 0.7867	 1.6405	 0.3202	 1.9607	 1.3202	61.9106	99.9804	
   755	 2.0024	 0.9845	 2.9869	 1.0180	 1.5592	 0.7594	 2.3184	 0.7998	 1.6521	 0.3273	 1.9794	 1.3248	61.8672	99.9795	
   756	 1.9486	 0.9666	 2.9152	 0.9821	 1.4808	 0.7365	 2.2172	 0.7444	 1.5549	 0.3010	 1.8559	 1.2539	61.7800	99.9794	
   757	 1.8800	 0.9541	 2.8341	 0.9260	 1.4024	 0.7135	 2.1159	 0.6889	 1.4589	 0.2971	 1.7560	 1.1617	61.6581	99.9803	
   758	 1.8418	 0.9455	 2.7873	 0.8964	 1.3699	 0.7061	 2.0759	 0.6638	 1.4187	 0.2836	 1.7023	 1.1350	61.6554	99.9796	
   759	 1.8358	 0.9704	 2.8062	 0.8654	 1.3780	 0.7355	 2.1134	 0.6425	 1.4268	 0.3320	 1.7588	 1.0949	61.5841	99.9801	
   760	 1.9000	 1.0374	 2.9374	 0.8626	 1.4852	 0.8126	 2.2977	 0.6726	 1.5997	 0.4040	 2.0037	 1.1956	61.7986	99.9806	
   761	 2.0771	 1.1006	 3.1777	 0.9766	 1.6693	 0.8872	 2.5564	 0.7821	 1.8168	 0.4595	 2.2764	 1.3573	61.9653	99.9802	
   762	 2.1231	 1.1138	 3.2369	 1.0093	 1.6819	 0.8826	 2.5643	 0.7993	 1.8000	 0.4601	 2.2601	 1.3398	61.8801	99.9809	
   763	 2.1092	 1.1341	 3.2433	 0.9752	 1.6648	 0.9212	 2.5860	 0.7436	 1.7906	 0.4979	 2.2885	 1.2927	61.8065	99.9805	
   764	 2.1812	 1.2058	 3.3870	 0.9755	 1.7217	 1.0169	 2.7385	 0.7049	 1.8960	 0.5725	 2.4685	 1.3235	61.8550	99.9805	
   765	 2.3245	 1.3343	 3.6588	 0.9902	 1.8829	 1.1389	 3.0216	 0.7441	 2.1177	 0.7176	 2.8353	 1.4002	61.9538	99.9832	
   766	 2.4035	 1.3959	 3.7994	 1.0076	 1.9413	 1.1497	 3.0909	 0.7916	 2.1136	 0.7476	 2.8613	 1.3660	61.8666	99.9843	
   767	 2.4460	 1.4785	 3.9245	 0.9676	 2.0507	 1.2648	 3.3154	 0.7859	 2.3284	 0.8668	 3.1952	 1.4616	62.0891	99.9850	
   768	 2.5840	 1.5183	 4.1023	 1.0658	 2.1875	 1.2986	 3.4860	 0.8889	 2.4419	 0.8812	 3.3232	 1.5607	62.1644	99.9838	
   769	 2.5918	 1.5229	 4.1148	 1.0689	 2.1431	 1.3085	 3.4515	 0.8346	 2.3849	 0.8684	 3.2533	 1.5165	62.0782	99.9833	
   770	 2.5380	 1.5050	 4.0430	 1.0331	 2.0507	 1.2648	 3.3154	 0.7859	 2.2528	 0.8210	 3.0737	 1.4318	61.9854	99.9836	
   771	 2.4851	 1.5019	 3.9869	 0.9833	 2.0049	 1.2494	 3.2541	 0.7555	 2.2085	 0.8376	 3.0461	 1.3709	61.9109	99.9853	
   772	 2.4938	 1.5213	 4.0151	 0.9725	 2.0130	 1.2788	 3.2916	 0.7342	 2.1992	 0.8753	 3.0745	 1.3238	61.7972	99.9849	
   773	 2.5033	 1.5556	 4.0589	 0.9477	 2.0093	 1.3255	 3.3347	 0.6838	 2.2225	 0.8894	 3.1119	 1.3330	61.8743	99.9841	
   774	 2.5241	 1.5253	 4.0494	 0.9989	 2.0315	 1.2655	 3.2968	 0.7660	 2.2370	 0.8440	 3.0810	 1.3930	61.9475	99.9854	
   775	 2.5632	 1.5486	 4.1118	 1.0146	 2.0913	 1.3017	 3.3929	 0.7897	 2.3016	 0.8939	 3.1956	 1.4077	61.9185	99.9853	
   776	 2.5632	 1.5486	 4.1118	 1.0146	 2.0588	 1.2942	 3.3530	 0.7646	 2.2335	 0.8853	 3.1188	 1.3482	61.7933	99.9851	
   777	 2.5502	 1.5837	 4.1339	 0.9666	 2.0351	 1.3289	 3.3639	 0.7063	 2.2178	 0.9083	 3.1261	 1.3095	61.7920	99.9851	
   778	 2.4868	 1.5315	 4.0183	 0.9554	 1.9280	 1.2518	 3.1797	 0.6761	 2.0997	 0.8042	 2.9039	 1.2954	61.8498	99.9852	
   779	 2.4200	 1.5486	 3.9686	 0.8715	 1.8917	 1.2911	 3.1827	 0.6006	 2.0915	 0.8644	 2.9559	 1.2271	61.7855	99.9855	
   780	 2.4590	 1.5720	 4.0310	 0.8871	 1.9191	 1.3199	 3.2389	 0.5991	 2.0891	 0.9281	 3.0172	 1.1611	61.5577	99.9863	
   781	 2.5050	 1.5852	 4.0903	 0.9199	 1.9945	 1.2921	 3.2865	 0.7024	 2.1648	 0.8654	 3.0302	 1.2994	61.8981	99.9856	
   782	 2.4955	 1.5509	 4.0464	 0.9446	 1.9686	 1.2887	 3.2572	 0.6800	 2.1538	 0.8695	 3.0233	 1.2842	61.7868	99.9856	
   783	 2.5050	 1.5852	 4.0903	 0.9199	 1.9642	 1.3227	 3.2868	 0.6415	 2.1334	 0.9114	 3.0448	 1.2219	61.6702	99.9858	
   784	 2.4755	 1.5961	 4.0717	 0.8795	 1.9139	 1.3413	 3.2551	 0.5726	 2.0897	 0.9393	 3.0290	 1.1504	61.5549	99.9865	
   785	 2.5155	 1.6343	 4.1498	 0.8812	 1.9538	 1.3654	 3.3191	 0.5884	 2.1002	 0.9239	 3.0241	 1.1763	61.6608	99.9845	
   786	 2.4217	 1.5782	 3.9999	 0.8436	 1.8222	 1.3103	 3.1324	 0.5119	 1.9686	 0.8877	 2.8563	 1.0809	61.4987	99.9859	
   787	 2.4087	 1.6132	 4.0220	 0.7955	 1.8177	 1.3444	 3.1620	 0.4734	 1.9762	 0.9248	 2.9010	 1.0514	61.5029	99.9862	
   788	 2.4391	 1.6171	 4.0562	 0.8220	 1.9013	 1.3459	 3.2471	 0.5554	 2.0845	 0.9469	 3.0314	 1.1375	61.6336	99.9868	
   789	 2.5320	 1.6585	 4.1904	 0.8736	 1.9826	 1.4196	 3.4021	 0.5630	 2.1724	 1.0110	 3.1833	 1.1614	61.5645	99.9859	
   790	 2.5311	 1.6437	 4.1748	 0.8875	 1.9205	 1.3453	 3.2657	 0.5752	 2.0426	 0.8999	 2.9424	 1.1427	61.6076	99.9855	
   791	 2.4252	 1.6374	 4.0626	 0.7879	 1.8333	 1.3905	 3.2236	 0.4428	 2.0228	 0.9530	 2.9757	 1.0698	61.5480	99.9856	
   792	 2.4565	 1.6561	 4.1126	 0.8004	 1.8458	 1.3859	 3.2316	 0.4600	 1.9942	 0.9466	 2.9408	 1.0477	61.4987	99.9856	
   793	 2.4044	 1.6678	 4.0721	 0.7367	 1.8155	 1.4165	 3.2319	 0.3990	 1.9802	 1.0032	 2.9834	 0.9770	61.3944	99.9861	
   794	 2.4599	 1.7153	 4.1752	 0.7447	 1.8510	 1.4747	 3.3256	 0.3763	 2.0326	 1.0349	 3.0675	 0.9977	61.4338	99.9855	
   795	 2.4747	 1.7098	 4.1845	 0.7649	 1.8953	 1.4648	 3.3600	 0.4306	 2.1234	 1.0465	 3.1699	 1.0770	61.5632	99.9871	
   796	 2.5754	 1.7558	 4.3312	 0.8196	 2.0144	 1.5245	 3.5388	 0.4899	 2.2177	 1.1252	 3.3429	 1.0925	61.4579	99.9866	
   797	 2.5910	 1.7652	 4.3562	 0.8259	 1.9693	 1.5217	 3.4909	 0.4475	 2.1362	 1.0759	 3.2121	 1.0603	61.4352	99.9852	
   798	 2.4851	 1.7589	 4.2440	 0.7263	 1.8783	 1.5035	 3.3817	 0.3749	 2.0571	 1.0714	 3.1284	 0.9857	61.4352	99.9861	
   799	 2.4851	 1.7589	 4.2440	 0.7263	 1.8524	 1.5001	 3.3524	 0.3524	 2.0181	 1.0803	 3.0984	 0.9377	61.3153	99.9868	
   800	 2.4704	 1.7644	 4.2347	 0.7060	 1.8532	 1.5128	 3.3658	 0.3404	 2.0018	 1.0921	 3.0939	 0.9096	61.2773	99.9859	
   801	 2.4556	 1.7698	 4.2254	 0.6858	 1.8088	 1.5227	 3.3314	 0.2862	 1.9954	 1.0774	 3.0728	 0.9179	61.3520	99.9862	
   802	 2.4938	 1.7784	 4.2722	 0.7155	 1.8924	 1.5242	 3.4165	 0.3682	 2.0926	 1.1037	 3.1963	 0.9888	61.4423	99.9870	
   803	 2.5632	 1.8057	 4.3689	 0.7576	 1.9456	 1.5564	 3.5019	 0.3892	 2.1275	 1.1248	 3.2523	 1.0026	61.4015	99.9862	
   804	 2.5259	 1.8119	 4.3378	 0.7141	 1.8820	 1.5669	 3.4488	 0.3151	 2.0652	 1.1197	 3.1849	 0.9455	61.3563	99.9860	
   805	 2.5034	 1.8127	 4.3160	 0.6907	 1.8561	 1.5635	 3.4195	 0.2926	 2.0209	 1.1363	 3.1573	 0.8846	61.2392	99.9865	
   806	 2.4895	 1.8329	 4.3224	 0.6566	 1.8509	 1.5849	 3.4357	 0.2661	 2.0000	 1.1670	 3.1670	 0.8330	61.1631	99.9863	
   807	 2.4738	 1.8236	 4.2974	 0.6503	 1.8051	 1.5694	 3.3744	 0.2357	 1.9482	 1.1465	 3.0947	 0.8017	61.1159	99.9867	
   808	 2.4530	 1.8539	 4.3070	 0.5991	 1.8457	 1.6062	 3.4519	 0.2395	 2.0186	 1.2000	 3.2186	 0.8186	61.2116	99.9868	
   809	 2.5363	 1.8610	 4.3973	 0.6754	 1.9101	 1.6084	 3.5184	 0.3017	 2.0850	 1.1751	 3.2600	 0.9099	61.3226	99.9862	
   810	 2.5294	 1.8711	 4.4005	 0.6584	 1.8842	 1.6050	 3.4891	 0.2792	 2.0349	 1.1881	 3.2230	 0.8467	61.2011	99.9870	
   811	 2.4834	 1.8579	 4.3413	 0.6256	 1.8258	 1.5942	 3.4198	 0.2316	 1.9551	 1.1724	 3.1276	 0.7827	61.1159	99.9865	
   812	 2.4461	 1.8641	 4.3102	 0.5821	 1.7740	 1.5873	 3.3613	 0.1867	 1.8993	 1.1820	 3.0812	 0.7173	61.0350	99.9876	
   813	 2.4322	 1.8843	 4.3165	 0.5479	 1.7703	 1.6341	 3.4043	 0.1362	 1.9016	 1.2268	 3.1284	 0.6748	60.9649	99.9868	
   814	 2.4496	 1.9233	 4.3728	 0.5263	 1.7784	 1.6635	 3.4418	 0.1150	 1.8911	 1.2421	 3.1332	 0.6489	60.9586	99.9862	
   815	 2.4322	 1.8843	 4.3165	 0.5479	 1.7755	 1.6127	 3.3881	 0.1628	 1.9109	 1.1890	 3.0999	 0.7218	61.1144	99.9867	
   816	 2.4860	 1.9023	 4.3883	 0.5838	 1.8287	 1.6449	 3.4735	 0.1838	 1.9528	 1.2361	 3.1889	 0.7167	61.0046	99.9867	
   817	 2.4869	 1.9171	 4.4039	 0.5699	 1.7977	 1.6629	 3.4604	 0.1348	 1.9196	 1.2485	 3.1682	 0.6710	60.9221	99.9868	
   818	 2.4652	 1.9326	 4.3978	 0.5326	 1.7799	 1.6889	 3.4687	 0.0910	 1.8934	 1.2869	 3.1803	 0.6065	60.8092	99.9868	
   819	 2.4522	 1.9677	 4.4199	 0.4846	 1.7747	 1.7102	 3.4848	 0.0645	 1.8771	 1.2988	 3.1758	 0.5783	60.8442	99.9864	
   820	 2.4209	 1.9490	 4.3699	 0.4720	 1.7089	 1.6827	 3.3915	 0.0263	 1.8177	 1.2411	 3.0589	 0.5766	60.9078	99.9862	
   821	 2.3906	 1.9451	 4.3356	 0.4455	 1.6838	 1.6920	 3.3756	-0.0082	 1.8131	 1.2600	 3.0731	 0.5530	60.8759	99.9866	
   822	 2.4366	 1.9583	 4.3949	 0.4783	 1.7422	 1.7028	 3.4449	 0.0394	 1.8707	 1.2840	 3.1547	 0.5866	60.8823	99.9869	
   823	 2.4678	 1.9770	 4.4448	 0.4908	 1.7636	 1.7403	 3.5038	 0.0234	 1.9056	 1.3052	 3.2108	 0.6004	60.8855	99.9862	
   824	 2.4392	 2.0027	 4.4419	 0.4365	 1.7503	 1.7322	 3.4824	 0.0181	 1.8660	 1.3029	 3.1689	 0.5631	60.9173	99.9865	
   825	 2.4314	 1.9980	 4.4294	 0.4334	 1.7252	 1.7415	 3.4665	-0.0163	 1.8288	 1.3454	 3.1742	 0.4833	60.6882	99.9874	
   826	 2.4088	 1.9988	 4.4076	 0.4100	 1.6741	 1.7474	 3.4214	-0.0732	 1.7822	 1.3173	 3.0995	 0.4649	60.7165	99.9866	
   827	 2.3645	 2.0152	 4.3797	 0.3494	 1.6372	 1.7740	 3.4110	-0.1368	 1.7618	 1.3592	 3.1210	 0.4026	60.6467	99.9871	
   828	 2.4131	 2.0728	 4.4860	 0.3404	 1.7310	 1.8430	 3.5739	-0.1120	 1.8561	 1.4379	 3.2940	 0.4182	60.6634	99.9865	
   829	 2.4574	 2.0565	 4.5139	 0.4010	 1.7621	 1.8251	 3.5871	-0.0629	 1.8823	 1.3995	 3.2818	 0.4827	60.7346	99.9858	
   830	 2.4574	 2.0565	 4.5139	 0.4010	 1.7495	 1.8297	 3.5791	-0.0802	 1.8491	 1.4120	 3.2611	 0.4371	60.6152	99.9857	
   831	 2.4426	 2.0619	 4.5046	 0.3808	 1.7044	 1.8269	 3.5312	-0.1225	 1.7979	 1.4027	 3.2006	 0.3952	60.5670	99.9860	
   832	 2.4288	 2.0822	 4.5109	 0.3466	 1.6800	 1.8489	 3.5288	-0.1689	 1.7973	 1.3915	 3.1888	 0.4058	60.6800	99.9854	
   833	 2.3880	 2.0292	 4.4172	 0.3588	 1.5965	 1.7371	 3.3335	-0.1406	 1.6343	 1.2929	 2.9272	 0.3415	60.5679	99.9865	
   834	 2.2491	 1.9746	 4.2237	 0.2745	 1.4457	 1.6827	 3.1282	-0.2370	 1.5243	 1.2371	 2.7614	 0.2872	60.6030	99.9875	
   835	 2.2500	 1.9894	 4.2394	 0.2606	 1.4420	 1.7294	 3.1713	-0.2874	 1.5767	 1.2688	 2.8455	 0.3079	60.6549	99.9874	
   836	 2.3263	 2.0066	 4.3329	 0.3198	 1.5255	 1.7310	 3.2564	-0.2054	 1.6559	 1.2734	 2.9292	 0.3825	60.7350	99.9877	
   837	 2.3038	 2.0074	 4.3111	 0.2965	 1.4649	 1.6820	 3.1469	-0.2171	 1.5167	 1.3085	 2.8252	 0.2082	60.3299	99.9909	
   838	 2.1823	 1.9917	 4.1740	 0.1906	 1.3037	 1.6703	 2.9739	-0.3665	 1.3584	 1.1910	 2.5494	 0.1674	60.5318	99.9877	
   839	 2.0330	 1.8881	 3.9210	 0.1449	 1.1500	 1.5650	 2.7149	-0.4151	 1.1623	 1.1048	 2.2670	 0.0574	60.3573	99.9876	
   840	 1.9366	 1.7876	 3.7242	 0.1491	 1.0480	 1.4666	 2.5145	-0.4186	 1.0394	 1.0196	 2.0591	 0.0198	60.2669	99.9876	
   841	 1.8889	 1.7447	 3.6336	 0.1442	 0.9969	 1.4725	 2.4693	-0.4755	 0.9672	 1.0410	 2.0083	-0.0738	59.9944	99.9864	
   842	 1.9132	 1.7735	 3.6867	 0.1397	 1.0664	 1.5635	 2.6298	-0.4971	 1.1128	 1.1291	 2.2418	-0.0163	60.0728	99.9855	
   843	 2.0173	 1.7502	 3.7675	 0.2672	 1.1359	 1.5443	 2.6801	-0.4084	 1.1401	 1.1131	 2.2532	 0.0270	59.9454	99.9851	
   844	 1.9079	 1.6847	 3.5927	 0.2233	 1.0480	 1.4666	 2.5145	-0.4186	 1.0068	 1.0433	 2.0501	-0.0365	59.8912	99.9843	
   845	 1.8376	 1.6426	 3.4803	 0.1950	 0.9895	 1.4558	 2.4452	-0.4662	 0.9387	 1.0346	 1.9733	-0.0959	59.7748	99.9829	
   846	 1.7986	 1.6193	 3.4178	 0.1794	 0.9104	 1.4202	 2.3305	-0.5097	 0.8171	 0.9718	 1.7889	-0.1548	59.7061	99.9816	
   847	 1.7022	 1.6473	 3.3495	 0.0550	 0.8594	 1.4260	 2.2854	-0.5666	 0.8194	 0.9081	 1.7276	-0.0887	60.1779	99.9796	
   848	 1.7587	 1.7096	 3.4683	 0.0491	 0.8697	 1.4935	 2.3632	-0.6238	 0.8613	 1.0637	 1.9249	-0.2024	59.8057	99.9852	
   849	 1.9375	 1.9309	 3.8684	 0.0067	 1.1832	 1.6953	 2.8784	-0.5122	 1.2303	 1.3304	 2.5607	-0.1001	60.0313	99.9875	
   850	 2.0764	 1.9855	 4.0618	 0.0910	 1.3998	 1.7774	 3.1771	-0.3776	 1.3199	 1.4280	 2.7479	-0.1081	59.8065	99.9826	
   851	 2.1597	 1.9925	 4.1522	 0.1672	 1.4730	 1.8216	 3.2945	-0.3486	 1.2279	 1.3941	 2.6220	-0.1661	59.5703	99.9720	
   852	 1.9410	 1.8616	 3.8025	 0.0794	 1.2253	 1.7576	 2.9828	-0.5322	 1.0888	 1.4292	 2.5180	-0.3404	59.1753	99.9792	
   853	 2.1875	 2.0805	 4.2680	 0.1070	 1.5010	 1.9733	 3.4742	-0.4723	 1.4019	 1.5970	 2.9989	-0.1951	59.4773	99.9775	
   854	 2.3133	 2.1702	 4.4835	 0.1432	 1.6407	 2.1680	 3.8086	-0.5273	 1.6510	 1.8345	 3.4856	-0.1835	59.2783	99.9791	
   855	 2.5772	 2.4281	 5.0053	 0.1492	 1.8905	 2.3804	 4.2708	-0.4898	 1.9281	 1.9588	 3.8869	-0.0307	59.7030	99.9775	
   856	 2.5920	 2.4226	 5.0146	 0.1694	 1.8831	 2.3636	 4.2467	-0.4805	 1.9293	 1.9812	 3.9105	-0.0520	59.5914	99.9806	
   857	 2.6119	 2.3775	 4.9894	 0.2345	 1.8469	 2.2928	 4.1396	-0.4458	 1.8338	 1.8801	 3.7139	-0.0463	59.5537	99.9794	
   858	 2.4574	 2.3135	 4.7710	 0.1440	 1.6747	 2.2008	 3.8754	-0.5261	 1.6231	 1.8393	 3.4624	-0.2163	59.3025	99.9820	
   859	 2.3654	 2.2870	 4.6525	 0.0785	 1.6015	 2.1566	 3.7580	-0.5550	 1.5247	 1.7906	 3.3153	-0.2659	59.3283	99.9812	
   860	 2.3047	 2.2792	 4.5839	 0.0255	 1.4995	 2.1683	 3.6677	-0.6688	 1.4688	 1.8002	 3.2690	-0.3314	59.2518	99.9826	
   861	 2.2318	 2.3212	 4.5530	-0.0894	 1.3996	 2.2181	 3.6177	-0.8185	 1.3809	 1.8446	 3.2255	-0.4637	59.1306	99.9830	
   862	 2.2040	 2.3617	 4.5658	-0.1577	 1.3759	 2.2528	 3.6287	-0.8768	 1.3494	 1.8907	 3.2401	-0.5412	59.0541	99.9834	
   863	 2.2006	 2.4311	 4.6316	-0.2304	 1.4129	 2.3364	 3.7492	-0.9235	 1.4158	 1.9742	 3.3900	-0.5585	59.1159	99.9829	
   864	 2.3421	 2.5300	 4.8721	-0.1879	 1.5807	 2.4624	 4.0429	-0.8817	 1.6073	 2.0793	 3.6865	-0.4720	59.2196	99.9813	
   865	 2.4184	 2.5472	 4.9656	-0.1287	 1.6058	 2.4531	 4.0588	-0.8472	 1.5136	 2.0117	 3.5253	-0.4981	59.1285	99.9769	
   866	 2.3342	 2.3968	 4.7311	-0.0626	 1.4617	 2.2924	 3.7540	-0.8307	 1.3366	 1.8612	 3.1979	-0.5246	58.9764	99.9780	
   867	 2.2474	 2.3306	 4.5780	-0.0831	 1.3937	 2.2268	 3.6204	-0.8331	 1.2499	 1.8196	 3.0695	-0.5697	58.8950	99.9782	
   868	 2.2066	 2.2776	 4.4842	-0.0709	 1.3523	 2.1773	 3.5295	-0.8249	 1.2360	 1.7677	 3.0037	-0.5318	58.9742	99.9788	
   869	 2.1745	 2.2441	 4.4186	-0.0696	 1.3316	 2.1525	 3.4840	-0.8209	 1.1970	 1.7767	 2.9736	-0.5798	58.8225	99.9793	
   870	 2.1511	 2.2301	 4.3811	-0.0790	 1.3435	 2.1352	 3.4785	-0.7917	 1.2138	 1.7761	 2.9899	-0.5622	58.8721	99.9797	
   871	 2.2648	 2.2410	 4.5058	 0.0238	 1.4617	 2.1822	 3.6439	-0.7205	 1.3675	 1.8040	 3.1715	-0.4365	58.9709	99.9785	
   872	 2.3255	 2.2488	 4.5743	 0.0767	 1.5335	 2.2011	 3.7345	-0.6676	 1.4473	 1.8197	 3.2670	-0.3724	59.0201	99.9779	
   873	 2.3316	 2.2239	 4.5555	 0.1077	 1.5194	 2.1804	 3.6997	-0.6609	 1.4077	 1.8174	 3.2251	-0.4098	58.8582	99.9784	
   874	 2.2856	 2.2107	 4.4962	 0.0750	 1.4928	 2.1643	 3.6570	-0.6715	 1.3786	 1.7998	 3.1784	-0.4213	58.8965	99.9779	
   875	 2.2700	 2.2013	 4.4713	 0.0687	 1.4788	 2.1435	 3.6222	-0.6648	 1.3448	 1.8011	 3.1459	-0.4563	58.8155	99.9787	
   876	 2.2621	 2.1966	 4.4588	 0.0656	 1.4411	 2.1575	 3.5984	-0.7164	 1.3390	 1.7976	 3.1366	-0.4586	58.8155	99.9788	
   877	 2.2248	 2.2028	 4.4277	 0.0220	 1.4529	 2.1401	 3.5929	-0.6872	 1.3169	 1.8059	 3.1227	-0.4890	58.8177	99.9788	
   878	 2.2630	 2.2114	 4.4744	 0.0516	 1.4876	 2.1856	 3.6732	-0.6980	 1.4251	 1.8280	 3.2531	-0.4029	58.9568	99.9787	
   879	 2.3472	 2.2333	 4.5805	 0.1140	 1.6155	 2.1773	 3.7927	-0.5617	 1.5270	 1.8354	 3.3624	-0.3084	59.0799	99.9788	
   880	 2.3915	 2.2169	 4.6084	 0.1746	 1.6229	 2.1940	 3.8168	-0.5710	 1.5381	 1.8313	 3.3694	-0.2932	58.9993	99.9775	
   881	 2.3620	 2.2278	 4.5898	 0.1342	 1.6030	 2.1819	 3.7848	-0.5789	 1.5049	 1.8437	 3.3486	-0.3388	58.9589	99.9789	
   882	 2.3394	 2.2286	 4.5680	 0.1109	 1.5838	 2.1826	 3.7662	-0.5988	 1.4985	 1.8290	 3.3275	-0.3305	59.0353	99.9785	
   883	 2.3463	 2.2185	 4.5648	 0.1279	 1.5645	 2.1832	 3.7476	-0.6186	 1.4764	 1.8373	 3.3137	-0.3610	58.9164	99.9790	
   884	 2.3168	 2.2294	 4.5462	 0.0875	 1.5394	 2.1925	 3.7317	-0.6531	 1.4426	 1.8386	 3.2812	-0.3960	58.9120	99.9783	
   885	 2.3168	 2.2294	 4.5462	 0.0875	 1.5335	 2.2011	 3.7345	-0.6676	 1.4711	 1.8450	 3.3161	-0.3739	58.9589	99.9790	
   886	 2.4236	 2.2504	 4.6740	 0.1732	 1.6629	 2.2182	 3.8809	-0.5553	 1.6068	 1.8511	 3.4579	-0.2444	59.1244	99.9784	
   887	 2.4687	 2.2489	 4.7176	 0.2199	 1.6828	 2.2302	 3.9129	-0.5474	 1.6184	 1.8582	 3.4766	-0.2398	59.0439	99.9780	
   888	 2.4080	 2.2411	 4.6490	 0.1669	 1.6303	 2.2107	 3.8409	-0.5804	 1.5497	 1.8383	 3.3880	-0.2886	59.0353	99.9776	
   889	 2.3689	 2.2177	 4.5866	 0.1513	 1.5978	 2.2033	 3.8010	-0.6055	 1.5381	 1.8313	 3.3694	-0.2932	59.0418	99.9776	
   890	 2.3342	 2.2683	 4.6025	 0.0659	 1.6325	 2.2488	 3.8812	-0.6162	 1.6260	 1.8953	 3.5213	-0.2694	59.2279	99.9788	
   891	 2.3906	 2.3306	 4.7213	 0.0600	 1.7094	 2.3565	 4.0658	-0.6471	 1.7849	 2.0240	 3.8089	-0.2392	59.2338	99.9803	
   892	 2.4106	 2.4140	 4.8246	-0.0033	 1.7397	 2.4361	 4.1756	-0.6964	 1.8797	 2.1140	 3.9937	-0.2343	59.3338	99.9825	
   893	 2.5269	 2.4693	 4.9963	 0.0576	 1.8720	 2.5038	 4.3758	-0.6318	 2.0270	 2.1272	 4.1542	-0.1002	59.5691	99.9797	
   894	 2.4922	 2.3914	 4.8836	 0.1008	 1.8055	 2.3534	 4.1588	-0.5479	 1.8879	 1.9454	 3.8333	-0.0574	59.7108	99.9792	
   895	 2.4948	 2.4358	 4.9306	 0.0590	 1.7441	 2.4020	 4.1460	-0.6579	 1.7371	 2.0819	 3.8190	-0.3448	59.0088	99.9819	
   896	 2.5712	 2.5815	 5.1527	-0.0103	 1.7167	 2.5936	 4.3102	-0.8769	 1.6812	 2.1999	 3.8811	-0.5188	58.7144	99.9782	
   897	 2.5321	 2.5581	 5.0903	-0.0260	 1.5792	 2.4370	 4.0161	-0.8577	 1.4327	 1.9736	 3.4062	-0.5409	58.8839	99.9782	
   898	 2.1207	 2.2262	 4.3469	-0.1054	 1.1239	 2.0024	 3.1262	-0.8785	 0.9176	 1.4991	 2.4167	-0.5816	59.1362	99.9788	
   899	 1.7222	 1.7306	 3.4528	-0.0084	 0.6842	 1.2834	 1.9675	-0.5991	 0.3712	 0.8538	 1.2250	-0.4827	59.4559	99.9870	
   900	 1.0035	 1.3004	 2.3039	-0.2969	 0.1290	 1.0088	 1.1377	-0.8797	 0.0801	 0.7862	 0.8663	-0.7061	59.1710	99.9932	
   901	 1.2613	 1.5833	 2.8446	-0.3219	 0.7441	 1.3196	 2.0636	-0.5754	 0.7472	 1.0380	 1.7852	-0.2908	60.1850	99.9861	
   902	 1.8533	 1.9091	 3.7624	-0.0557	 1.2084	 1.5759	 2.7841	-0.3675	 1.1832	 1.1825	 2.3657	 0.0006	60.5156	99.9854	
   903	 1.7925	 1.7727	 3.5652	 0.0199	 0.9607	 1.5118	 2.4724	-0.5511	 1.0010	 1.1482	 2.1492	-0.1473	59.9549	99.9892	
   904	 1.8273	 1.8506	 3.6779	-0.0233	 0.9717	 1.5920	 2.5636	-0.6202	 0.9649	 1.2131	 2.1780	-0.2483	59.7866	99.9880	
   905	 1.7674	 1.8576	 3.6250	-0.0902	 0.8986	 1.5477	 2.4461	-0.6491	 0.8456	 1.0867	 1.9322	-0.2412	60.0590	99.9853	
   906	 1.3195	 1.5467	 2.8661	-0.2271	 0.2805	 1.1861	 1.4666	-0.9056	-0.1218	 0.5880	 0.4662	-0.7099	59.4231	99.9730	
   907	 0.1946	 1.3874	 1.5820	-1.1927	-0.8988	 0.9995	 0.1006	-1.8982	-1.3520	 0.5704	-0.7816	-1.9223	58.0763	99.9821	
   908	-0.5023	 1.5842	 1.0820	-2.0865	-1.4246	 1.2325	-0.1922	-2.6571	-1.7404	 0.9102	-0.8302	-2.6506	57.7569	99.9859	
   909	-0.3234	 1.9340	 1.6106	-2.2574	-1.1645	 1.7327	 0.5681	-2.8972	-1.4373	 1.4300	-0.0073	-2.8673	57.3131	99.9817	
   910	-0.0639	 1.9894	 1.9255	-2.0533	-0.9583	 1.8575	 0.8991	-2.8157	-1.2598	 1.5917	 0.3319	-2.8514	56.8607	99.9814	
   911	 0.0550	 1.8321	 1.8871	-1.7771	-0.9123	 1.6525	 0.7401	-2.5649	-1.1206	 1.4481	 0.3275	-2.5687	57.0699	99.9892	
   912	 0.4047	 1.7559	 2.1606	-1.3511	-0.5515	 1.5647	 1.0131	-2.1161	-0.7112	 1.2944	 0.5832	-2.0057	57.7683	99.9881	
   913	 0.6034	 1.5464	 2.1499	-0.9429	-0.0952	 1.4610	 1.3657	-1.5562	-0.2256	 0.9808	 0.7552	-1.2065	59.1319	99.9695	
   914	 0.6590	 1.4654	 2.1244	-0.8064	-0.2919	 1.3910	 1.0991	-1.6829	-0.8299	 0.9623	 0.1324	-1.7922	57.3625	99.9626	
   915	 0.4967	 1.6539	 2.1506	-1.1571	-0.3274	 1.5532	 1.2257	-1.8806	-0.7764	 1.1248	 0.3484	-1.9012	57.7442	99.9639	
   916	 0.7796	 1.5948	 2.3744	-0.8151	 0.2553	 1.5260	 1.7812	-1.2707	 0.1510	 1.0677	 1.2188	-0.9167	59.5541	99.9665	
   917	 1.3047	 1.5521	 2.8568	-0.2473	 0.7145	 1.3629	 2.0773	-0.6484	 0.2757	 0.8611	 1.1368	-0.5855	59.4963	99.9564	
   918	 0.7701	 1.6890	 2.4591	-0.9189	 0.2493	 1.5347	 1.7839	-1.2853	-0.0480	 0.9256	 0.8776	-0.9736	59.8228	99.9511	
   919	 0.9524	 1.7125	 2.6648	-0.7600	 0.2183	 1.5526	 1.7708	-1.3343	-0.1499	 1.0266	 0.8767	-1.1766	58.9493	99.9612	
   920	 0.9307	 1.7280	 2.6587	-0.7973	 0.2368	 1.5393	 1.7760	-1.3025	-0.1004	 1.0023	 0.9019	-1.1028	59.2367	99.9619	
   921	 0.9923	 1.6221	 2.6144	-0.6298	 0.3396	 1.4301	 1.7695	-1.0904	 0.0288	 0.8853	 0.9141	-0.8565	59.5667	99.9615	
   922	 1.0704	 1.5404	 2.6107	-0.4699	 0.4579	 1.3669	 1.8247	-0.9090	 0.2122	 0.8336	 1.0458	-0.6214	59.8346	99.9630	
   923	 1.1337	 1.4640	 2.5978	-0.3303	 0.6021	 1.3072	 1.9092	-0.7050	 0.4067	 0.7777	 1.1844	-0.3710	60.1816	99.9623	
   924	 1.1528	 1.4041	 2.5569	-0.2512	 0.6510	 1.2632	 1.9141	-0.6123	 0.4341	 0.7617	 1.1958	-0.3277	60.1112	99.9615	
   925	 1.1589	 1.3791	 2.5380	-0.2202	 0.6768	 1.2666	 1.9434	-0.5898	 0.4568	 0.7646	 1.2214	-0.3079	60.0798	99.9594	
   926	 1.1910	 1.4126	 2.6036	-0.2216	 0.7352	 1.2775	 2.0126	-0.5422	 0.5191	 0.7698	 1.2888	-0.2507	60.2408	99.9594	
   927	 1.2431	 1.4010	 2.6440	-0.1579	 0.8062	 1.2837	 2.0898	-0.4774	 0.6309	 0.7506	 1.3815	-0.1198	60.4491	99.9581	
   928	 1.3863	 1.4010	 2.7873	-0.0147	 0.9349	 1.2880	 2.2228	-0.3531	 0.7432	 0.7427	 1.4859	 0.0005	60.4878	99.9568	
   929	 1.4470	 1.4088	 2.8559	 0.0383	 0.9807	 1.3035	 2.2841	-0.3227	 0.7776	 0.7526	 1.5302	 0.0249	60.4473	99.9560	
   930	 1.5260	 1.4704	 2.9964	 0.0557	 1.0480	 1.3564	 2.4043	-0.3084	 0.8637	 0.7831	 1.6468	 0.0806	60.5671	99.9562	
   931	 1.5564	 1.3458	 2.9021	 0.2107	 1.0710	 1.1989	 2.2697	-0.1279	 0.8381	 0.7242	 1.5623	 0.1139	60.3292	99.9625	
   932	 1.2352	 1.1392	 2.3745	 0.0960	 0.7457	 1.0144	 1.7600	-0.2687	 0.4230	 0.6574	 1.0805	-0.2344	59.6033	99.9651	
   933	 1.6259	 1.6301	 3.2560	-0.0042	 1.2402	 1.5706	 2.8107	-0.3304	 1.2630	 1.0898	 2.3528	 0.1731	60.6982	99.9662	
   934	 2.2221	 1.7729	 3.9950	 0.4493	 1.7526	 1.5499	 3.3024	 0.2027	 1.5046	 0.9648	 2.4695	 0.5398	61.0108	99.9579	
   935	 1.9279	 1.6396	 3.5675	 0.2884	 1.3903	 1.5022	 2.8924	-0.1119	 1.2968	 0.8716	 2.1684	 0.4252	61.0140	99.9596	
   936	 1.8202	 1.4752	 3.2954	 0.3451	 1.3112	 1.3564	 2.6676	-0.0452	 1.1356	 0.8066	 1.9422	 0.3290	60.6195	99.9596	
   937	 1.7204	 1.4440	 3.1644	 0.2765	 1.3053	 1.3651	 2.6703	-0.0598	 1.1816	 0.8236	 2.0051	 0.3580	60.7652	99.9576	
   938	 1.7144	 1.4689	 3.1833	 0.2455	 1.3371	 1.3598	 2.6968	-0.0227	 1.2037	 0.8153	 2.0189	 0.3884	60.9206	99.9572	
   939	 1.7682	 1.4868	 3.2550	 0.2814	 1.3652	 1.4013	 2.7664	-0.0361	 1.2508	 0.8546	 2.1055	 0.3962	60.8486	99.9576	
   940	 1.9044	 1.4970	 3.4014	 0.4075	 1.4953	 1.4310	 2.9262	 0.0643	 1.4144	 0.8560	 2.2704	 0.5584	61.0132	99.9565	
   941	 2.0025	 1.4986	 3.5011	 0.5040	 1.6040	 1.4233	 3.0272	 0.1807	 1.4936	 0.8605	 2.3541	 0.6330	61.0148	99.9562	
   942	 2.0016	 1.4838	 3.4854	 0.5179	 1.5974	 1.4193	 3.0165	 0.1781	 1.4715	 0.8688	 2.3403	 0.6026	60.8982	99.9559	
   943	 1.9869	 1.4892	 3.4761	 0.4977	 1.5789	 1.4326	 3.0114	 0.1463	 1.4884	 0.8682	 2.3566	 0.6201	60.9796	99.9563	
   944	 2.0103	 1.5033	 3.5136	 0.5071	 1.6173	 1.4313	 3.0486	 0.1860	 1.5175	 0.8858	 2.4033	 0.6316	60.9827	99.9575	
   945	 1.9947	 1.4939	 3.4886	 0.5008	 1.6107	 1.4273	 3.0379	 0.1834	 1.5169	 0.8746	 2.3915	 0.6422	61.0225	99.9567	
   946	 2.0615	 1.4768	 3.5383	 0.5848	 1.7127	 1.4156	 3.1282	 0.2972	 1.6135	 0.8897	 2.5032	 0.7238	61.0350	99.9570	
   947	 2.1830	 1.4924	 3.6755	 0.6907	 1.8244	 1.4586	 3.2828	 0.3658	 1.7497	 0.9071	 2.6568	 0.8426	61.1204	99.9554	
   948	 2.2820	 1.5088	 3.7908	 0.7732	 1.8828	 1.4694	 3.3521	 0.4134	 1.7736	 0.9324	 2.7060	 0.8412	60.9602	99.9564	
   949	 2.2516	 1.5049	 3.7565	 0.7468	 1.8206	 1.5053	 3.3259	 0.3153	 1.7253	 0.9790	 2.7043	 0.7462	60.7330	99.9569	
   950	 2.1752	 1.4877	 3.6630	 0.6875	 1.7504	 1.5118	 3.2621	 0.2386	 1.6536	 1.0116	 2.6653	 0.6420	60.5457	99.9572	
   951	 2.0780	 1.5010	 3.5790	 0.5771	 1.6920	 1.5010	 3.1929	 0.1910	 1.6082	 1.0059	 2.6141	 0.6024	60.6634	99.9581	
   952	 2.0858	 1.5056	 3.5915	 0.5803	 1.7378	 1.5165	 3.2542	 0.2214	 1.7049	 1.0209	 2.7258	 0.6839	60.8350	99.9587	
   953	 2.2750	 1.5189	 3.7940	 0.7562	 1.9123	 1.5363	 3.4485	 0.3761	 1.8743	 1.0258	 2.9001	 0.8484	60.9156	99.9576	
   954	 2.3948	 1.5050	 3.8998	 0.8899	 2.0070	 1.5078	 3.5147	 0.4992	 1.9680	 0.9849	 2.9530	 0.9831	61.0263	99.9583	
   955	 2.3774	 1.4660	 3.8434	 0.9115	 2.0040	 1.4570	 3.4610	 0.5470	 1.9482	 0.9296	 2.8778	 1.0186	61.0976	99.9573	
   956	 2.3445	 1.4177	 3.7621	 0.9268	 1.9752	 1.4029	 3.3780	 0.5724	 1.9116	 0.8748	 2.7864	 1.0367	61.1311	99.9570	
   957	 2.2889	 1.3702	 3.6591	 0.9188	 1.9457	 1.3360	 3.2816	 0.6097	 1.8703	 0.8390	 2.7093	 1.0313	61.1311	99.9587	
   958	 2.2568	 1.3367	 3.5934	 0.9202	 1.9316	 1.3153	 3.2468	 0.6164	 1.8965	 0.8006	 2.6971	 1.0958	61.2905	99.9581	
   959	 2.3696	 1.3328	 3.7024	 1.0369	 2.0596	 1.3069	 3.3664	 0.7526	 2.0205	 0.7997	 2.8202	 1.2207	61.3736	99.9583	
   960	 2.4373	 1.3305	 3.7678	 1.1069	 2.1172	 1.3051	 3.4222	 0.8122	 2.0816	 0.7825	 2.8641	 1.2991	61.4494	99.9577	
   961	 2.4364	 1.3157	 3.7521	 1.1208	 2.1039	 1.2970	 3.4008	 0.8069	 2.0642	 0.7719	 2.8361	 1.2922	61.4086	99.9574	
   962	 2.4139	 1.3165	 3.7303	 1.0975	 2.0965	 1.2803	 3.3767	 0.8162	 2.0356	 0.7655	 2.8011	 1.2701	61.4058	99.9575	
   963	 2.4130	 1.3017	 3.7147	 1.1114	 2.0825	 1.2596	 3.3420	 0.8229	 2.0228	 0.7361	 2.7589	 1.2868	61.4395	99.9576	
   964	 2.3974	 1.2923	 3.6897	 1.1051	 2.0618	 1.2348	 3.2965	 0.8270	 1.9996	 0.7220	 2.7215	 1.2776	61.4367	99.9591	
   965	 2.4946	 1.2791	 3.7737	 1.2155	 2.1705	 1.2271	 3.3975	 0.9434	 2.1119	 0.7140	 2.8259	 1.3979	61.5197	99.9587	
   966	 2.5927	 1.2807	 3.8733	 1.3120	 2.2348	 1.2292	 3.4640	 1.0056	 2.1736	 0.7080	 2.8816	 1.4656	61.5169	99.9591	
   967	 2.5909	 1.2511	 3.8420	 1.3399	 2.2075	 1.2005	 3.4078	 1.0070	 2.1381	 0.6757	 2.8138	 1.4625	61.4719	99.9592	
   968	 2.5597	 1.2324	 3.7920	 1.3273	 2.1868	 1.1757	 3.3624	 1.0111	 2.1253	 0.6462	 2.7715	 1.4791	61.5480	99.9592	
   969	 2.5362	 1.2183	 3.7546	 1.3179	 2.1668	 1.1636	 3.3304	 1.0032	 2.1020	 0.6321	 2.7342	 1.4699	61.5466	99.9587	
   970	 2.5510	 1.2129	 3.7639	 1.3381	 2.1787	 1.1463	 3.3249	 1.0324	 2.1061	 0.6020	 2.7082	 1.5041	61.6186	99.9581	
   971	 2.5735	 1.2121	 3.7857	 1.3615	 2.2105	 1.1410	 3.3514	 1.0694	 2.1568	 0.6002	 2.7569	 1.5566	61.7002	99.9592	
   972	 2.6629	 1.1942	 3.8572	 1.4688	 2.3051	 1.1126	 3.4176	 1.1926	 2.2459	 0.5781	 2.8240	 1.6677	61.7789	99.9597	
   973	 2.6534	 1.1600	 3.8133	 1.4935	 2.2844	 1.0878	 3.3721	 1.1966	 2.2045	 0.5423	 2.7468	 1.6622	61.7342	99.9579	
   974	 2.5761	 1.1280	 3.7041	 1.4482	 2.2245	 1.0516	 3.2760	 1.1730	 2.1522	 0.5106	 2.6627	 1.6416	61.7723	99.9582	
   975	 2.5596	 1.1038	 3.6635	 1.4558	 2.2105	 1.0308	 3.2412	 1.1797	 2.1452	 0.4847	 2.6298	 1.6605	61.8104	99.9579	
   976	 2.5371	 1.1046	 3.6417	 1.4325	 2.1846	 1.0274	 3.2120	 1.1572	 2.1271	 0.4629	 2.5900	 1.6642	61.8840	99.9573	
   977	 2.5206	 1.0805	 3.6010	 1.4402	 2.1639	 1.0027	 3.1665	 1.1613	 2.1097	 0.4523	 2.5620	 1.6573	61.8459	99.9585	
   978	 2.6048	 1.1023	 3.7071	 1.5025	 2.2482	 1.0169	 3.2650	 1.2313	 2.2116	 0.4597	 2.6713	 1.7518	61.9653	99.9593	
   979	 2.6647	 1.0953	 3.7600	 1.5694	 2.2859	 1.0030	 3.2888	 1.2830	 2.2104	 0.4373	 2.6477	 1.7730	61.9183	99.9580	
