OxySoft export of:	C:\Users\TO3 TechSupport\Documents\Train2Adapt\Post_tests\T2A_57_POST_NIRS
Export date:	2022/12/16 17:49:47
Start of measurement:	2022-12-16 08:25:43.704

Datafile sample rate:	10.00	Hz
Datafile duration:	3009.900	s
Datafile total number of samples:	30099

Description:	

Optode-template:	PortaMon TSI Fit Factor
Optode distance (mm):	 35.00
Optode gradients (mm):	 5.00
DPF:	6.58

Device id:	291
# Receivers:	1
# Light sources:	6
# ADC:	2

Light source wavelengths:
device	index	wavelength
1	1	847	nm
1	2	761	nm
1	3	848	nm
1	4	761	nm
1	5	848	nm
1	6	762	nm

Export sample rate:	10.00	Hz
Selected time span:	0	3009.900
Selected time span (sample numbers):	0	30099


Legend:
Column	Trace (Measurement)
1	(Sample number)
2	Rx1-Tx1 O2Hb (T2A_57_POST_NIRS)
3	Rx1-Tx1 HHb (T2A_57_POST_NIRS)
4	Rx1-Tx1 tHb (T2A_57_POST_NIRS)
5	Rx1-Tx1 HbDiff (T2A_57_POST_NIRS)
6	Rx1-Tx2 O2Hb (T2A_57_POST_NIRS)
7	Rx1-Tx2 HHb (T2A_57_POST_NIRS)
8	Rx1-Tx2 tHb (T2A_57_POST_NIRS)
9	Rx1-Tx2 HbDiff (T2A_57_POST_NIRS)
10	Rx1-Tx3 O2Hb (T2A_57_POST_NIRS)
11	Rx1-Tx3 HHb (T2A_57_POST_NIRS)
12	Rx1-Tx3 tHb (T2A_57_POST_NIRS)
13	Rx1-Tx3 HbDiff (T2A_57_POST_NIRS)
14	Rx1-Tx1,Tx2,Tx3 TSI% (T2A_57_POST_NIRS)
15	Rx1-Tx1,Tx2,Tx3 TSI Fit Factor (T2A_57_POST_NIRS)
16	(Event)


1	2	3	4	5	6	7	8	9	10	11	12	13	14	15	16
     0	115.7053	56.2360	171.9413	59.4693	91.8034	42.5588	134.3622	49.2446	74.8193	37.7182	112.5374	37.1010	43.7250	98.5201	
     1	-0.6261	-0.4752	-1.1013	-0.1509	-0.6260	-0.5631	-1.1891	-0.0628	-0.6764	-0.7036	-1.3800	 0.0272	63.9003	99.9589	
     2	-0.3096	-0.6300	-0.9396	 0.3204	-0.4929	-0.8271	-1.3200	 0.3342	-0.7881	-0.6731	-1.4613	-0.1149	62.6276	99.9771	
     3	-0.4239	-0.7701	-1.1940	 0.3463	-0.3427	-1.2407	-1.5833	 0.8980	-1.0066	-1.1759	-2.1826	 0.1693	63.6922	99.9694	
     4	-0.2678	-0.8201	-1.0880	 0.5523	-0.5685	-1.1312	-1.6998	 0.5627	-0.8546	-0.9750	-1.8297	 0.1203	62.9450	99.9818	
     5	-0.2242	-0.8514	-1.0757	 0.6272	-0.8273	-0.4758	-1.3031	-0.3515	-0.4547	-0.5804	-1.0352	 0.1256	62.3477	99.9577	
     6	-0.3462	-0.4798	-0.8260	 0.1336	-0.1802	-0.8840	-1.0642	 0.7038	-0.6735	-0.6473	-1.3209	-0.0261	63.2434	99.9792	
     7	-0.3584	-0.3006	-0.6590	-0.0578	-0.4159	-0.1654	-0.5814	-0.2505	-0.3600	-0.5013	-0.8614	 0.1412	63.9135	99.9382	
     8	-0.4954	-0.6981	-1.1935	 0.2028	-0.7144	-0.5305	-1.2449	-0.1839	-0.6794	-0.4330	-1.1124	-0.2464	62.1984	99.9677	
     9	-0.5101	-0.3053	-0.8154	-0.2048	-0.4553	-0.1770	-0.6322	-0.2783	-0.4268	-0.2583	-0.6852	-0.1685	63.1880	99.9543	
    10	-0.4875	-0.4352	-0.9227	-0.0522	-0.4359	-0.3990	-0.8348	-0.0369	-0.4969	-0.4097	-0.9067	-0.0872	63.1750	99.9607	
    11	-0.4787	-0.2865	-0.7652	-0.1922	-0.4910	-0.1247	-0.6157	-0.3662	-0.3988	-0.1542	-0.5530	-0.2446	62.8988	99.9591	
    12	-0.5938	-0.3124	-0.9062	-0.2814	-0.5600	-0.2034	-0.7634	-0.3566	-0.4783	-0.1587	-0.6371	-0.3196	62.8637	99.9647	
    13	-0.6260	-0.2169	-0.8430	-0.4091	-0.5014	-0.0818	-0.5832	-0.4196	-0.2871	-0.0757	-0.3629	-0.2114	63.2929	99.9630	
    14	-0.3854	-0.1159	-0.5013	-0.2695	-0.3224	 0.0018	-0.3205	-0.3242	-0.1707	-0.0162	-0.1870	-0.1546	63.2119	99.9619	
    15	-0.4168	-0.1347	-0.5515	-0.2821	-0.3759	-0.0305	-0.4064	-0.3454	-0.1894	-0.0493	-0.2388	-0.1402	63.2847	99.9635	
    16	-0.2877	-0.1292	-0.4169	-0.1585	-0.2347	-0.0436	-0.2783	-0.1912	-0.0707	-0.0537	-0.1245	-0.0170	63.3599	99.9641	
    17	-0.1726	-0.1033	-0.2760	-0.0693	-0.1196	-0.0600	-0.1796	-0.0596	-0.0198	-0.0556	-0.0755	 0.0358	63.3551	99.9653	
    18	-0.0541	-0.0180	-0.0721	-0.0360	 0.0386	-0.0013	 0.0374	 0.0399	 0.1135	 0.0033	 0.1167	 0.1102	63.4695	99.9654	
    19	 0.0680	-0.0023	 0.0657	 0.0703	 0.0787	 0.0230	 0.1017	 0.0557	 0.1030	 0.0187	 0.1216	 0.0843	63.2387	99.9647	
    20	 0.0000	 0.0000	 0.0000	-0.0000	-0.0000	-0.0000	-0.0000	-0.0000	 0.0000	 0.0000	-0.0000	 0.0000	63.1949	99.9655	
    21	-0.1020	-0.0611	-0.1631	-0.0410	-0.1441	-0.0380	-0.1821	-0.1061	-0.1052	-0.0637	-0.1690	-0.0415	63.1906	99.9645	
    22	-0.2659	-0.1448	-0.4108	-0.1211	-0.3350	-0.1042	-0.4392	-0.2308	-0.2467	-0.1711	-0.4179	-0.0756	63.2969	99.9627	
    23	-0.3078	-0.2129	-0.5207	-0.0949	-0.3550	-0.2270	-0.5820	-0.1280	-0.3268	-0.2959	-0.6227	-0.0309	63.4359	99.9632	
    24	-0.2956	-0.2630	-0.5586	-0.0326	-0.3832	-0.2687	-0.6519	-0.1145	-0.3572	-0.3361	-0.6933	-0.0211	63.3573	99.9634	
    25	-0.3558	-0.2560	-0.6118	-0.0998	-0.4367	-0.3010	-0.7377	-0.1356	-0.4695	-0.3168	-0.7864	-0.1526	63.1646	99.9666	
    26	-0.3784	-0.2552	-0.6336	-0.1232	-0.4619	-0.2917	-0.7536	-0.1702	-0.4987	-0.3345	-0.8333	-0.1642	63.1994	99.9647	
    27	-0.4779	-0.4008	-0.8786	-0.0771	-0.6401	-0.4733	-1.1134	-0.1668	-0.7238	-0.5252	-1.2491	-0.1985	63.1398	99.9656	
    28	-0.7734	-0.5347	-1.3081	-0.2387	-0.9290	-0.5619	-1.4909	-0.3671	-0.9320	-0.6076	-1.5397	-0.3243	63.1048	99.9656	
    29	-0.8118	-0.5433	-1.3551	-0.2685	-0.9424	-0.5700	-1.5124	-0.3724	-0.9203	-0.6006	-1.5209	-0.3197	63.1478	99.9666	
    30	-0.7220	-0.5613	-1.2833	-0.1607	-0.8740	-0.6148	-1.4888	-0.2593	-0.8729	-0.6700	-1.5429	-0.2029	63.2923	99.9661	
    31	-0.6706	-0.5879	-1.2584	-0.0827	-0.8421	-0.6200	-1.4621	-0.2221	-0.8395	-0.6825	-1.5221	-0.1571	63.2546	99.9652	
    32	-0.6558	-0.5933	-1.2491	-0.0624	-0.8168	-0.6294	-1.4462	-0.1875	-0.8214	-0.6606	-1.4821	-0.1608	63.1819	99.9668	
    33	-0.5790	-0.5761	-1.1551	-0.0029	-0.7277	-0.6493	-1.3770	-0.0784	-0.7775	-0.6885	-1.4662	-0.0890	63.2906	99.9668	
    34	-0.5136	-0.6230	-1.1367	 0.1094	-0.7113	-0.7009	-1.4122	-0.0104	-0.7880	-0.7821	-1.5702	-0.0060	63.3561	99.9647	
    35	-0.5093	-0.6778	-1.1871	 0.1685	-0.6957	-0.7653	-1.4610	 0.0695	-0.7751	-0.8615	-1.6367	 0.0863	63.5060	99.9640	
    36	-0.3288	-0.6989	-1.0277	 0.3701	-0.5442	-0.8212	-1.3654	 0.2771	-0.6552	-0.9523	-1.6077	 0.2971	63.7276	99.9631	
    37	-0.1501	-0.7497	-0.8998	 0.5996	-0.4446	-0.8840	-1.3286	 0.4394	-0.6564	-0.9748	-1.6313	 0.3185	63.3733	99.9650	
    38	-0.2094	-0.7278	-0.9372	 0.5184	-0.4610	-0.8324	-1.2934	 0.3714	-0.6108	-0.9690	-1.5799	 0.3583	63.6098	99.9617	
    39	-0.2408	-0.7466	-0.9874	 0.5058	-0.4825	-0.8700	-1.3525	 0.3875	-0.6441	-0.9565	-1.6007	 0.3124	63.4965	99.9651	
    40	-0.1937	-0.7184	-0.9121	 0.5247	-0.4424	-0.8458	-1.2882	 0.4034	-0.5774	-0.9815	-1.5591	 0.4041	63.7247	99.9630	
    41	-0.2504	-0.7810	-1.0314	 0.5307	-0.5055	-0.9331	-1.4386	 0.4277	-0.6540	-1.0388	-1.6929	 0.3848	63.6829	99.9656	
    42	-0.2425	-0.7763	-1.0188	 0.5338	-0.4951	-0.8654	-1.3605	 0.3702	-0.6219	-0.9649	-1.5868	 0.3430	63.4997	99.9638	
    43	-0.1431	-0.7598	-0.9030	 0.6167	-0.4431	-0.8585	-1.3016	 0.4154	-0.5786	-1.0040	-1.5827	 0.4255	63.6075	99.9620	
    44	-0.1205	-0.7606	-0.8811	 0.6402	-0.4334	-0.9142	-1.3476	 0.4807	-0.6529	-1.0163	-1.6693	 0.3634	63.4455	99.9652	
    45	-0.1972	-0.7779	-0.9750	 0.5807	-0.5048	-0.9204	-1.4251	 0.4156	-0.7201	-1.0025	-1.7227	 0.2824	63.3317	99.9659	
    46	-0.2181	-0.7474	-0.9655	 0.5293	-0.5330	-0.8514	-1.3844	 0.3184	-0.6897	-0.9623	-1.6521	 0.2726	63.3758	99.9640	
    47	-0.2390	-0.7168	-0.9559	 0.4778	-0.4974	-0.7929	-1.2903	 0.2955	-0.6067	-0.8903	-1.4971	 0.2836	63.4270	99.9639	
    48	-0.1980	-0.6636	-0.8617	 0.4656	-0.4484	-0.7264	-1.1747	 0.2780	-0.5518	-0.8134	-1.3653	 0.2617	63.3561	99.9640	
    49	-0.2041	-0.6386	-0.8427	 0.4345	-0.3956	-0.7068	-1.1024	 0.3111	-0.4991	-0.7816	-1.2808	 0.2825	63.4383	99.9641	
    50	-0.1658	-0.6300	-0.7957	 0.4642	-0.3496	-0.6912	-1.0408	 0.3416	-0.4635	-0.7491	-1.2127	 0.2856	63.3653	99.9645	
    51	-0.1509	-0.6354	-0.7864	 0.4845	-0.3749	-0.6819	-1.0568	 0.3071	-0.4746	-0.7449	-1.2196	 0.2704	63.2881	99.9645	
    52	-0.1640	-0.6002	-0.7642	 0.4362	-0.3734	-0.6564	-1.0298	 0.2830	-0.4845	-0.7183	-1.2029	 0.2337	63.2881	99.9645	
    53	-0.1483	-0.5908	-0.7392	 0.4425	-0.3838	-0.6135	-0.9973	 0.2297	-0.4652	-0.6739	-1.1392	 0.2087	63.1784	99.9643	
    54	-0.1379	-0.5415	-0.6794	 0.4037	-0.3370	-0.5852	-0.9222	 0.2482	-0.4232	-0.6266	-1.0499	 0.2035	63.2204	99.9656	
    55	-0.1745	-0.5204	-0.6949	 0.3460	-0.3601	-0.5376	-0.8977	 0.1776	-0.4150	-0.5781	-0.9932	 0.1631	63.1889	99.9651	
    56	-0.1361	-0.5118	-0.6479	 0.3757	-0.3207	-0.5261	-0.8468	 0.2054	-0.3588	-0.5877	-0.9466	 0.2289	63.3033	99.9641	
    57	-0.1440	-0.5165	-0.6604	 0.3725	-0.3348	-0.5470	-0.8818	 0.2122	-0.3992	-0.6012	-1.0005	 0.2020	63.2615	99.9647	
    58	-0.2521	-0.5525	-0.8046	 0.3005	-0.4781	-0.5722	-1.0503	 0.0940	-0.5688	-0.5949	-1.1638	 0.0261	62.9531	99.9660	
    59	-0.3802	-0.5432	-0.9234	 0.1629	-0.5628	-0.5865	-1.1493	 0.0236	-0.6325	-0.6226	-1.2552	-0.0099	63.1425	99.9659	
    60	-0.4168	-0.5221	-0.9389	 0.1052	-0.6007	-0.5725	-1.1732	-0.0282	-0.6436	-0.6184	-1.2621	-0.0252	63.2187	99.9662	
    61	-0.4238	-0.5119	-0.9357	 0.0881	-0.6111	-0.5296	-1.1407	-0.0816	-0.6419	-0.5847	-1.2266	-0.0572	63.1460	99.9647	
    62	-0.3846	-0.4884	-0.8730	 0.1038	-0.5770	-0.4966	-1.0736	-0.0804	-0.5887	-0.5416	-1.1303	-0.0471	63.1129	99.9654	
    63	-0.2991	-0.4516	-0.7507	 0.1525	-0.4589	-0.4621	-0.9210	 0.0032	-0.4571	-0.5164	-0.9736	 0.0593	63.2700	99.9648	
    64	-0.2294	-0.4242	-0.6536	 0.1948	-0.3995	-0.4384	-0.8379	 0.0390	-0.4045	-0.4846	-0.8892	 0.0801	63.2334	99.9655	
    65	-0.1683	-0.4163	-0.5847	 0.2480	-0.3341	-0.4235	-0.7576	 0.0894	-0.3747	-0.4556	-0.8304	 0.0810	63.1209	99.9652	
    66	-0.1596	-0.3968	-0.5564	 0.2372	-0.3579	-0.3887	-0.7466	 0.0308	-0.4074	-0.4319	-0.8394	 0.0244	63.0048	99.9643	
    67	-0.2573	-0.3835	-0.6408	 0.1262	-0.4196	-0.3399	-0.7594	-0.0797	-0.4355	-0.3181	-0.7537	-0.1174	62.7562	99.9667	
    68	-0.3375	-0.3311	-0.6686	-0.0064	-0.4226	-0.2802	-0.7027	-0.1424	-0.4040	-0.2554	-0.6595	-0.1486	62.8808	99.9663	
    69	-0.2747	-0.2935	-0.5682	 0.0188	-0.3446	-0.2699	-0.6145	-0.0746	-0.3373	-0.2804	-0.6178	-0.0569	63.1023	99.9649	
    70	-0.2084	-0.3256	-0.5340	 0.1172	-0.3334	-0.3001	-0.6335	-0.0333	-0.3344	-0.3331	-0.6676	-0.0012	63.0952	99.9642	
    71	-0.3026	-0.3819	-0.6846	 0.0794	-0.4084	-0.3700	-0.7784	-0.0384	-0.4291	-0.4123	-0.8414	-0.0168	63.1646	99.9634	
    72	-0.4099	-0.4031	-0.8130	-0.0067	-0.4611	-0.3896	-0.8508	-0.0715	-0.4624	-0.3997	-0.8623	-0.0627	63.1716	99.9648	
    73	-0.4160	-0.3781	-0.7940	-0.0379	-0.4834	-0.3293	-0.8128	-0.1541	-0.4659	-0.3583	-0.8243	-0.1076	63.0987	99.9629	
    74	-0.3854	-0.3742	-0.7596	-0.0113	-0.4716	-0.3467	-0.8183	-0.1248	-0.4958	-0.3872	-0.8831	-0.1085	63.0907	99.9625	
    75	-0.4151	-0.3632	-0.7783	-0.0519	-0.4953	-0.3119	-0.8072	-0.1834	-0.4882	-0.3499	-0.8382	-0.1382	63.0587	99.9622	
    76	-0.3689	-0.3499	-0.7188	-0.0190	-0.4114	-0.3103	-0.7217	-0.1011	-0.4361	-0.3293	-0.7656	-0.1068	63.0614	99.9626	
    77	-0.3017	-0.3671	-0.6688	 0.0654	-0.3742	-0.3371	-0.7113	-0.0372	-0.4285	-0.4010	-0.8296	-0.0275	63.1646	99.9600	
    78	-0.3889	-0.4336	-0.8226	 0.0447	-0.4841	-0.4528	-0.9369	-0.0314	-0.5589	-0.5126	-1.0716	-0.0463	63.2282	99.9622	
    79	-0.4264	-0.4274	-0.8538	 0.0010	-0.5347	-0.4341	-0.9688	-0.1006	-0.5922	-0.5001	-1.0924	-0.0921	63.1907	99.9619	
    80	-0.4186	-0.4227	-0.8413	 0.0041	-0.5146	-0.4220	-0.9366	-0.0926	-0.5723	-0.4445	-1.0169	-0.1279	63.0460	99.9640	
    81	-0.3697	-0.3648	-0.7345	-0.0050	-0.4716	-0.3467	-0.8183	-0.1248	-0.5186	-0.3901	-0.9088	-0.1284	63.0487	99.9624	
    82	-0.3741	-0.3100	-0.6841	-0.0641	-0.4493	-0.2964	-0.7456	-0.1529	-0.4882	-0.3499	-0.8382	-0.1382	63.1272	99.9618	
    83	-0.2511	-0.2794	-0.5306	 0.0283	-0.3312	-0.2618	-0.5930	-0.0694	-0.3800	-0.3390	-0.7190	-0.0410	63.2028	99.9600	
    84	-0.2076	-0.3107	-0.5183	 0.1032	-0.3178	-0.3644	-0.6822	 0.0467	-0.4150	-0.4691	-0.8843	 0.0541	63.4135	99.9607	
    85	-0.2991	-0.4516	-0.7507	 0.1525	-0.5012	-0.5246	-1.0258	 0.0234	-0.6226	-0.6492	-1.2719	 0.0267	63.3570	99.9611	
    86	-0.3898	-0.4485	-0.8383	 0.0587	-0.5896	-0.4919	-1.0815	-0.0977	-0.6799	-0.5532	-1.2332	-0.1267	63.0625	99.9643	
    87	-0.4377	-0.3624	-0.8002	-0.0753	-0.5882	-0.3557	-0.9439	-0.2324	-0.6601	-0.3886	-1.0488	-0.2715	62.8508	99.9636	
    88	-0.4281	-0.3280	-0.7561	-0.1001	-0.5614	-0.3396	-0.9010	-0.2219	-0.6268	-0.4011	-1.0280	-0.2256	63.0386	99.9626	
    89	-0.4186	-0.2936	-0.7121	-0.1250	-0.5340	-0.3107	-0.8446	-0.2233	-0.5747	-0.3805	-0.9553	-0.1942	63.1558	99.9626	
    90	-0.3409	-0.2615	-0.6024	-0.0795	-0.4226	-0.2802	-0.7027	-0.1424	-0.4583	-0.3210	-0.7795	-0.1373	63.1646	99.9641	
    91	-0.3008	-0.2231	-0.5239	-0.0777	-0.3802	-0.2177	-0.5979	-0.1626	-0.4046	-0.2667	-0.6713	-0.1379	63.1316	99.9628	
    92	-0.3549	-0.2411	-0.5960	-0.1138	-0.4449	-0.2199	-0.6647	-0.2250	-0.4677	-0.2831	-0.7509	-0.1846	63.0916	99.9615	
    93	-0.4307	-0.2435	-0.6742	-0.1873	-0.4976	-0.2395	-0.7370	-0.2581	-0.5239	-0.2735	-0.7974	-0.2504	63.0551	99.9635	
    94	-0.4299	-0.2286	-0.6585	-0.2012	-0.5229	-0.2301	-0.7530	-0.2927	-0.5584	-0.2835	-0.8419	-0.2749	63.0496	99.9628	
    95	-0.5005	-0.2709	-0.7714	-0.2296	-0.5964	-0.2746	-0.8710	-0.3218	-0.6777	-0.2903	-0.9680	-0.3874	62.8192	99.9640	
    96	-0.5607	-0.2639	-0.8245	-0.2968	-0.6209	-0.2525	-0.8734	-0.3684	-0.6759	-0.2565	-0.9325	-0.4194	62.8270	99.9642	
    97	-0.4543	-0.2576	-0.7119	-0.1967	-0.5488	-0.2335	-0.7824	-0.3153	-0.6092	-0.2816	-0.8909	-0.3277	62.8980	99.9614	
    98	-0.4857	-0.2764	-0.7621	-0.2093	-0.6209	-0.2525	-0.8734	-0.3684	-0.6777	-0.2903	-0.9680	-0.3874	62.7807	99.9628	
    99	-0.5999	-0.2874	-0.8873	-0.3125	-0.7122	-0.2709	-0.9831	-0.4414	-0.7514	-0.2913	-1.0427	-0.4601	62.7827	99.9641	
   100	-0.6522	-0.2756	-0.9279	-0.3766	-0.7501	-0.2569	-1.0070	-0.4933	-0.8075	-0.2817	-1.0893	-0.5258	62.7432	99.9631	
   101	-0.6670	-0.2702	-0.9372	-0.3969	-0.7873	-0.2301	-1.0174	-0.5572	-0.8286	-0.2508	-1.0795	-0.5777	62.6318	99.9632	
   102	-0.7089	-0.2091	-0.9180	-0.4997	-0.8022	-0.1530	-0.9552	-0.6492	-0.8239	-0.1608	-0.9848	-0.6631	62.5653	99.9633	
   103	-0.6487	-0.0871	-0.7357	-0.5616	-0.6915	-0.0246	-0.7162	-0.6669	-0.6883	-0.0569	-0.7453	-0.6313	62.7269	99.9614	
   104	-0.5824	-0.1191	-0.7015	-0.4633	-0.6455	-0.1197	-0.7652	-0.5257	-0.7163	-0.1611	-0.8775	-0.5552	62.8231	99.9621	
   105	-0.6888	-0.2545	-0.9434	-0.4343	-0.8259	-0.2289	-1.0548	-0.5970	-0.8859	-0.2637	-1.1497	-0.6222	62.6245	99.9627	
   106	-0.8048	-0.2953	-1.1000	-0.5095	-0.9566	-0.2587	-1.2154	-0.6979	-1.0058	-0.2818	-1.2876	-0.7240	62.5086	99.9634	
   107	-0.8963	-0.3070	-1.2034	-0.5893	-1.0160	-0.2824	-1.2984	-0.7337	-1.1028	-0.2969	-1.3999	-0.8059	62.4666	99.9630	
   108	-0.9661	-0.3344	-1.3005	-0.6317	-1.1200	-0.2961	-1.4161	-0.8240	-1.1999	-0.3121	-1.5121	-0.8878	62.3481	99.9630	
   109	-1.0576	-0.3462	-1.4038	-0.7114	-1.2047	-0.3104	-1.5151	-0.8943	-1.2683	-0.3208	-1.5892	-0.9475	62.3481	99.9636	
   110	-1.0332	-0.3172	-1.3505	-0.7160	-1.1713	-0.2902	-1.4615	-0.8811	-1.2438	-0.2842	-1.5280	-0.9596	62.3127	99.9647	
   111	-1.0402	-0.3071	-1.3473	-0.7331	-1.2099	-0.2889	-1.4988	-0.9210	-1.2900	-0.3012	-1.5913	-0.9888	62.3047	99.9642	
   112	-1.0873	-0.3353	-1.4225	-0.7520	-1.2686	-0.2998	-1.5684	-0.9688	-1.3309	-0.3260	-1.6570	-1.0049	62.3035	99.9632	
   113	-1.0620	-0.2914	-1.3534	-0.7706	-1.2107	-0.3017	-1.5123	-0.9090	-1.3239	-0.3000	-1.6240	-1.0239	62.3012	99.9651	
   114	-1.0332	-0.3172	-1.3505	-0.7160	-1.2552	-0.2917	-1.5469	-0.9635	-1.3531	-0.3176	-1.6709	-1.0355	62.1808	99.9635	
   115	-1.0916	-0.2805	-1.3721	-0.8111	-1.2983	-0.2563	-1.5546	-1.0420	-1.3783	-0.2566	-1.6350	-1.1217	62.1111	99.9652	
   116	-1.0785	-0.1866	-1.2651	-0.8920	-1.2092	-0.1655	-1.3747	-1.0437	-1.2608	-0.1746	-1.4355	-1.0862	62.3161	99.9644	
   117	-0.8553	-0.1247	-0.9800	-0.7306	-1.0503	-0.0940	-1.1442	-0.9563	-1.1111	-0.1276	-1.2387	-0.9835	62.2762	99.9634	
   118	-0.7777	-0.0926	-0.8703	-0.6851	-0.9909	-0.0703	-1.0612	-0.9206	-1.1029	-0.0790	-1.1820	-1.0239	62.0831	99.9644	
   119	-0.7995	-0.0769	-0.8765	-0.7226	-1.0280	-0.0436	-1.0716	-0.9844	-1.1316	-0.0855	-1.2171	-1.0461	62.1172	99.9624	
   120	-0.8518	-0.0652	-0.9170	-0.7866	-1.0808	-0.0632	-1.1439	-1.0176	-1.2076	-0.1315	-1.3392	-1.0761	62.2198	99.9615	
   121	-0.8745	-0.0644	-0.9389	-0.8100	-1.1290	-0.1170	-1.2460	-1.0121	-1.3035	-0.2331	-1.5366	-1.0704	62.3887	99.9601	
   122	-0.7891	-0.1567	-0.9458	-0.6323	-1.1446	-0.2740	-1.4185	-0.8706	-1.3993	-0.4437	-1.8431	-0.9556	62.5069	99.9592	
   123	-0.7376	-0.1833	-0.9210	-0.5543	-1.1074	-0.3007	-1.4081	-0.8067	-1.3320	-0.4574	-1.7896	-0.8746	62.5497	99.9610	
   124	-0.7777	-0.2217	-0.9994	-0.5560	-1.1423	-0.3464	-1.4887	-0.7959	-1.3104	-0.4770	-1.7875	-0.8333	62.6339	99.9640	
   125	-0.8519	-0.1943	-1.0462	-0.6575	-1.1423	-0.3464	-1.4887	-0.7959	-1.2531	-0.4642	-1.7173	-0.7889	62.9146	99.9660	
   126	-0.7586	-0.1528	-0.9114	-0.6057	-1.0688	-0.3020	-1.3708	-0.7668	-1.2080	-0.4696	-1.6777	-0.7385	62.9852	99.9627	
   127	-1.0524	-0.3861	-1.4385	-0.6663	-1.4030	-0.5041	-1.9071	-0.8989	-1.5431	-0.5961	-2.1393	-0.9470	62.5540	99.9662	
   128	-1.1640	-0.3525	-1.5165	-0.8115	-1.5040	-0.4668	-1.9708	-1.0372	-1.7098	-0.5335	-2.2434	-1.1763	62.2393	99.9660	
   129	-1.7028	-0.3738	-2.0766	-1.3290	-1.9809	-0.4600	-2.4408	-1.5209	-2.0671	-0.5427	-2.6099	-1.5244	62.3230	99.9653	
   130	-1.7160	-0.7259	-2.4419	-0.9900	-2.1990	-0.9979	-3.1969	-1.2012	-2.5558	-1.2308	-3.7867	-1.3250	62.6848	99.9608	
   131	-2.1066	-0.8020	-2.9086	-1.3046	-2.4427	-0.8623	-3.3051	-1.5804	-2.5390	-0.9045	-3.4436	-1.6344	62.0633	99.9669	
   132	-1.6889	-0.3941	-2.0830	-1.2947	-1.8561	-0.4214	-2.2775	-1.4347	-1.8420	-0.4609	-2.3030	-1.3811	62.4759	99.9660	
   133	-1.3078	-0.2234	-1.5313	-1.0844	-1.5070	-0.2964	-1.8034	-1.2106	-1.5970	-0.4325	-2.0296	-1.1644	62.7281	99.9606	
   134	-1.3262	-0.2774	-1.6036	-1.0487	-1.5865	-0.3322	-1.9187	-1.2543	-1.6432	-0.4496	-2.0929	-1.1936	62.5736	99.9626	
   135	-1.2486	-0.2453	-1.4939	-1.0032	-1.5204	-0.3045	-1.8249	-1.2159	-1.5958	-0.4100	-2.0059	-1.1858	62.4974	99.9633	
   136	-1.1317	-0.1897	-1.3214	-0.9420	-1.3704	-0.2752	-1.6456	-1.0951	-1.4520	-0.3666	-1.8186	-1.0854	62.6191	99.9647	
   137	-1.1108	-0.2202	-1.3310	-0.8906	-1.3971	-0.2914	-1.6885	-1.1057	-1.4976	-0.3724	-1.8700	-1.1252	62.4223	99.9650	
   138	-1.1718	-0.2281	-1.3999	-0.9437	-1.4959	-0.3266	-1.8224	-1.1693	-1.6432	-0.4496	-2.0929	-1.1936	62.4402	99.9631	
   139	-1.5633	-0.4481	-2.0114	-1.1152	-1.9481	-0.5632	-2.5113	-1.3850	-2.1285	-0.7433	-2.8719	-1.3852	62.4402	99.9602	
   140	-1.8258	-0.7917	-2.6175	-1.0341	-2.1486	-0.9059	-3.0544	-1.2427	-2.3097	-1.0709	-3.3807	-1.2387	62.7069	99.9604	
   141	-2.0360	-1.0179	-3.0539	-1.0181	-2.3587	-1.0822	-3.4409	-1.2766	-2.5401	-1.1450	-3.6851	-1.3951	62.2020	99.9639	
   142	-2.0081	-0.9295	-2.9376	-1.0786	-2.2993	-0.9478	-3.2472	-1.3515	-2.4494	-1.0356	-3.4852	-1.4138	62.2165	99.9608	
   143	-1.9191	-0.8332	-2.7523	-1.0859	-2.2489	-0.8558	-3.1047	-1.3931	-2.4389	-0.9421	-3.3811	-1.4968	62.0171	99.9608	
   144	-1.9462	-0.7777	-2.7238	-1.1685	-2.2905	-0.7949	-3.0853	-1.4956	-2.4910	-0.8537	-3.3449	-1.6373	61.7852	99.9622	
   145	-1.8999	-0.6352	-2.5351	-1.2647	-2.2051	-0.6571	-2.8622	-1.5480	-2.4209	-0.7023	-3.1233	-1.7186	61.7188	99.9624	
   146	-1.8790	-0.5366	-2.4156	-1.3424	-2.1859	-0.5470	-2.7329	-1.6388	-2.3829	-0.6248	-3.0079	-1.7581	61.7613	99.9604	
   147	-1.8301	-0.4787	-2.3088	-1.3514	-2.1681	-0.4625	-2.6305	-1.7056	-2.3490	-0.5172	-2.8663	-1.8319	61.5373	99.9616	
   148	-1.7517	-0.4317	-2.1834	-1.3199	-2.0901	-0.4522	-2.5423	-1.6379	-2.3397	-0.5551	-2.8948	-1.7846	61.6747	99.9585	
   149	-1.8293	-0.4638	-2.2931	-1.3654	-2.1510	-0.5013	-2.6523	-1.6496	-2.4262	-0.5857	-3.0120	-1.8405	61.6306	99.9594	
   150	-1.9653	-0.4592	-2.4245	-1.5061	-2.2401	-0.4814	-2.7215	-1.7587	-2.4712	-0.5802	-3.0516	-1.8910	61.7560	99.9581	
   151	-2.0115	-0.4725	-2.4840	-1.5390	-2.2037	-0.4102	-2.6140	-1.7935	-2.3233	-0.4580	-2.7814	-1.8653	61.7235	99.9591	
   152	-1.7490	-0.3871	-2.1362	-1.3619	-2.0091	-0.3909	-2.4001	-1.6182	-2.2771	-0.4409	-2.7182	-1.8362	61.5401	99.9594	
   153	-2.2321	-0.4898	-2.7219	-1.7423	-2.5372	-0.4889	-3.0261	-2.0483	-2.6952	-0.5305	-3.2259	-2.1647	61.4518	99.9628	
   154	-2.9183	-0.5706	-3.4889	-2.3476	-3.2020	-0.6080	-3.8100	-2.5940	-3.5169	-0.6464	-4.1634	-2.8705	60.9224	99.9602	
   155	-3.8520	-0.3549	-4.2069	-3.4970	-4.2524	-0.2592	-4.5116	-3.9932	-4.7546	-0.1531	-4.9077	-4.6015	58.4949	99.9603	
   156	-4.4665	 0.2670	-4.1996	-4.7335	-4.7236	 0.4031	-4.3205	-5.1267	-5.0928	 0.4269	-4.6660	-5.5196	58.4349	99.9537	
   157	-4.5842	 0.4547	-4.1295	-5.0389	-4.8017	 0.5035	-4.2982	-5.3052	-5.1478	 0.4590	-4.6889	-5.6067	58.8926	99.9530	
   158	-4.5119	 0.3976	-4.1142	-4.9095	-4.7021	 0.4407	-4.2614	-5.1428	-5.0261	 0.4018	-4.6244	-5.4279	59.1037	99.9538	
   159	-4.3593	 0.2881	-4.0712	-4.6474	-4.5936	 0.3095	-4.2841	-4.9031	-4.9758	 0.2797	-4.6961	-5.2555	59.0795	99.9547	
   160	-4.2538	 0.1504	-4.1034	-4.4043	-4.5252	 0.1540	-4.3712	-4.6792	-4.9915	 0.0850	-4.9066	-5.0764	59.1556	99.9508	
   161	-4.2129	-0.0546	-4.2675	-4.1583	-4.5184	-0.0633	-4.5817	-4.4551	-5.0879	-0.1369	-5.2249	-4.9510	59.0694	99.9482	
   162	-4.2496	-0.2917	-4.5412	-3.9579	-4.6104	-0.3158	-4.9262	-4.2946	-5.2089	-0.3953	-5.6043	-4.8135	59.1087	99.9487	
   163	-4.5208	-0.6549	-5.1756	-3.8659	-4.9809	-0.8105	-5.7914	-4.1704	-5.7379	-0.9880	-6.7260	-4.7500	59.4060	99.9441	
   164	-5.5131	-1.3062	-6.8193	-4.2068	-6.0859	-1.6264	-7.7123	-4.4594	-7.0027	-1.7861	-8.7888	-5.2166	59.1623	99.9505	
   165	-6.2952	-1.4732	-7.7683	-4.8220	-6.8412	-1.7512	-8.5924	-5.0901	-7.6816	-1.7720	-9.4537	-5.9096	58.4065	99.9603	
   166	-6.6692	-1.1376	-7.8067	-5.5316	-7.2016	-1.4032	-8.6049	-5.7984	-7.8561	-1.3109	-9.1671	-6.5452	57.9436	99.9716	
   167	-7.1390	-0.7590	-7.8980	-6.3800	-7.4016	-0.9583	-8.3599	-6.4433	-7.9183	-0.7600	-8.6784	-7.1582	57.7699	99.9737	
   168	-6.7074	-0.3715	-7.0789	-6.3358	-6.9740	-0.4782	-7.4522	-6.4958	-7.4886	-0.2276	-7.7163	-7.2610	57.2140	99.9734	
   169	-6.3054	-0.3604	-6.6659	-5.9450	-6.6293	-0.4297	-7.0590	-6.1996	-7.0658	-0.2659	-7.3317	-6.7999	57.6873	99.9699	
   170	-5.2008	-0.5025	-5.7033	-4.6983	-5.7750	-0.7126	-6.4876	-5.0624	-6.3790	-0.6785	-7.0576	-5.7005	58.3865	99.9685	
   171	-5.1922	-0.9994	-6.1916	-4.1928	-5.7287	-1.3612	-7.0899	-4.3675	-6.3069	-1.3650	-7.6719	-4.9419	59.6536	99.9722	
   172	-4.5392	-1.2253	-5.7645	-3.3139	-4.8603	-1.4019	-6.2622	-3.4584	-5.0202	-1.3492	-6.3695	-3.6711	60.9539	99.9736	
   173	-3.3891	-0.9816	-4.3707	-2.4076	-3.9631	-1.2775	-5.2406	-2.6856	-4.3827	-1.5082	-5.8910	-2.8745	61.6289	99.9610	
   174	-3.4493	-1.1037	-4.5530	-2.3457	-3.9764	-1.3963	-5.3727	-2.5801	-4.4827	-1.5796	-6.0624	-2.9031	61.4194	99.9609	
   175	-3.3255	-1.0582	-4.3838	-2.2673	-3.8851	-1.2672	-5.1523	-2.6179	-4.2693	-1.3960	-5.6654	-2.8733	61.1796	99.9643	
   176	-3.0874	-0.7436	-3.8310	-2.3438	-3.5866	-0.9022	-4.4888	-2.6845	-3.8922	-1.0043	-4.8966	-2.8879	61.1189	99.9648	
   177	-2.8250	-0.5291	-3.3541	-2.2958	-3.3230	-0.6935	-4.0165	-2.6295	-3.5888	-0.8315	-4.4204	-2.7572	61.3383	99.9639	
   178	-2.7334	-0.5173	-3.2507	-2.2161	-3.2472	-0.7215	-3.9688	-2.5257	-3.5285	-0.8714	-4.4000	-2.6571	61.4888	99.9648	
   179	-2.8442	-0.5980	-3.4421	-2.2462	-3.3401	-0.7654	-4.1054	-2.5747	-3.5443	-0.8482	-4.3926	-2.6961	61.3533	99.9683	
   180	-2.8642	-0.4235	-3.2877	-2.4407	-3.2636	-0.5592	-3.8229	-2.7044	-3.3397	-0.6154	-3.9552	-2.7243	61.5220	99.9696	
   181	-2.6444	-0.1628	-2.8072	-2.4816	-3.1390	-0.2993	-3.4382	-2.8397	-3.3766	-0.3435	-3.7203	-3.0331	60.7921	99.9688	
   182	-2.7133	-0.1754	-2.8887	-2.5379	-3.0802	-0.3991	-3.4793	-2.6812	-3.2087	-0.7105	-3.9192	-2.4982	62.5496	99.9569	
   183	-3.5941	-1.1186	-4.7126	-2.4755	-4.5112	-1.3876	-5.8988	-3.1236	-5.2267	-1.3978	-6.6246	-3.8289	59.1403	99.9713	
   184	-4.7746	-0.9789	-5.7535	-3.7956	-5.3127	-1.4172	-6.7298	-3.8955	-5.7448	-1.4498	-7.1947	-4.2950	60.6382	99.9762	
   185	-3.7143	-0.7172	-4.4315	-2.9971	-4.0525	-0.4827	-4.5353	-3.5698	-3.9638	-0.4155	-4.3794	-3.5482	60.1118	99.9643	
   186	-2.3323	-0.2629	-2.5952	-2.0694	-2.9525	-0.3095	-3.2620	-2.6430	-3.0959	-0.3916	-3.4876	-2.7043	60.8054	99.9664	
   187	-2.5441	-0.1315	-2.6756	-2.4126	-2.8270	-0.3689	-3.1959	-2.4581	-3.3304	-0.3265	-3.6570	-3.0040	60.7463	99.9690	
   188	-2.6156	-0.0595	-2.6752	-2.5561	-3.0417	-0.0682	-3.1100	-2.9735	-3.0773	-0.0316	-3.1090	-3.0457	60.6482	99.9708	
   189	-2.2433	 0.3498	-1.8934	-2.5931	-2.5316	 0.3879	-2.1437	-2.9196	-2.5447	 0.4106	-2.1342	-2.9553	60.7938	99.9678	
   190	-2.2240	 0.5478	-1.6762	-2.7719	-2.3096	 0.6575	-1.6521	-2.9672	-2.2120	 0.7100	-1.5021	-2.9220	61.0243	99.9665	
   191	-2.0287	 0.5213	-1.5075	-2.5500	-2.2346	 0.5061	-1.7285	-2.7407	-2.3605	 0.4676	-1.8930	-2.8281	61.0930	99.9633	
   192	-2.2590	 0.3404	-1.9185	-2.5994	-2.5576	 0.2738	-2.2838	-2.8314	-2.7668	 0.1672	-2.5997	-2.9340	61.1051	99.9606	
   193	-2.6618	-0.0728	-2.7347	-2.5890	-3.0521	-0.1360	-3.1881	-2.9161	-3.2621	-0.2088	-3.4710	-3.0532	60.8657	99.9636	
   194	-2.7020	-0.1112	-2.8132	-2.5907	-3.0625	-0.0931	-3.1556	-2.9694	-3.1346	-0.0445	-3.1792	-3.0901	60.5764	99.9694	
   195	-2.2198	 0.1057	-2.1141	-2.3255	-2.6081	 0.2925	-2.3156	-2.9006	-2.7686	 0.3514	-2.4174	-3.1200	59.8087	99.9625	
   196	-2.1578	 0.3866	-1.7712	-2.5444	-2.4558	 0.3600	-2.0959	-2.8158	-2.5932	 0.2396	-2.3537	-2.8328	61.2048	99.9598	
   197	-2.3671	 0.1753	-2.1918	-2.5424	-2.7700	 0.1700	-2.6000	-2.9399	-2.8780	 0.2089	-2.6691	-3.0869	60.4681	99.9697	
   198	-2.4089	 0.3654	-2.0435	-2.7743	-2.6995	 0.3848	-2.3147	-3.0843	-2.8037	 0.3301	-2.4737	-3.1339	60.7930	99.9624	
   199	-2.3453	 0.4179	-1.9274	-2.7631	-2.7225	 0.4324	-2.2902	-3.1549	-2.9131	 0.4056	-2.5076	-3.3187	60.3057	99.9637	
   200	-2.6871	 0.1415	-2.5455	-2.8286	-3.1332	 0.1348	-2.9984	-3.2680	-3.4008	 0.0669	-3.3340	-3.4676	60.1964	99.9611	
   201	-3.4849	-0.0348	-3.5197	-3.4501	-3.8581	-0.0207	-3.8788	-3.8374	-4.0861	-0.0428	-4.1290	-4.0434	59.9069	99.9624	
   202	-4.3288	 0.1629	-4.1659	-4.4917	-4.6538	 0.2731	-4.3806	-4.9269	-4.9272	 0.3418	-4.5856	-5.2690	58.6077	99.9618	
   203	-4.8920	 0.6291	-4.2628	-5.5211	-5.2036	 0.8017	-4.4020	-6.0053	-5.5093	 0.9158	-4.5936	-6.4251	57.4751	99.9608	
   204	-5.1308	 1.0743	-4.0565	-6.2050	-5.3984	 1.2252	-4.1733	-6.6236	-5.6410	 1.2175	-4.4236	-6.8586	57.7166	99.9547	
   205	-5.1316	 1.1885	-3.9431	-6.3201	-5.3219	 1.2099	-4.1120	-6.5318	-5.6416	 1.0973	-4.5444	-6.7389	58.4157	99.9496	
   206	-5.0881	 0.8990	-4.1891	-5.9871	-5.3886	 0.8374	-4.5512	-6.2260	-5.8151	 0.6980	-5.1172	-6.5132	58.5161	99.9506	
   207	-5.0716	 0.5359	-4.5356	-5.6075	-5.3966	 0.4758	-4.9208	-5.8724	-5.9057	 0.3708	-5.5350	-6.2765	58.4350	99.9508	
   208	-4.7438	 0.3162	-4.4276	-5.0599	-5.1121	 0.2666	-4.8455	-5.3786	-5.6518	 0.1321	-5.5197	-5.7839	58.7023	99.9480	
   209	-4.5023	 0.0447	-4.4576	-4.5470	-4.9701	-0.0658	-5.0359	-4.9042	-5.5616	-0.2056	-5.7673	-5.3560	58.9314	99.9513	
   210	-4.3951	-0.1924	-4.5875	-4.2028	-4.9588	-0.3174	-5.2762	-4.6414	-5.5656	-0.5022	-6.0679	-5.0633	59.1277	99.9502	
   211	-4.6455	-0.7152	-5.3606	-3.9303	-5.3685	-1.0450	-6.4135	-4.3236	-6.2203	-1.2254	-7.4459	-4.9949	59.0979	99.9560	
   212	-5.5079	-1.3461	-6.8540	-4.1617	-6.2292	-1.7623	-7.9915	-4.4668	-7.1225	-1.9131	-9.0357	-5.2094	59.1925	99.9604	
   213	-6.3257	-1.4771	-7.8028	-4.8486	-6.9697	-1.7428	-8.7125	-5.2270	-7.7162	-1.6730	-9.3893	-6.0431	58.0060	99.9700	
   214	-6.6674	-0.8496	-7.5170	-5.8177	-7.2404	-0.9592	-8.1997	-6.2812	-7.9147	-0.8015	-8.7163	-7.1132	56.7515	99.9694	
   215	-7.1668	-0.2019	-7.3687	-6.9649	-7.6113	-0.3470	-7.9583	-7.2643	-8.1418	-0.2633	-8.4052	-7.8785	56.9830	99.9678	
   216	-7.4083	-0.0595	-7.4678	-7.3488	-7.6767	-0.2512	-7.9280	-7.4255	-8.3155	-0.2267	-8.5424	-8.0888	57.2552	99.9597	
   217	-6.9786	-0.4765	-7.4550	-6.5021	-7.2985	-0.7360	-8.0344	-6.5625	-7.8615	-0.7584	-8.6200	-7.1031	58.3587	99.9631	
   218	-5.7048	-0.8329	-6.5377	-4.8719	-6.0920	-1.0643	-7.1563	-5.0277	-6.3701	-1.0545	-7.4248	-5.3156	59.8070	99.9717	
   219	-4.0377	-0.2940	-4.3317	-3.7437	-4.5361	-0.3693	-4.9054	-4.1669	-4.7650	-0.3556	-5.1207	-4.4094	59.6665	99.9692	
   220	-3.0933	 0.3144	-2.7790	-3.4077	-3.6383	 0.2107	-3.4277	-3.8490	-3.9020	 0.1232	-3.7789	-4.0251	59.9836	99.9652	
   221	-2.8378	 0.5390	-2.2988	-3.3768	-3.2811	 0.4759	-2.8052	-3.7570	-3.4313	 0.4625	-2.9689	-3.8938	60.0747	99.9687	
   222	-2.5065	 0.7660	-1.7404	-3.2725	-2.8534	 0.7346	-2.1188	-3.5880	-2.9489	 0.7000	-2.2490	-3.6489	60.4054	99.9665	
   223	-2.2658	 0.8671	-1.3988	-3.1329	-2.6469	 0.8472	-1.7998	-3.4941	-2.7279	 0.8119	-1.9160	-3.5398	60.3811	99.9668	
   224	-2.2187	 0.8953	-1.3235	-3.1140	-2.6863	 0.8357	-1.8506	-3.5220	-2.8033	 0.7772	-2.0262	-3.5805	60.3111	99.9674	
   225	-2.4507	 0.8138	-1.6369	-3.2645	-3.0205	 0.7442	-2.2763	-3.7648	-3.2624	 0.6628	-2.5996	-3.9252	59.8136	99.9653	
   226	-2.9146	 0.3927	-2.5219	-3.3072	-3.5358	 0.1988	-3.3370	-3.7347	-3.8704	 0.0769	-3.7936	-3.9473	60.1009	99.9664	
   227	-3.9714	-0.1969	-4.1683	-3.7745	-4.6669	-0.2884	-4.9553	-4.3785	-5.1756	-0.1899	-5.3657	-4.9857	58.2053	99.9716	
   228	-5.2460	 0.2737	-4.9723	-5.5197	-5.8193	 0.4170	-5.4022	-6.2363	-6.3116	 0.6264	-5.6853	-6.9380	56.1779	99.9672	
   229	-5.7664	 0.8229	-4.9435	-6.5893	-6.1782	 0.9011	-5.2771	-7.0794	-6.6954	 0.9826	-5.7129	-7.6780	56.4038	99.9586	
   230	-6.0820	 0.9926	-5.0894	-7.0746	-6.4048	 0.9978	-5.4070	-7.4026	-6.8732	 1.0494	-5.8239	-7.9226	56.7678	99.9596	
   231	-6.0183	 1.0450	-4.9733	-7.0634	-6.2347	 1.0392	-5.1955	-7.2739	-6.5615	 1.0528	-5.5088	-7.6143	57.5631	99.9596	
   232	-5.6461	 0.9380	-4.7081	-6.5840	-5.9398	 0.8977	-5.0421	-6.8375	-6.3187	 0.8183	-5.5005	-7.1370	57.9929	99.9550	
   233	-5.3192	 0.5742	-4.7450	-5.8934	-5.7517	 0.4702	-5.2815	-6.2219	-6.3074	 0.2693	-6.0382	-6.5768	58.3430	99.9464	
   234	-5.5861	-0.1020	-5.6881	-5.4841	-6.0730	-0.2900	-6.3631	-5.7830	-6.7066	-0.4409	-7.1476	-6.2657	58.5247	99.9528	
   235	-5.7379	-0.4941	-6.2319	-5.2438	-6.2288	-0.7533	-6.9822	-5.4755	-6.8924	-0.8585	-7.7510	-6.0340	58.7652	99.9585	
   236	-6.2070	-1.0044	-7.2115	-5.2026	-6.8347	-1.4150	-8.2497	-5.4196	-7.6513	-1.5139	-9.1653	-6.1374	58.6702	99.9638	
   237	-6.9874	-1.2707	-8.2581	-5.7167	-7.5603	-1.5833	-9.1436	-5.9770	-8.3636	-1.4873	-9.8511	-6.8763	57.4994	99.9707	
   238	-7.3116	-0.6041	-7.9158	-6.7075	-7.8013	-0.7326	-8.5339	-7.0688	-8.4306	-0.5906	-9.0214	-7.8400	56.5803	99.9687	
   239	-7.5216	 0.0735	-7.4482	-7.5951	-7.9249	-0.0815	-8.0064	-7.8434	-8.4618	 0.0117	-8.4503	-8.4735	56.6114	99.9678	
   240	-7.4205	 0.2488	-7.1717	-7.6692	-7.7289	 0.0740	-7.6549	-7.8029	-8.3730	 0.0872	-8.2858	-8.4602	56.8480	99.9589	
   241	-6.6079	 0.0323	-6.5756	-6.6402	-7.0580	-0.1477	-7.2057	-6.9103	-7.4951	-0.1334	-7.6286	-7.3617	57.7456	99.9676	
   242	-5.0002	-0.0525	-5.0527	-4.9477	-5.4484	-0.1952	-5.6435	-5.2532	-5.6172	-0.1847	-5.8020	-5.4324	59.3935	99.9714	
   243	-3.3958	 0.5780	-2.8179	-3.9738	-3.8814	 0.5803	-3.3010	-4.4617	-4.0770	 0.5730	-3.5041	-4.6500	59.2574	99.9661	
   244	-2.7462	 1.0672	-1.6790	-3.8134	-3.2554	 1.0328	-2.2226	-4.2881	-3.4812	 1.0317	-2.4496	-4.5129	59.2247	99.9679	
   245	-2.6119	 1.2911	-1.3208	-3.9030	-3.0274	 1.2937	-1.7338	-4.3211	-3.0719	 1.2794	-1.7926	-4.3513	59.6982	99.9680	
   246	-2.5229	 1.3874	-1.1356	-3.9103	-2.9324	 1.3758	-1.5566	-4.3081	-3.0012	 1.3331	-1.6682	-4.3343	59.7725	99.9666	
   247	-2.6241	 1.3412	-1.2829	-3.9652	-3.0913	 1.3042	-1.7871	-4.3955	-3.1824	 1.2234	-1.9591	-4.4058	59.7739	99.9657	
   248	-2.7941	 1.2824	-1.5117	-4.0765	-3.2577	 1.2159	-2.0417	-4.4736	-3.4163	 1.1908	-2.2256	-4.6072	59.4810	99.9685	
   249	-2.7793	 1.2769	-1.5024	-4.0562	-3.3111	 1.1836	-2.1276	-4.4947	-3.5584	 1.0721	-2.4864	-4.6305	59.5010	99.9639	
   250	-3.1325	 0.6782	-2.4543	-3.8107	-3.8227	 0.5912	-3.2315	-4.4139	-4.1413	 0.5341	-3.6073	-4.6754	59.0113	99.9670	
   251	-4.4795	 0.6895	-3.7900	-5.1690	-5.0811	 0.8020	-4.2791	-5.8831	-5.5445	 1.0035	-4.5410	-6.5480	56.4655	99.9693	
   252	-5.3138	 1.3090	-4.0048	-6.6228	-5.7951	 1.3912	-4.4039	-7.1863	-6.3640	 1.4775	-4.8866	-7.8414	55.9590	99.9590	
   253	-5.8491	 1.4763	-4.3729	-7.3254	-6.3092	 1.5354	-4.7738	-7.8446	-6.7781	 1.5756	-5.2026	-8.3536	56.0255	99.9592	
   254	-5.9947	 1.5756	-4.4191	-7.5703	-6.2877	 1.5731	-4.7146	-7.8607	-6.6307	 1.5776	-5.0532	-8.2083	56.9323	99.9599	
   255	-5.8186	 1.3511	-4.4676	-7.1697	-6.1383	 1.2575	-4.8808	-7.3957	-6.5808	 1.1174	-5.4636	-7.6982	57.7094	99.9519	
   256	-5.9765	 0.7258	-5.2508	-6.7023	-6.3445	 0.5914	-5.7530	-6.9359	-6.8888	 0.4188	-6.4701	-7.3076	57.9993	99.9488	
   257	-6.0011	 0.1804	-5.8207	-6.1814	-6.3888	 0.0479	-6.3409	-6.4368	-6.9629	-0.0293	-6.9923	-6.9336	57.9729	99.9550	
   258	-6.0299	-0.0520	-6.0819	-5.9778	-6.4251	-0.2447	-6.6698	-6.1805	-6.9914	-0.3626	-7.3541	-6.6288	58.5063	99.9554	
   259	-6.2802	-0.4457	-6.7259	-5.8344	-6.7948	-0.7266	-7.5215	-6.0682	-7.4843	-0.8026	-8.2870	-6.6818	58.2165	99.9610	
   260	-6.5696	-0.4756	-7.0452	-6.0941	-7.1009	-0.7764	-7.8772	-6.3245	-7.8364	-0.8195	-8.6559	-7.0169	57.8412	99.9629	
   261	-6.9323	-0.3340	-7.2664	-6.5983	-7.5028	-0.5889	-8.0917	-6.9139	-8.2716	-0.5815	-8.8532	-7.6900	56.9400	99.9638	
   262	-7.2470	 0.1088	-7.1382	-7.3557	-7.8462	-0.0585	-7.9046	-7.7877	-8.5069	 0.0171	-8.4899	-8.5240	56.0141	99.9676	
   263	-7.3541	 0.7332	-6.6209	-8.0873	-7.8665	 0.5936	-7.2729	-8.4600	-8.4042	 0.6895	-7.7147	-9.0937	55.8165	99.9692	
   264	-7.1701	 1.0298	-6.1403	-8.1999	-7.6267	 0.8370	-6.7896	-8.4637	-8.2668	 0.8272	-7.4397	-9.0939	56.1202	99.9616	
   265	-6.6819	 0.8343	-5.8475	-7.5162	-7.2299	 0.6710	-6.5589	-7.9009	-7.9199	 0.6339	-7.2861	-8.5538	56.2234	99.9590	
   266	-5.7586	 0.6985	-5.0601	-6.4570	-6.4173	 0.5597	-5.8575	-6.9770	-6.9303	 0.4917	-6.4387	-7.4221	57.1416	99.9629	
   267	-4.4874	 0.8139	-3.6735	-5.3013	-5.1769	 0.7072	-4.4697	-5.8840	-5.5584	 0.6246	-4.9339	-6.1830	58.0581	99.9646	
   268	-3.4332	 1.2298	-2.2034	-4.6630	-4.1698	 1.1686	-3.0012	-5.3384	-4.5959	 1.0545	-3.5415	-5.6504	58.0978	99.9612	
   269	-3.3486	 1.5099	-1.8386	-4.8585	-4.0162	 1.4830	-2.5332	-5.4992	-4.3504	 1.4211	-2.9294	-5.7714	58.0292	99.9640	
   270	-3.3407	 1.7729	-1.5678	-5.1135	-3.8685	 1.8061	-2.0624	-5.6745	-4.0610	 1.7596	-2.3015	-5.8207	58.2598	99.9636	
   271	-3.1968	 1.9020	-1.2948	-5.0988	-3.7786	 1.9096	-1.8690	-5.6882	-4.0172	 1.8407	-2.1766	-5.8579	58.1605	99.9632	
   272	-3.3040	 1.8809	-1.4232	-5.1849	-3.9056	 1.8328	-2.0728	-5.7384	-4.2686	 1.7975	-2.4713	-6.0661	57.8308	99.9650	
   273	-3.2945	 1.7862	-1.5083	-5.0806	-3.9345	 1.6677	-2.2669	-5.6022	-4.2492	 1.5150	-2.7344	-5.7642	58.5723	99.9625	
   274	-3.4541	 1.1312	-2.3230	-4.5853	-4.2366	 1.0175	-3.2191	-5.2541	-4.6321	 0.9018	-3.7304	-5.5339	58.3129	99.9644	
   275	-4.6573	 1.1425	-3.5148	-5.7998	-5.4415	 1.2606	-4.1809	-6.7021	-5.9902	 1.3658	-4.6245	-7.3560	55.5987	99.9644	
   276	-5.5422	 1.6743	-3.8678	-7.2165	-6.1964	 1.8128	-4.3836	-8.0092	-6.7975	 1.9670	-4.8306	-8.7645	54.5618	99.9631	
   277	-5.7845	 2.1891	-3.5953	-7.9736	-6.2895	 2.3224	-3.9671	-8.6119	-6.7462	 2.4122	-4.3341	-9.1584	54.9966	99.9604	
   278	-5.8324	 2.4043	-3.4281	-8.2367	-6.1722	 2.4549	-3.7173	-8.6270	-6.5789	 2.4698	-4.1092	-9.0488	55.8748	99.9577	
   279	-5.9231	 2.1492	-3.7739	-8.0723	-6.3132	 2.1359	-4.1773	-8.4490	-6.7724	 2.1239	-4.6486	-8.8963	56.0606	99.9582	
   280	-6.0173	 1.8346	-4.1827	-7.8519	-6.4222	 1.8115	-4.6107	-8.2338	-6.9635	 1.7140	-5.2496	-8.6775	56.3266	99.9502	
   281	-6.3644	 1.4690	-4.8953	-7.8334	-6.7808	 1.4101	-5.3707	-8.1910	-7.4072	 1.2384	-6.1689	-8.6456	56.5263	99.9431	
   282	-6.8675	 1.1535	-5.7140	-8.0210	-7.3170	 1.0612	-6.2558	-8.3782	-8.0446	 0.9616	-7.0831	-9.0062	55.9665	99.9473	
   283	-7.0854	 1.4391	-5.6464	-8.5245	-7.5236	 1.3914	-6.1322	-8.9151	-8.1921	 1.3954	-6.7968	-9.5875	55.2614	99.9546	
   284	-7.0583	 1.9000	-5.1583	-8.9583	-7.6085	 1.8199	-5.7886	-9.4284	-8.1677	 1.8679	-6.2999	-10.0356	54.8556	99.9645	
   285	-6.8578	 2.0918	-4.7660	-8.9495	-7.3716	 2.0124	-5.3592	-9.3840	-8.0122	 1.9185	-6.0938	-9.9306	55.1945	99.9520	
   286	-6.2528	 1.5645	-4.6882	-7.8173	-6.9584	 1.4627	-5.4957	-8.4210	-7.5716	 1.4549	-6.1168	-9.0266	55.3726	99.9634	
   287	-5.1743	 1.6220	-3.5522	-6.7963	-5.8777	 1.7472	-4.1305	-7.6249	-6.1319	 1.6942	-4.4378	-7.8261	56.3591	99.9596	
   288	-4.0791	 2.0911	-1.9880	-6.1702	-4.7897	 2.1592	-2.6305	-6.9489	-5.1799	 2.1396	-3.0405	-7.3195	56.3935	99.9619	
   289	-3.7372	 2.6257	-1.1116	-6.3629	-4.4653	 2.6384	-1.8269	-7.1037	-4.9561	 2.6346	-2.3216	-7.5907	56.0145	99.9635	
   290	-3.9787	 2.7680	-1.2107	-6.7467	-4.6555	 2.8063	-1.8492	-7.4618	-5.0661	 2.8078	-2.2584	-7.8739	55.9808	99.9637	
   291	-4.3083	 2.8289	-1.4793	-7.1372	-4.9304	 2.8492	-2.0812	-7.7795	-5.2258	 2.8964	-2.3295	-8.1222	56.0636	99.9682	
   292	-4.6038	 2.8241	-1.7797	-7.4280	-5.2342	 2.8377	-2.3965	-8.0718	-5.5229	 2.8474	-2.6756	-8.3703	56.0228	99.9665	
   293	-4.9988	 2.8029	-2.1959	-7.8017	-5.5952	 2.8408	-2.7544	-8.4359	-5.8328	 2.8778	-2.9552	-8.7106	55.8347	99.9674	
   294	-5.1409	 2.9617	-2.1792	-8.1026	-5.6881	 3.0183	-2.6698	-8.7064	-5.9177	 3.0988	-2.8190	-9.0166	55.5598	99.9686	
   295	-5.1234	 3.1299	-1.9935	-8.2533	-5.6532	 3.1747	-2.4785	-8.8279	-5.8716	 3.2249	-2.6468	-9.0964	55.6503	99.9675	
   296	-5.2176	 3.2027	-2.0149	-8.4202	-5.7037	 3.1934	-2.5104	-8.8971	-5.9652	 3.2772	-2.6881	-9.2424	55.6018	99.9699	
   297	-5.3326	 3.3059	-2.0267	-8.6385	-5.8353	 3.3721	-2.4631	-9.2074	-6.0734	 3.4841	-2.5894	-9.5575	55.1258	99.9692	
   298	-5.2907	 3.5031	-1.7876	-8.7939	-5.7500	 3.6206	-2.1294	-9.3706	-5.9045	 3.7934	-2.1112	-9.6979	54.9592	99.9714	
   299	-4.9227	 3.8382	-1.0846	-8.7609	-5.3624	 3.9657	-1.3966	-9.3281	-5.5099	 4.1957	-1.3143	-9.7056	54.7853	99.9737	
   300	-4.7213	 4.0448	-0.6765	-8.7661	-5.1856	 4.1218	-1.0638	-9.3075	-5.3403	 4.2983	-1.0421	-9.6386	55.0061	99.9731	
   301	-4.7841	 3.8781	-0.9060	-8.6622	-5.3676	 3.9872	-1.3804	-9.3548	-5.6198	 4.1510	-1.4690	-9.7708	54.4827	99.9712	
   302	-4.6638	 3.7350	-0.9289	-8.3988	-5.2792	 3.9546	-1.3246	-9.2337	-5.5373	 4.1028	-1.4347	-9.6401	54.2676	99.9669	
   303	-4.4546	 3.6881	-0.7665	-8.1426	-5.0607	 3.8283	-1.2324	-8.8891	-5.4092	 3.8425	-1.5667	-9.2517	54.9185	99.9607	
   304	-5.2891	 3.0164	-2.2727	-8.3055	-6.0773	 3.0904	-2.9869	-9.1678	-6.4926	 3.1541	-3.3386	-9.6468	54.3134	99.9665	
   305	-5.7023	 3.0703	-2.6321	-8.7726	-6.2958	 3.3274	-2.9685	-9.6232	-6.5092	 3.6018	-2.9074	-10.1110	53.7566	99.9717	
   306	-5.2288	 3.7841	-1.4447	-9.0128	-5.6707	 4.0991	-1.5716	-9.7698	-5.7930	 4.4167	-1.3765	-10.2097	53.8185	99.9721	
   307	-4.5896	 4.2240	-0.3656	-8.8137	-4.9340	 4.5693	-0.3647	-9.5033	-5.0557	 4.8738	-0.1820	-9.9295	54.0844	99.9700	
   308	-4.1798	 4.3689	 0.1891	-8.5487	-4.6429	 4.6962	 0.0533	-9.3390	-4.8464	 4.9787	 0.1322	-9.8251	53.8544	99.9696	
   309	-4.0900	 4.4801	 0.3901	-8.5701	-4.5129	 4.8240	 0.3110	-9.3369	-4.7423	 5.1288	 0.3864	-9.8712	53.7421	99.9693	
   310	-4.1772	 4.5427	 0.3655	-8.7198	-4.6563	 4.9095	 0.2531	-9.5658	-4.8804	 5.1979	 0.3174	-10.0782	53.4924	99.9684	
   311	-4.2809	 4.5810	 0.3001	-8.8619	-4.7522	 4.9253	 0.1731	-9.6775	-5.0091	 5.2290	 0.2198	-10.2380	53.3577	99.9693	
   312	-4.3463	 4.6279	 0.2816	-8.9742	-4.8257	 4.9915	 0.1658	-9.8173	-5.0740	 5.2877	 0.2136	-10.3617	53.2456	99.9684	
   313	-4.4265	 4.6803	 0.2538	-9.1068	-4.8762	 5.0102	 0.1339	-9.8864	-5.1231	 5.3234	 0.2002	-10.4465	53.2868	99.9701	
   314	-4.3489	 4.7124	 0.3635	-9.0613	-4.8451	 5.1028	 0.2578	-9.9479	-5.0506	 5.4108	 0.3601	-10.4615	53.1274	99.9690	
   315	-4.2774	 4.7696	 0.4922	-9.0469	-4.7708	 5.1601	 0.3892	-9.9309	-4.9723	 5.5018	 0.5294	-10.4741	53.0431	99.9707	
   316	-4.2015	 4.7719	 0.5704	-8.9735	-4.6520	 5.2073	 0.5553	-9.8593	-4.8033	 5.5932	 0.7898	-10.3965	53.0506	99.9717	
   317	-4.1318	 4.7993	 0.6676	-8.9311	-4.5636	 5.2854	 0.7217	-9.8490	-4.7063	 5.7173	 1.0110	-10.4236	52.8473	99.9722	
   318	-4.0698	 4.9512	 0.8813	-9.0210	-4.4716	 5.4272	 0.9556	-9.8988	-4.6683	 5.9038	 1.2353	-10.5721	52.6100	99.9735	
   319	-4.0454	 5.1092	 1.0638	-9.1546	-4.4546	 5.6097	 1.1551	-10.0643	-4.6824	 6.0696	 1.3871	-10.7520	52.3899	99.9716	
   320	-3.9869	 5.3307	 1.3438	-9.3176	-4.4094	 5.8339	 1.4245	-10.2432	-4.6474	 6.3087	 1.6612	-10.9562	52.1538	99.9722	
   321	-3.8919	 5.5311	 1.6392	-9.4229	-4.3708	 6.0540	 1.6832	-10.4248	-4.5820	 6.4791	 1.8971	-11.0611	52.0847	99.9703	
   322	-3.8561	 5.7533	 1.8972	-9.6094	-4.3479	 6.3385	 1.9906	-10.6864	-4.4751	 6.7945	 2.3193	-11.2695	51.8478	99.9711	
   323	-3.8596	 5.8229	 1.9634	-9.6825	-4.4006	 6.3189	 1.9183	-10.7196	-4.6440	 6.7031	 2.0590	-11.3471	51.8599	99.9694	
   324	-4.0837	 5.6171	 1.5334	-9.7007	-4.5699	 6.0689	 1.4990	-10.6388	-4.8697	 6.5011	 1.6313	-11.3709	51.8502	99.9716	
   325	-4.5911	 5.4854	 0.8943	-10.0766	-5.1789	 5.7990	 0.6201	-10.9779	-5.7176	 6.0970	 0.3793	-11.8146	51.5709	99.9662	
   326	-5.7647	 5.2276	-0.5371	-10.9923	-6.3940	 5.5316	-0.8624	-11.9256	-6.8263	 5.7965	-1.0299	-12.6228	51.2915	99.9669	
   327	-6.3262	 5.2071	-1.1191	-11.5333	-6.8352	 5.5968	-1.2384	-12.4321	-7.0708	 5.8883	-1.1826	-12.9591	51.4266	99.9671	
   328	-6.2111	 5.3621	-0.8490	-11.5731	-6.6103	 5.8067	-0.8035	-12.4170	-6.7920	 6.2423	-0.5498	-13.0343	51.2058	99.9721	
   329	-5.6190	 5.6447	 0.0257	-11.2638	-5.8661	 6.1830	 0.3169	-12.0491	-5.9195	 6.6831	 0.7635	-12.6027	51.6263	99.9728	
   330	-4.7742	 5.7201	 0.9460	-10.4943	-4.9718	 6.2564	 1.2846	-11.2282	-5.1031	 6.6977	 1.5945	-11.8008	52.2154	99.9686	
   331	-4.8239	 5.6474	 0.8235	-10.4712	-5.2088	 6.2853	 1.0765	-11.4941	-5.4266	 6.7962	 1.3695	-12.2228	51.0290	99.9692	
   332	-4.9328	 5.9838	 1.0510	-10.9166	-5.4734	 6.6174	 1.1440	-12.0907	-5.9044	 6.9756	 1.0710	-12.8800	50.2295	99.9586	
   333	-5.4097	 6.2434	 0.8338	-11.6531	-6.0609	 6.7172	 0.6562	-12.7781	-6.6419	 6.9543	 0.3123	-13.5962	49.8825	99.9557	
   334	-6.2694	 6.0444	-0.2250	-12.3138	-6.9878	 6.4149	-0.5729	-13.4027	-7.5003	 6.5655	-0.9348	-14.0658	50.0353	99.9572	
   335	-7.1945	 5.7632	-1.4313	-12.9576	-7.8315	 6.1015	-1.7301	-13.9330	-8.2581	 6.2595	-1.9988	-14.5176	50.1481	99.9592	
   336	-8.0298	 5.4640	-2.5658	-13.4938	-8.6463	 5.8424	-2.8039	-14.4887	-9.0616	 6.0565	-3.0052	-15.1181	49.5836	99.9604	
   337	-8.7500	 5.1906	-3.5594	-13.9406	-9.2441	 5.5423	-3.7018	-14.7864	-9.6925	 5.7946	-3.8981	-15.4871	49.5007	99.9607	
   338	-9.3220	 4.8626	-4.4594	-14.1846	-9.7624	 5.1673	-4.5951	-14.9298	-10.3720	 5.4705	-4.9016	-15.8425	49.0304	99.9604	
   339	-9.6167	 4.8727	-4.7440	-14.4894	-9.9749	 5.2849	-4.6901	-15.2598	-10.4135	 5.4345	-4.9791	-15.8480	49.6754	99.9483	
   340	-9.5444	 4.5573	-4.9871	-14.1017	-10.0655	 5.2793	-4.7863	-15.3448	-10.8967	 5.8395	-5.0573	-16.7362	46.1253	99.9531	
   341	-9.4073	 5.6005	-3.8069	-15.0078	-9.9374	 6.2671	-3.6703	-16.2045	-10.7350	 6.6675	-4.0676	-17.4026	46.1943	99.9461	
   342	-9.6436	 5.4447	-4.1990	-15.0883	-10.1408	 5.9841	-4.1567	-16.1250	-10.7366	 6.3069	-4.4298	-17.0436	47.4473	99.9526	
   343	-8.1258	 5.1196	-3.0061	-13.2454	-8.1329	 5.6854	-2.4475	-13.8184	-8.1610	 6.1657	-1.9954	-14.3267	51.0544	99.9677	
   344	-5.7759	 5.8090	 0.0331	-11.5850	-6.0387	 6.7675	 0.7289	-12.8062	-6.0344	 7.2021	 1.1677	-13.2365	50.4648	99.9554	
   345	-5.4708	 5.9774	 0.5066	-11.4481	-6.0066	 6.5409	 0.5342	-12.5475	-6.6864	 6.9710	 0.2845	-13.6573	49.2200	99.9591	
   346	-5.5867	 6.0657	 0.4790	-11.6524	-6.1620	 6.7545	 0.5925	-12.9165	-6.7046	 7.1670	 0.4624	-13.8716	49.0182	99.9571	
   347	-5.7576	 6.1212	 0.3637	-11.8788	-6.5459	 6.4731	-0.0728	-13.0190	-6.9209	 7.0361	 0.1151	-13.9570	49.3021	99.9802	
   348	-5.8404	 5.8708	 0.0304	-11.7113	-6.6047	 6.6836	 0.0789	-13.2882	-7.0250	 6.9949	-0.0302	-14.0199	48.7378	99.9515	
   349	-6.1753	 5.5843	-0.5910	-11.7596	-6.7352	 6.1003	-0.6349	-12.8354	-7.1148	 6.2431	-0.8718	-13.3579	50.7995	99.9508	
   350	-6.8057	 5.2930	-1.5127	-12.0987	-7.2974	 5.9693	-1.3281	-13.2667	-7.7494	 6.3494	-1.4000	-14.0988	49.3590	99.9557	
   351	-7.4464	 5.8562	-1.5902	-13.3026	-7.8184	 6.6630	-1.1554	-14.4814	-8.2508	 7.1684	-1.0825	-15.4192	48.1290	99.9562	
   352	-7.8718	 6.4766	-1.3952	-14.3484	-8.1937	 7.1987	-0.9950	-15.3924	-8.6598	 7.5857	-1.0742	-16.2454	48.0474	99.9502	
   353	-8.2676	 6.8278	-1.4398	-15.0954	-8.5452	 7.4782	-1.0669	-16.0234	-9.0400	 7.7915	-1.2486	-16.8315	48.0028	99.9464	
   354	-8.5256	 7.0750	-1.4506	-15.6006	-8.8104	 7.5762	-1.2342	-16.3866	-9.3611	 7.8260	-1.5352	-17.1871	48.1132	99.9473	
   355	-8.8682	 7.1711	-1.6971	-16.0393	-9.1558	 7.6256	-1.5302	-16.7814	-9.6880	 7.7480	-1.9400	-17.4360	48.3789	99.9406	
   356	-8.9999	 7.2501	-1.7497	-16.2500	-9.3475	 7.6573	-1.6902	-17.0048	-9.8622	 7.7733	-2.0890	-17.6356	48.2747	99.9446	
   357	-9.0295	 7.3902	-1.6393	-16.4196	-9.3861	 7.7692	-1.6169	-17.1554	-9.9506	 7.9269	-2.0238	-17.8775	47.9454	99.9477	
   358	-9.0687	 7.4958	-1.5729	-16.5645	-9.4902	 7.8662	-1.6239	-17.3564	-10.0840	 7.9770	-2.1071	-18.0609	47.7449	99.9451	
   359	-9.1986	 7.6045	-1.5940	-16.8031	-9.6269	 7.9558	-1.6711	-17.5827	-10.2355	 8.1141	-2.1215	-18.3496	47.4249	99.9492	
   360	-9.2456	 7.8346	-1.4110	-17.0802	-9.6515	 8.1993	-1.4522	-17.8507	-10.2449	 8.3700	-1.8751	-18.6149	47.2522	99.9495	
   361	-9.1968	 8.0216	-1.1751	-17.2184	-9.6374	 8.3308	-1.3066	-17.9682	-10.2806	 8.4464	-1.8343	-18.7271	47.2472	99.9475	
   362	-9.2622	 7.9394	-1.3227	-17.2016	-9.7726	 8.2244	-1.5481	-17.9970	-10.4169	 8.3313	-2.0857	-18.7481	47.1587	99.9495	
   363	-9.3668	 7.8338	-1.5331	-17.2006	-9.8899	 8.0920	-1.7979	-17.9818	-10.5665	 8.1753	-2.3913	-18.7418	47.1862	99.9482	
   364	-9.4357	 7.6921	-1.7436	-17.1278	-9.9396	 8.0127	-1.9269	-17.9523	-10.6297	 8.1589	-2.4709	-18.7886	46.8719	99.9487	
   365	-9.2884	 7.6225	-1.6659	-16.9109	-9.8089	 8.0425	-1.7664	-17.8514	-10.5256	 8.3091	-2.2167	-18.8347	46.2337	99.9520	
   366	-9.0085	 7.4888	-1.5197	-16.4973	-9.5066	 8.0286	-1.4780	-17.5351	-10.1917	 8.4131	-1.7788	-18.6048	45.9715	99.9551	
   367	-8.5421	 7.3090	-1.2332	-15.8511	-9.0802	 7.9297	-1.1505	-17.0099	-9.7004	 8.2745	-1.4260	-17.9749	46.3808	99.9517	
   368	-8.1080	 6.7081	-1.3999	-14.8162	-8.6275	 7.2808	-1.3467	-15.9083	-9.1259	 7.5542	-1.5717	-16.6801	47.8731	99.9523	
   369	-7.5091	 6.3351	-1.1740	-13.8442	-8.0213	 6.9463	-1.0750	-14.9675	-8.3737	 7.3120	-1.0618	-15.6857	48.5834	99.9604	
   370	-6.7977	 6.4597	-0.3379	-13.2574	-7.3179	 7.0641	-0.2538	-14.3820	-7.7766	 7.3573	-0.4194	-15.1339	48.9055	99.9539	
   371	-6.8378	 6.4214	-0.4164	-13.2591	-7.5845	 6.9152	-0.6693	-14.4997	-8.2672	 7.0713	-1.1960	-15.3385	48.4173	99.9474	
   372	-7.4586	 6.1645	-1.2941	-13.6231	-8.2514	 6.6471	-1.6043	-14.8986	-9.1473	 7.0290	-2.1184	-16.1764	46.7675	99.9575	
   373	-7.8570	 6.2129	-1.6441	-14.0699	-8.6422	 6.9151	-1.7271	-15.5574	-9.3714	 7.4056	-1.9659	-16.7771	45.9537	99.9592	
   374	-8.3278	 6.4475	-1.8803	-14.7753	-8.9959	 7.1564	-1.8395	-16.1523	-9.7721	 7.6535	-2.1187	-17.4256	45.6090	99.9556	
   375	-8.7087	 6.7932	-1.9155	-15.5020	-9.2761	 7.4421	-1.8339	-16.7182	-10.0301	 7.8134	-2.2168	-17.8435	45.9992	99.9482	
   376	-8.8857	 7.1320	-1.7537	-16.0177	-9.4990	 7.7133	-1.7857	-17.2123	-10.3472	 8.0356	-2.3116	-18.3828	45.5714	99.9457	
   377	-9.1821	 7.3706	-1.8115	-16.5526	-9.8474	 7.8224	-2.0250	-17.6698	-10.7530	 7.9644	-2.7887	-18.7174	45.8014	99.9375	
   378	-9.5430	 7.5418	-2.0012	-17.0848	-10.1713	 7.9094	-2.2619	-18.0808	-11.0302	 7.9710	-3.0593	-19.0012	46.1633	99.9363	
   379	-9.6589	 7.6302	-2.0287	-17.2891	-10.3377	 7.9318	-2.4059	-18.2695	-11.1612	 7.9571	-3.2042	-19.1183	46.2846	99.9396	
   380	-9.8054	 7.7147	-2.0907	-17.5200	-10.5145	 7.9971	-2.5174	-18.5116	-11.3566	 8.0132	-3.3434	-19.3698	46.0562	99.9400	
   381	-10.0207	 7.7866	-2.2341	-17.8073	-10.7493	 8.0643	-2.6850	-18.8135	-11.5835	 8.1156	-3.4680	-19.6991	45.7129	99.9437	
   382	-10.0905	 7.8883	-2.2022	-17.9787	-10.8459	 8.1781	-2.6678	-19.0240	-11.7052	 8.2817	-3.4236	-19.9869	45.2302	99.9468	
   383	-10.0730	 7.9274	-2.1456	-18.0004	-10.7976	 8.2319	-2.5658	-19.0295	-11.6421	 8.2981	-3.3440	-19.9402	45.4220	99.9430	
   384	-10.0007	 7.7412	-2.2595	-17.7419	-10.7619	 8.0689	-2.6930	-18.8308	-11.6677	 8.1300	-3.5378	-19.7978	45.2628	99.9399	
   385	-9.9510	 7.4267	-2.5244	-17.3777	-10.7662	 7.7711	-2.9952	-18.5373	-11.7343	 7.8282	-3.9062	-19.5625	45.1417	99.9375	
   386	-9.8561	 7.1106	-2.7455	-16.9666	-10.7067	 7.4626	-3.2441	-18.1693	-11.6734	 7.5817	-4.0918	-19.2551	45.1281	99.9429	
   387	-9.6530	 6.8305	-2.8225	-16.4834	-10.5662	 7.2154	-3.3508	-17.7816	-11.4663	 7.3148	-4.1516	-18.7810	45.4616	99.9436	
   388	-9.4865	 6.5715	-2.9150	-16.0580	-10.4517	 6.9648	-3.4869	-17.4165	-11.3872	 7.0901	-4.2972	-18.4774	45.4081	99.9451	
   389	-9.4255	 6.4503	-2.9752	-15.8757	-10.4123	 6.8656	-3.5467	-17.2779	-11.3539	 6.9687	-4.3853	-18.3225	45.4616	99.9425	
   390	-9.3374	 6.5317	-2.8057	-15.8691	-10.3351	 6.9738	-3.3613	-17.3089	-11.2393	 7.1034	-4.1360	-18.3427	45.3816	99.9448	
   391	-9.2101	 6.6366	-2.5735	-15.8467	-10.2304	 7.1110	-3.1195	-17.3414	-11.1727	 7.2963	-3.8765	-18.4690	44.9428	99.9467	
   392	-9.2475	 6.9010	-2.3465	-16.1486	-10.2031	 7.4720	-2.7311	-17.6750	-11.1032	 7.7633	-3.3400	-18.8666	44.4230	99.9497	
   393	-9.2754	 7.2000	-2.0754	-16.4753	-10.1379	 7.8190	-2.3189	-17.9568	-10.9812	 8.1532	-2.8280	-19.1344	44.3619	99.9504	
   394	-9.2326	 7.4120	-1.8206	-16.6446	-10.0986	 8.0519	-2.0467	-18.1504	-10.9099	 8.3272	-2.5828	-19.2370	44.4419	99.9464	
   395	-9.2422	 7.5067	-1.7355	-16.7489	-10.0815	 8.1237	-1.9578	-18.2052	-10.8836	 8.3976	-2.4861	-19.2811	44.5470	99.9472	
   396	-9.2387	 7.5662	-1.6725	-16.8049	-10.0192	 8.1983	-1.8209	-18.2175	-10.7971	 8.5371	-2.2601	-19.3342	44.5137	99.9506	
   397	-9.1018	 7.5764	-1.5254	-16.6782	-9.8884	 8.2282	-1.6603	-18.1166	-10.6017	 8.5899	-2.0119	-19.1917	44.6530	99.9534	
   398	-9.0818	 7.5310	-1.5507	-16.6128	-9.8052	 8.2170	-1.5883	-18.0222	-10.4953	 8.6761	-1.8193	-19.1715	44.5630	99.9577	
   399	-9.0277	 7.5490	-1.4787	-16.5767	-9.6797	 8.2683	-1.4115	-17.9480	-10.2919	 8.7775	-1.5145	-19.0693	44.7794	99.9602	
   400	-8.7853	 7.5507	-1.2346	-16.3360	-9.3916	 8.3442	-1.0474	-17.7357	-9.9182	 8.8837	-1.0345	-18.8019	45.0245	99.9604	
   401	-8.5429	 7.5523	-0.9906	-16.0953	-9.0907	 8.4154	-0.6754	-17.5061	-9.6030	 9.0636	-0.5395	-18.6666	44.8866	99.9634	
   402	-8.3503	 7.4812	-0.8691	-15.8314	-8.8560	 8.3482	-0.5078	-17.2042	-9.3562	 9.0168	-0.3395	-18.3730	45.1547	99.9641	
   403	-8.1559	 7.4398	-0.7161	-15.5956	-8.6740	 8.2615	-0.4125	-16.9355	-9.1608	 8.8517	-0.3092	-18.0125	45.6803	99.9620	
   404	-7.9658	 7.4531	-0.5126	-15.4189	-8.4422	 8.2540	-0.1882	-16.6962	-8.9328	 8.8808	-0.0521	-17.8135	45.8649	99.9643	
   405	-7.6903	 7.5033	-0.1870	-15.1936	-8.2186	 8.2170	-0.0016	-16.4357	-8.7561	 8.7915	 0.0353	-17.5476	46.1517	99.9645	
   406	-7.5490	 7.5879	 0.0389	-15.1368	-8.0359	 8.2537	 0.2178	-16.2896	-8.6292	 8.8356	 0.2063	-17.4648	46.2693	99.9649	
   407	-7.3458	 7.6951	 0.3493	-15.0410	-7.8621	 8.3588	 0.4967	-16.2210	-8.4953	 8.9058	 0.4103	-17.4011	46.2514	99.9626	
   408	-7.0398	 7.8783	 0.8386	-14.9181	-7.4752	 8.4699	 0.9947	-15.9450	-8.0953	 8.9735	 0.8781	-17.0688	46.9345	99.9621	
   409	-6.8480	 7.9214	 1.0735	-14.7694	-7.2821	 8.4636	 1.1816	-15.7457	-7.9052	 8.9250	 1.0197	-16.8303	47.3003	99.9615	
   410	-6.6875	 7.9457	 1.2582	-14.6333	-7.1380	 8.5016	 1.3636	-15.6395	-7.7526	 8.9193	 1.1667	-16.6719	47.4602	99.9589	
   411	-6.7041	 7.9215	 1.2174	-14.6256	-7.1342	 8.4546	 1.3204	-15.5889	-7.7052	 8.8499	 1.1447	-16.5551	47.7741	99.9593	
   412	-6.6596	 7.9051	 1.2454	-14.5647	-7.0837	 8.4360	 1.3523	-15.5197	-7.7040	 8.8724	 1.1683	-16.5765	47.5829	99.9605	
   413	-6.6378	 7.8894	 1.2516	-14.5273	-7.0599	 8.4012	 1.3412	-15.4611	-7.6619	 8.8108	 1.1488	-16.4727	47.8003	99.9601	
   414	-6.6309	 7.7501	 1.1193	-14.3810	-7.0963	 8.2193	 1.1230	-15.3155	-7.7308	 8.5729	 0.8420	-16.3037	47.9889	99.9583	
   415	-6.8166	 7.5529	 0.7363	-14.3695	-7.3138	 8.0262	 0.7123	-15.3400	-7.9027	 8.4253	 0.5225	-16.3280	47.8921	99.9626	
   416	-6.8088	 7.5576	 0.7488	-14.3664	-7.2775	 8.0974	 0.8199	-15.3748	-7.7858	 8.4960	 0.7102	-16.2818	47.9962	99.9614	
   417	-6.5315	 7.6375	 1.1060	-14.1690	-6.9559	 8.1935	 1.2376	-15.1493	-7.4835	 8.6463	 1.1627	-16.1298	47.9880	99.9629	
   418	-6.3589	 7.7408	 1.3820	-14.0997	-6.7947	 8.3032	 1.5085	-15.0979	-7.3151	 8.7264	 1.4113	-16.0415	48.0890	99.9613	
   419	-6.3405	 7.7948	 1.4543	-14.1354	-6.7732	 8.3408	 1.5677	-15.1140	-7.3180	 8.7791	 1.4610	-16.0971	48.0097	99.9622	
   420	-6.2220	 7.8802	 1.6582	-14.1021	-6.5585	 8.3723	 1.8137	-14.9308	-7.0975	 8.7709	 1.6733	-15.8684	48.5801	99.9606	
   421	-6.0633	 7.6165	 1.5532	-13.6798	-6.4664	 8.1820	 1.7156	-14.6483	-7.0080	 8.6398	 1.6317	-15.6478	48.2955	99.9622	
   422	-6.1017	 7.3497	 1.2479	-13.4514	-6.6155	 7.8334	 1.2179	-14.4489	-7.2248	 8.1708	 0.9459	-15.3956	48.5770	99.9584	
   423	-6.3947	 7.2604	 0.8657	-13.6551	-6.8792	 7.8461	 0.9669	-14.7254	-7.4202	 8.3359	 0.9156	-15.7561	47.9500	99.9644	
   424	-6.3432	 7.4920	 1.1488	-13.8352	-6.7843	 8.1496	 1.3654	-14.9339	-7.3040	 8.7223	 1.4182	-16.0262	47.5439	99.9662	
   425	-6.1897	 7.6556	 1.4659	-13.8453	-6.6179	 8.3486	 1.7307	-14.9666	-7.1245	 8.9072	 1.7826	-16.0316	47.5421	99.9642	
   426	-6.1749	 7.5210	 1.3461	-13.6959	-6.6543	 8.1667	 1.5125	-14.8210	-7.1858	 8.7066	 1.5207	-15.8924	47.6322	99.9652	
   427	-6.1505	 7.4209	 1.2703	-13.5714	-6.6312	 8.0085	 1.3773	-14.6396	-7.1728	 8.4093	 1.2363	-15.5821	48.2683	99.9592	
   428	-6.2848	 7.3261	 1.0413	-13.6110	-6.7544	 7.8847	 1.1303	-14.6391	-7.3079	 8.3166	 1.0086	-15.6246	48.2362	99.9617	
   429	-6.3197	 7.3770	 1.0573	-13.6967	-6.7938	 7.9839	 1.1900	-14.7777	-7.3378	 8.3967	 1.0588	-15.7344	48.1038	99.9588	
   430	-6.3328	 7.4122	 1.0794	-13.7450	-6.8265	 7.9764	 1.1499	-14.8030	-7.3723	 8.3867	 1.0143	-15.7589	48.1457	99.9608	
   431	-6.3301	 7.4568	 1.1266	-13.7869	-6.7738	 7.9960	 1.2222	-14.7698	-7.2851	 8.4285	 1.1433	-15.7136	48.3531	99.9631	
   432	-6.2552	 7.3152	 1.0600	-13.5704	-6.7708	 7.8256	 1.0549	-14.5964	-7.2909	 8.0981	 0.8071	-15.3890	48.8493	99.9555	
   433	-6.7558	 6.6569	-0.0988	-13.4127	-7.3379	 7.0520	-0.2859	-14.3899	-7.8760	 7.1882	-0.6879	-15.0642	49.5221	99.9520	
   434	-7.4028	 6.0831	-1.3197	-13.4859	-7.7604	 6.5504	-1.2100	-14.3108	-8.1384	 6.8223	-1.3162	-14.9607	49.9104	99.9574	
   435	-7.3863	 5.9783	-1.4080	-13.3645	-7.9179	 6.5044	-1.4134	-14.4223	-8.4297	 6.7768	-1.6529	-15.2065	48.9778	99.9543	
   436	-7.5728	 6.2826	-1.2902	-13.8554	-8.0182	 6.7759	-1.2424	-14.7941	-8.5262	 6.9908	-1.5355	-15.5171	49.1512	99.9504	
   437	-8.1517	 6.3521	-1.7996	-14.5038	-8.7365	 6.7351	-2.0014	-15.4716	-9.3532	 6.9916	-2.3616	-16.3448	48.2186	99.9575	
   438	-8.3854	 6.3700	-2.0153	-14.7553	-8.7559	 6.8464	-1.9095	-15.6023	-9.1041	 7.2078	-1.8964	-16.3119	48.7794	99.9631	
   439	-7.6966	 6.3663	-1.3303	-14.0629	-8.0591	 6.8496	-1.2096	-14.9087	-8.3520	 7.1834	-1.1687	-15.5355	49.4850	99.9626	
   440	-7.1473	 6.3078	-0.8395	-13.4551	-7.4478	 6.8256	-0.6222	-14.2734	-7.7450	 7.2021	-0.5430	-14.9471	49.8164	99.9629	
   441	-6.7768	 6.3001	-0.4767	-13.0769	-7.1447	 6.8244	-0.3203	-13.9691	-7.4917	 7.1701	-0.3217	-14.6618	49.8292	99.9609	
   442	-6.5902	 6.3831	-0.2071	-12.9733	-6.9843	 6.9214	-0.0629	-13.9057	-7.3409	 7.2396	-0.1014	-14.5805	49.8390	99.9590	
   443	-6.4916	 6.6429	 0.1513	-13.1345	-6.9013	 7.2423	 0.3411	-14.1436	-7.2345	 7.5437	 0.3091	-14.7783	49.6050	99.9563	
   444	-6.2692	 6.9482	 0.6790	-13.2174	-6.6236	 7.5825	 0.9589	-14.2061	-7.0160	 8.0465	 1.0304	-15.0625	48.9369	99.9625	
   445	-5.9919	 7.2863	 1.2944	-13.2782	-6.2918	 8.0784	 1.7867	-14.3702	-6.6817	 8.8155	 2.1337	-15.4972	47.7823	99.9707	
   446	-5.5733	 7.8381	 2.2648	-13.4114	-5.8404	 8.7451	 2.9047	-14.5855	-6.4042	 9.5828	 3.1785	-15.9870	46.6983	99.9677	
   447	-5.6796	 7.9609	 2.2813	-13.6406	-6.0172	 8.8104	 2.7932	-14.8276	-6.6083	 9.5792	 2.9708	-16.1875	46.6402	99.9666	
   448	-5.6596	 7.9156	 2.2560	-13.5751	-6.0008	 8.7588	 2.7579	-14.7596	-6.6193	 9.3654	 2.7460	-15.9848	47.0803	99.9566	
   449	-5.7703	 7.8349	 2.0646	-13.6053	-6.1895	 8.6201	 2.4306	-14.8095	-6.7994	 9.1693	 2.3698	-15.9687	47.2065	99.9572	
   450	-5.9046	 7.7402	 1.8356	-13.6448	-6.4233	 8.3679	 1.9446	-14.7913	-7.1098	 8.7526	 1.6427	-15.8624	47.6422	99.9531	
   451	-6.2412	 7.4240	 1.1827	-13.6652	-6.8354	 7.9341	 1.0987	-14.7696	-7.5155	 8.1365	 0.6210	-15.6520	48.3414	99.9475	
   452	-6.5307	 7.1359	 0.6052	-13.6666	-7.0685	 7.5840	 0.5155	-14.6525	-7.7124	 7.7231	 0.0106	-15.4355	48.9858	99.9456	
   453	-6.8237	 6.9175	 0.0938	-13.7412	-7.3425	 7.3076	-0.0349	-14.6501	-7.9755	 7.4549	-0.5207	-15.4304	49.1789	99.9487	
   454	-7.1987	 6.5926	-0.6061	-13.7913	-7.7034	 6.9786	-0.7248	-14.6820	-8.2625	 7.0524	-1.2102	-15.3149	49.6420	99.9454	
   455	-7.5815	 6.2631	-1.3184	-13.8446	-8.0509	 6.6577	-1.3932	-14.7086	-8.5484	 6.7813	-1.7672	-15.3296	49.7085	99.9494	
   456	-7.8736	 6.0595	-1.8141	-13.9331	-8.3657	 6.4550	-1.9108	-14.8207	-8.9092	 6.5956	-2.3136	-15.5048	49.4137	99.9494	
   457	-8.2643	 5.7253	-2.5390	-13.9895	-8.7972	 6.1325	-2.6647	-14.9297	-9.3248	 6.2242	-3.1008	-15.5490	49.4386	99.9463	
   458	-8.7064	 5.2885	-3.4179	-13.9949	-9.1439	 5.7137	-3.4302	-14.8576	-9.6692	 6.0266	-3.6427	-15.6959	48.9816	99.9585	
   459	-8.9749	 5.4864	-3.4885	-14.4613	-9.3669	 6.2062	-3.1608	-15.5731	-9.8250	 6.7388	-3.0864	-16.5638	47.3902	99.9605	
   460	-8.7375	 6.6899	-2.0476	-15.4275	-9.0116	 7.4422	-1.5695	-16.4538	-9.4658	 7.9915	-1.4744	-17.4573	46.8934	99.9586	
   461	-8.6031	 7.3011	-1.3020	-15.9043	-8.9755	 8.0668	-0.9087	-17.0423	-9.5005	 8.5263	-0.9743	-18.0268	46.3109	99.9523	
   462	-8.6537	 7.3426	-1.3111	-15.9963	-8.9071	 8.0220	-0.8851	-16.9292	-9.3273	 8.3695	-0.9579	-17.6968	47.4541	99.9494	
   463	-7.8534	 7.1762	-0.6772	-15.0295	-7.9302	 7.7394	-0.1908	-15.6697	-8.2271	 7.9565	-0.2707	-16.1836	49.6618	99.9462	
   464	-6.9685	 6.9026	-0.0659	-13.8710	-6.8516	 7.5430	 0.6914	-14.3946	-7.0616	 8.0407	 0.9790	-15.1023	50.1063	99.9605	
   465	-5.5037	 7.2200	 1.7163	-12.7236	-5.5682	 7.8764	 2.3082	-13.4445	-6.3325	 8.5582	 2.2257	-14.8907	48.3336	99.9588	
   466	-5.7365	 7.1236	 1.3872	-12.8601	-5.9975	 7.8135	 1.8160	-13.8110	-6.5692	 8.2515	 1.6822	-14.8207	48.8512	99.9518	
   467	-5.8977	 7.2136	 1.3158	-13.1113	-6.4134	 7.7588	 1.3453	-14.1722	-7.0709	 7.9697	 0.8986	-15.0406	48.8721	99.9455	
   468	-6.2064	 7.1149	 0.9085	-13.3213	-6.7669	 7.5573	 0.7904	-14.3242	-7.3837	 7.6169	 0.2331	-15.0006	49.4945	99.9415	
   469	-6.6110	 6.9301	 0.3191	-13.5411	-7.1992	 7.3328	 0.1336	-14.5319	-7.8310	 7.4007	-0.4304	-15.2317	49.3335	99.9440	
   470	-6.9624	 6.7484	-0.2140	-13.7108	-7.5348	 7.1052	-0.4297	-14.6400	-8.1596	 7.0711	-1.0886	-15.2306	49.7478	99.9380	
   471	-7.3932	 6.3758	-1.0174	-13.7690	-7.9320	 6.7050	-1.2271	-14.6370	-8.5986	 6.6855	-1.9133	-15.2841	49.7467	99.9377	
   472	-8.0175	 5.8012	-2.2163	-13.8188	-8.5914	 6.1216	-2.4698	-14.7131	-9.2868	 6.1927	-3.0942	-15.4795	49.3071	99.9445	
   473	-8.9165	 5.3205	-3.5960	-14.2370	-9.3838	 5.6916	-3.6922	-15.0754	-10.0932	 5.9335	-4.1598	-16.0267	48.5973	99.9510	
   474	-9.5712	 6.0331	-3.5380	-15.6043	-9.8515	 6.8604	-2.9911	-16.7119	-10.3476	 7.4796	-2.8680	-17.8272	46.2098	99.9581	
   475	-9.0758	 6.9895	-2.0862	-16.0653	-9.4462	 7.6222	-1.8241	-17.0684	-10.0962	 7.9586	-2.1377	-18.0549	46.6112	99.9453	
   476	-9.2685	 6.9316	-2.3369	-16.2000	-9.6178	 7.5553	-2.0625	-17.1731	-10.1055	 7.7787	-2.3270	-17.8842	47.4031	99.9424	
   477	-8.4637	 6.8395	-1.6243	-15.3032	-8.4790	 7.2845	-1.1944	-15.7635	-8.7322	 7.3892	-1.3431	-16.1215	50.4784	99.9434	
   478	-7.0645	 6.4291	-0.6353	-13.4936	-6.9829	 7.0576	 0.0747	-14.0405	-7.0813	 7.5493	 0.4679	-14.6306	50.6273	99.9639	
   479	-5.1845	 7.2389	 2.0543	-12.4234	-5.2451	 7.9979	 2.7528	-13.2431	-5.8353	 8.4232	 2.5878	-14.2586	49.4449	99.9423	
   480	-5.5072	 7.1605	 1.6533	-12.6676	-5.9945	 7.7538	 1.7593	-13.7483	-6.5890	 7.9780	 1.3888	-14.5670	49.2351	99.9458	
   481	-6.1158	 6.9827	 0.8669	-13.0984	-6.6339	 7.4040	 0.7701	-14.0379	-7.2392	 7.4537	 0.2144	-14.6929	49.8939	99.9412	
   482	-6.5447	 6.8980	 0.3533	-13.4427	-7.0276	 7.2889	 0.2614	-14.3165	-7.6444	 7.3937	-0.2508	-15.0382	49.6540	99.9454	
   483	-6.7243	 6.9340	 0.2096	-13.6583	-7.1917	 7.3496	 0.1578	-14.5413	-7.8111	 7.4563	-0.3549	-15.2674	49.4589	99.9438	
   484	-6.8464	 6.9183	 0.0719	-13.7646	-7.3024	 7.3318	 0.0294	-14.6342	-7.9386	 7.4009	-0.5378	-15.3396	49.4942	99.9400	
   485	-7.0539	 6.7367	-0.3173	-13.7906	-7.5073	 7.1341	-0.3733	-14.6414	-8.1848	 7.2411	-0.9438	-15.4258	49.3128	99.9420	
   486	-7.5335	 6.5643	-0.9692	-14.0978	-7.9656	 7.0168	-0.9488	-14.9824	-8.5386	 7.1904	-1.3483	-15.7290	49.0818	99.9471	
   487	-7.8631	 6.3670	-1.4961	-14.2301	-8.1950	 6.7305	-1.4646	-14.9255	-8.7209	 6.7313	-1.9896	-15.4522	50.2162	99.9373	
   488	-8.2198	 5.9671	-2.2527	-14.1868	-8.7000	 6.4742	-2.2258	-15.1742	-9.4999	 6.7830	-2.7170	-16.2829	47.6876	99.9469	
   489	-8.7637	 6.5021	-2.2616	-15.2658	-9.1170	 7.1816	-1.9354	-16.2986	-9.7680	 7.5143	-2.2538	-17.2823	47.0982	99.9421	
   490	-8.6460	 6.7017	-1.9443	-15.3477	-8.9833	 7.2624	-1.7209	-16.2458	-9.5259	 7.4865	-2.0395	-17.0124	48.0738	99.9437	
   491	-7.6311	 6.7067	-0.9244	-14.3378	-7.5579	 7.1527	-0.4051	-14.7106	-7.7497	 7.2211	-0.5287	-14.9707	51.6222	99.9411	
   492	-5.9746	 6.2925	 0.3179	-12.2672	-5.8427	 7.0337	 1.1910	-12.8764	-5.8690	 7.6618	 1.7927	-13.5308	50.9920	99.9683	
   493	-4.7208	 6.8853	 2.1645	-11.6061	-4.9026	 7.7868	 2.8842	-12.6894	-5.1305	 8.0325	 2.9019	-13.1630	50.7169	99.9378	
   494	-5.2326	 6.8085	 1.5759	-12.0410	-5.6705	 7.3347	 1.6642	-13.0052	-6.2555	 7.4170	 1.1614	-13.6725	50.4600	99.9375	
   495	-5.7801	 6.7676	 0.9875	-12.5477	-6.2320	 7.2165	 0.9845	-13.4485	-6.7724	 7.2785	 0.5060	-14.0509	50.5063	99.9416	
   496	-6.1585	 6.6415	 0.4829	-12.8000	-6.5595	 7.0184	 0.4590	-13.5779	-7.0607	 7.0714	 0.0106	-14.1320	50.8368	99.9445	
   497	-6.3103	 6.5076	 0.1974	-12.8179	-6.6166	 6.9224	 0.3057	-13.5390	-7.0250	 6.9949	-0.0302	-14.0199	51.1547	99.9449	
   498	-6.3652	 6.4747	 0.1095	-12.8399	-6.6389	 6.8720	 0.2331	-13.5109	-7.0273	 6.9499	-0.0775	-13.9772	51.3186	99.9461	
   499	-6.4254	 6.4818	 0.0564	-12.9071	-6.6946	 6.9121	 0.2175	-13.6067	-7.0484	 6.9807	-0.0677	-14.0291	51.3034	99.9448	
   500	-6.4297	 6.5365	 0.1068	-12.9662	-6.6702	 7.0007	 0.3306	-13.6709	-6.9788	 7.1209	 0.1420	-14.0997	51.1924	99.9478	
   501	-6.1489	 6.6759	 0.5270	-12.8248	-6.3352	 7.2156	 0.8804	-13.5508	-6.6000	 7.4374	 0.8373	-14.0373	50.9918	99.9517	
   502	-5.5543	 6.8741	 1.3198	-12.4284	-5.6378	 7.4529	 1.8150	-13.0907	-5.8498	 7.8151	 1.9653	-13.6649	51.0940	99.9590	
   503	-4.7252	 6.8110	 2.0858	-11.5361	-4.7851	 7.4765	 2.6914	-12.2616	-4.9813	 7.8503	 2.8689	-12.8316	51.4700	99.9564	
   504	-4.2927	 6.6969	 2.4041	-10.9896	-4.3105	 7.4315	 3.1210	-11.7419	-4.5111	 7.8515	 3.3403	-12.3626	51.5750	99.9556	
   505	-4.0434	 6.6883	 2.6450	-10.7317	-4.0668	 7.4066	 3.3398	-11.4734	-4.3310	 7.8298	 3.4987	-12.1608	51.6023	99.9549	
   506	-3.9588	 6.7103	 2.7515	-10.6691	-4.1195	 7.3870	 3.2675	-11.5065	-4.4496	 7.7253	 3.2755	-12.1749	51.5038	99.9520	
   507	-4.0948	 6.5858	 2.4910	-10.6806	-4.2420	 7.1653	 2.9233	-11.4073	-4.5735	 7.4105	 2.8369	-11.9841	52.1028	99.9496	
   508	-4.3015	 6.1608	 1.8593	-10.4624	-4.4156	 6.7281	 2.3125	-11.1438	-4.5962	 6.9718	 2.3755	-11.5680	52.7790	99.9537	
   509	-3.9528	 6.0397	 2.0869	-9.9925	-3.9076	 6.7033	 2.7957	-10.6108	-4.0295	 7.0859	 3.0563	-11.1154	52.9142	99.9572	
   510	-3.4855	 6.1329	 2.6475	-9.6184	-3.3980	 6.8146	 3.4166	-10.2127	-3.5927	 7.2086	 3.6158	-10.8013	52.9707	99.9545	
   511	-3.3503	 6.2425	 2.8922	-9.5928	-3.3691	 6.8690	 3.4999	-10.2381	-3.6061	 7.1678	 3.5616	-10.7739	53.0588	99.9517	
   512	-3.3617	 6.1784	 2.8167	-9.5400	-3.3802	 6.7885	 3.4083	-10.1687	-3.6488	 7.1093	 3.4604	-10.7581	53.0042	99.9529	
   513	-3.4314	 6.1510	 2.7195	-9.5824	-3.4849	 6.7621	 3.2771	-10.2470	-3.7482	 7.0491	 3.3008	-10.7973	53.0061	99.9514	
   514	-3.4550	 6.1369	 2.6819	-9.5918	-3.4797	 6.7406	 3.2609	-10.2203	-3.7149	 7.0366	 3.3216	-10.7515	53.1363	99.9526	
   515	-3.2047	 6.1432	 2.9385	-9.3479	-3.1960	 6.7400	 3.5440	-9.9360	-3.4131	 7.0667	 3.6535	-10.4798	53.3387	99.9549	
   516	-3.0016	 6.1214	 3.1198	-9.1229	-2.9902	 6.7291	 3.7389	-9.7193	-3.2172	 7.0218	 3.8045	-10.2389	53.5281	99.9519	
   517	-2.9754	 6.0509	 3.0755	-9.0264	-2.9434	 6.6467	 3.7033	-9.5901	-3.1487	 6.9215	 3.7727	-10.0702	53.7850	99.9515	
   518	-2.9205	 5.9547	 3.0342	-8.8752	-2.8914	 6.5429	 3.6515	-9.4342	-3.1300	 6.8457	 3.7156	-9.9757	53.7386	99.9528	
   519	-2.8874	 5.8741	 2.9867	-8.7615	-2.8750	 6.4913	 3.6163	-9.3662	-3.0949	 6.7580	 3.6630	-9.8528	53.8423	99.9499	
   520	-2.8927	 5.7849	 2.8923	-8.6776	-2.8378	 6.3538	 3.5160	-9.1916	-3.0773	 6.6596	 3.5823	-9.7369	53.9852	99.9532	
   521	-2.7698	 5.5573	 2.7875	-8.3270	-2.7456	 6.0528	 3.3073	-8.7984	-2.9660	 6.1821	 3.2160	-9.1481	54.9486	99.9456	
   522	-2.8414	 5.1128	 2.2714	-7.9541	-2.7751	 5.5429	 2.7678	-8.3180	-2.8804	 5.6454	 2.7649	-8.5258	55.8859	99.9495	
   523	-2.8475	 4.8796	 2.0321	-7.7271	-2.6918	 5.1996	 2.5079	-7.8914	-2.9399	 5.1517	 2.2117	-8.0916	56.7351	99.9363	
   524	-3.7561	 4.4935	 0.7374	-8.2496	-3.7768	 4.7279	 0.9511	-8.5047	-4.0047	 4.6054	 0.6006	-8.6100	56.6196	99.9395	
   525	-4.4152	 4.4862	 0.0710	-8.9014	-4.4008	 4.8672	 0.4664	-9.2680	-4.5627	 4.9869	 0.4240	-9.5496	55.2475	99.9512	
   526	-4.6192	 4.7514	 0.1323	-9.3706	-4.4678	 5.1588	 0.6911	-9.6266	-4.4365	 5.2376	 0.8010	-9.6741	55.7693	99.9503	
   527	-3.8597	 4.9192	 1.0594	-8.7789	-3.4286	 5.2829	 1.8543	-8.7116	-3.2400	 5.2643	 2.0243	-8.5043	57.5467	99.9450	
   528	-2.7577	 4.7325	 1.9748	-7.4902	-2.2431	 5.1511	 2.9081	-7.3942	-2.0978	 5.3344	 3.2365	-7.4322	57.6113	99.9539	
   529	-1.6713	 5.0529	 3.3816	-6.7242	-1.1566	 5.6484	 4.4918	-6.8049	-1.2413	 6.0163	 4.7749	-7.2575	56.3868	99.9515	
   530	-1.4333	 4.9802	 3.5469	-6.4135	-1.3311	 5.5305	 4.1995	-6.8616	-1.4810	 5.7622	 4.2811	-7.2432	56.0246	99.9513	
   531	-1.6774	 4.9488	 3.2714	-6.6262	-1.5375	 5.4180	 3.8804	-6.9555	-1.7447	 5.5917	 3.8470	-7.3364	56.2824	99.9483	
   532	-2.0340	 4.9362	 2.9022	-6.9702	-1.9119	 5.3023	 3.3904	-7.2141	-2.1569	 5.3967	 3.2397	-7.5536	56.5133	99.9465	
   533	-2.3915	 4.9087	 2.5172	-7.3002	-2.2788	 5.2034	 2.9246	-7.4821	-2.4598	 5.2352	 2.7753	-7.6950	56.8674	99.9477	
   534	-2.3784	 4.8735	 2.4950	-7.2519	-2.2557	 5.1558	 2.9001	-7.4115	-2.3884	 5.1912	 2.8027	-7.5796	57.0643	99.9499	
   535	-2.3898	 4.8093	 2.4195	-7.1991	-2.3054	 5.0765	 2.7711	-7.3820	-2.4568	 5.0735	 2.6166	-7.5304	57.1391	99.9481	
   536	-2.6836	 4.7051	 2.0215	-7.3887	-2.6255	 4.8952	 2.2697	-7.5208	-2.8105	 4.8050	 1.9943	-7.6155	57.4217	99.9447	
   537	-3.1737	 4.4835	 1.3099	-7.6572	-3.1343	 4.6860	 1.5517	-7.8202	-3.2421	 4.5656	 1.3235	-7.8077	57.4964	99.9445	
   538	-3.4012	 4.3473	 0.9461	-7.7485	-3.3370	 4.5264	 1.1895	-7.8634	-3.4303	 4.4299	 0.9995	-7.8602	57.5575	99.9472	
   539	-3.3733	 4.3066	 0.9333	-7.6799	-3.2411	 4.5106	 1.2694	-7.7517	-3.2385	 4.4152	 1.1766	-7.6537	57.9061	99.9477	
   540	-2.9339	 4.3114	 1.3775	-7.2454	-2.8029	 4.5050	 1.7021	-7.3079	-2.8309	 4.4113	 1.5803	-7.2421	58.1106	99.9476	
   541	-2.7186	 4.2395	 1.5209	-6.9581	-2.5882	 4.4257	 1.8375	-7.0139	-2.6419	 4.3403	 1.6983	-6.9823	58.2250	99.9478	
   542	-2.6105	 4.1464	 1.5360	-6.7569	-2.4522	 4.3234	 1.8712	-6.7757	-2.5337	 4.2424	 1.7085	-6.7761	58.3736	99.9471	
   543	-2.4815	 4.0229	 1.5414	-6.5043	-2.3794	 4.2445	 1.8651	-6.6239	-2.4588	 4.1569	 1.6980	-6.6157	58.2959	99.9457	
   544	-2.4396	 3.9618	 1.5222	-6.4015	-2.3318	 4.1748	 1.8430	-6.5066	-2.4062	 4.0798	 1.6735	-6.4860	58.4422	99.9456	
   545	-2.3760	 3.8852	 1.5092	-6.2612	-2.2716	 4.1005	 1.8289	-6.3721	-2.3079	 4.0085	 1.7005	-6.3164	58.5996	99.9471	
   546	-2.0988	 3.8360	 1.7372	-5.9347	-1.9277	 4.0256	 2.0979	-5.9533	-1.9605	 3.9354	 1.9748	-5.8959	59.0307	99.9473	
   547	-1.8860	 3.7194	 1.8334	-5.6055	-1.7286	 3.9000	 2.1714	-5.6285	-1.7932	 3.7751	 1.9819	-5.5683	59.2757	99.9445	
   548	-1.8599	 3.5199	 1.6600	-5.3798	-1.7277	 3.6913	 1.9636	-5.4191	-1.7662	 3.5299	 1.7636	-5.2961	59.5909	99.9436	
   549	-1.8678	 3.2570	 1.3892	-5.1248	-1.7796	 3.3524	 1.5728	-5.1320	-1.8362	 3.0516	 1.2153	-4.8878	60.3437	99.9368	
   550	-2.2437	 2.6590	 0.4153	-4.9027	-2.2443	 2.6777	 0.4333	-4.9220	-2.4032	 2.3815	-0.0218	-4.7848	60.4023	99.9392	
   551	-2.5733	 2.4617	-0.1116	-5.0350	-2.3721	 2.5881	 0.2161	-4.9602	-2.3301	 2.3713	 0.0410	-4.7014	60.6714	99.9418	
   552	-2.2150	 2.5041	 0.2891	-4.7190	-1.9071	 2.7094	 0.8023	-4.6165	-1.7091	 2.5510	 0.8418	-4.2601	60.9765	99.9454	
   553	-1.4477	 2.8056	 1.3580	-4.2533	-1.1600	 3.0260	 1.8660	-4.1859	-1.0513	 2.8946	 1.8432	-3.9459	60.7889	99.9447	
   554	-1.3029	 2.9496	 1.6467	-4.2525	-1.0412	 3.1839	 2.1427	-4.2251	-0.9233	 3.0702	 2.1468	-3.9934	60.6206	99.9464	
   555	-0.9567	 3.0421	 2.0853	-3.9988	-0.6245	 3.2514	 2.6269	-3.8759	-0.4707	 3.1697	 2.6990	-3.6404	60.9479	99.9498	
   556	-0.3700	 2.9773	 2.6073	-3.3473	 0.0039	 3.1886	 3.1925	-3.1847	 0.1165	 3.1328	 3.2492	-3.0163	61.2251	99.9497	
   557	-0.3508	 2.7880	 2.4371	-3.1388	-0.1802	 3.0157	 2.8355	-3.1960	-0.2215	 2.9500	 2.7285	-3.1715	60.5829	99.9475	
   558	-0.3936	 2.8341	 2.4406	-3.2277	-0.1981	 3.0419	 2.8438	-3.2399	-0.2279	 2.9352	 2.7073	-3.1631	60.7980	99.9453	
   559	-0.3770	 2.7293	 2.3523	-3.1063	-0.2574	 2.9075	 2.6501	-3.1650	-0.3044	 2.7690	 2.4645	-3.0735	60.8794	99.9454	
   560	-0.4538	 2.5829	 2.1292	-3.0367	-0.3235	 2.7692	 2.4457	-3.0926	-0.3131	 2.6003	 2.2870	-2.9134	61.1714	99.9443	
   561	-0.4913	 2.4601	 1.9688	-2.9513	-0.3509	 2.6295	 2.2786	-2.9805	-0.3710	 2.4672	 2.0961	-2.8382	61.2342	99.9443	
   562	-0.5349	 2.3622	 1.8273	-2.8971	-0.3962	 2.5161	 2.1199	-2.9122	-0.4335	 2.3531	 1.9194	-2.7866	61.2972	99.9445	
   563	-0.6003	 2.2800	 1.6797	-2.8803	-0.4585	 2.4414	 1.9829	-2.9000	-0.5090	 2.3183	 1.8092	-2.8273	61.1499	99.9465	
   564	-0.5933	 2.2699	 1.6766	-2.8632	-0.3753	 2.4302	 2.0549	-2.8056	-0.3557	 2.3239	 1.9680	-2.6796	61.4310	99.9484	
   565	-0.2978	 2.2747	 1.9769	-2.5724	-0.0463	 2.4324	 2.3861	-2.4787	-0.0312	 2.3568	 2.3255	-2.3880	61.5595	99.9501	
   566	-0.1705	 2.2504	 2.0800	-2.4209	 0.0451	 2.4508	 2.4958	-2.4057	 0.0419	 2.3466	 2.3884	-2.3047	61.4846	99.9461	
   567	-0.2088	 2.2418	 2.0330	-2.4506	 0.0124	 2.4433	 2.4557	-2.4309	 0.0244	 2.3360	 2.3603	-2.3116	61.5221	99.9462	
   568	-0.2237	 2.2473	 2.0236	-2.4709	 0.0124	 2.4433	 2.4557	-2.4309	 0.0308	 2.3508	 2.3815	-2.3199	61.5260	99.9474	
   569	-0.2176	 2.2223	 2.0047	-2.4398	 0.0622	 2.4119	 2.4741	-2.3497	 0.1150	 2.3363	 2.4513	-2.2213	61.6832	99.9492	
   570	-0.1740	 2.1910	 2.0170	-2.3649	 0.1714	 2.4041	 2.5755	-2.2328	 0.2408	 2.3579	 2.5986	-2.1172	61.7379	99.9493	
   571	 0.0527	 2.1832	 2.2359	-2.1305	 0.4351	 2.3914	 2.8265	-1.9563	 0.5601	 2.2897	 2.8497	-1.7296	62.2542	99.9466	
   572	 0.2558	 2.0323	 2.2881	-1.7764	 0.6684	 2.1881	 2.8564	-1.5197	 0.7485	 2.0985	 2.8469	-1.3500	62.5740	99.9480	
   573	 0.3430	 1.8406	 2.1836	-1.4976	 0.8126	 2.0046	 2.8172	-1.1921	 0.8842	 1.8756	 2.7597	-0.9913	62.9693	99.9429	
   574	 0.1878	 1.6473	 1.8350	-1.4595	 0.6151	 1.7130	 2.3280	-1.0979	 0.5896	 1.5447	 2.1342	-0.9551	63.1893	99.9422	
   575	 0.0099	 1.4547	 1.4646	-1.4448	 0.4918	 1.6999	 2.1917	-1.2081	 0.7170	 1.7090	 2.4259	-0.9919	62.7380	99.9534	
   576	 0.3586	 1.5918	 1.9504	-1.2331	 0.7584	 1.7381	 2.4966	-0.9797	 0.8089	 1.6229	 2.4317	-0.8140	62.9910	99.9456	
   577	 0.3979	 1.4861	 1.8840	-1.0883	 0.8847	 1.6915	 2.5762	-0.8068	 1.1259	 1.6186	 2.7443	-0.4927	63.3464	99.9502	
   578	 0.7100	 1.5152	 2.2252	-0.8052	 1.2004	 1.6856	 2.8860	-0.4852	 1.3294	 1.6110	 2.9403	-0.2816	63.3774	99.9483	
   579	 0.7510	 1.4393	 2.1902	-0.6883	 1.2213	 1.5998	 2.8210	-0.3785	 1.3417	 1.5203	 2.8619	-0.1786	63.4449	99.9486	
   580	 0.7849	 1.3736	 2.1585	-0.5886	 1.2257	 1.5656	 2.7913	-0.3399	 1.3458	 1.4901	 2.8358	-0.1443	63.3372	99.9479	
   581	 0.8137	 1.3478	 2.1615	-0.5340	 1.2673	 1.5047	 2.7720	-0.2373	 1.3710	 1.4291	 2.8000	-0.0581	63.4776	99.9488	
   582	 0.8259	 1.2977	 2.1236	-0.4718	 1.2585	 1.4624	 2.7208	-0.2039	 1.3850	 1.3722	 2.7571	 0.0128	63.5482	99.9486	
   583	 0.8311	 1.2578	 2.0889	-0.4266	 1.2956	 1.4356	 2.7312	-0.1400	 1.4406	 1.3513	 2.7918	 0.0892	63.6245	99.9483	
   584	 1.0578	 1.2500	 2.3078	-0.1922	 1.5534	 1.4316	 2.9849	 0.1218	 1.7330	 1.3104	 3.0433	 0.4227	63.9878	99.9459	
   585	 1.1903	 1.1859	 2.3762	 0.0044	 1.6455	 1.3520	 2.9975	 0.2935	 1.7646	 1.2641	 3.0286	 0.5005	63.8408	99.9481	
   586	 1.1328	 1.1084	 2.2412	 0.0244	 1.5905	 1.2942	 2.8847	 0.2964	 1.7161	 1.2021	 2.9181	 0.5141	63.8401	99.9469	
   587	 1.1380	 1.0685	 2.2065	 0.0695	 1.5824	 1.2646	 2.8470	 0.3178	 1.7699	 1.1474	 2.9173	 0.6225	64.0205	99.9469	
   588	 1.1423	 1.0137	 2.1561	 0.1286	 1.5854	 1.2049	 2.7903	 0.3805	 1.7231	 1.1191	 2.8422	 0.6040	63.8751	99.9478	
   589	 1.1022	 0.9754	 2.0776	 0.1269	 1.5564	 1.1505	 2.7069	 0.4059	 1.6746	 1.0571	 2.7316	 0.6176	63.9433	99.9471	
   590	 1.1171	 0.9699	 2.0870	 0.1472	 1.5817	 1.1412	 2.7229	 0.4405	 1.7366	 1.0510	 2.7875	 0.6856	64.0538	99.9485	
   591	 1.3054	 0.9535	 2.2589	 0.3518	 1.7763	 1.1605	 2.9368	 0.6158	 1.9407	 1.0547	 2.9953	 0.8861	64.1299	99.9459	
   592	 1.3490	 0.9222	 2.2712	 0.4267	 1.8127	 1.1210	 2.9337	 0.6917	 1.9565	 1.0315	 2.9879	 0.9250	64.0933	99.9470	
   593	 1.3097	 0.8988	 2.2085	 0.4110	 1.7964	 1.0619	 2.8583	 0.7345	 1.9033	 0.9884	 2.8916	 0.9149	64.1261	99.9481	
   594	 1.3001	 0.8643	 2.1645	 0.4358	 1.7377	 1.0510	 2.7887	 0.6867	 1.8729	 0.9482	 2.8211	 0.9247	64.1239	99.9468	
   595	 1.2234	 0.8471	 2.0705	 0.3763	 1.6523	 1.0240	 2.6763	 0.6283	 1.7969	 0.9022	 2.6990	 0.8947	64.1925	99.9464	
   596	 1.1162	 0.8259	 1.9421	 0.2902	 1.5461	 0.9720	 2.5181	 0.5741	 1.6817	 0.8652	 2.5468	 0.8165	64.1893	99.9486	
   597	 1.1318	 0.8353	 1.9672	 0.2965	 1.5788	 0.9795	 2.5583	 0.5993	 1.7326	 0.8633	 2.5958	 0.8693	64.2986	99.9483	
   598	 1.1606	 0.8095	 1.9701	 0.3511	 1.5706	 0.9500	 2.5206	 0.6207	 1.6911	 0.8273	 2.5183	 0.8638	64.2224	99.9477	
   599	 1.0673	 0.7680	 1.8353	 0.2993	 1.4904	 0.9014	 2.3919	 0.5890	 1.5659	 0.8169	 2.3828	 0.7490	64.0406	99.9490	
   600	 1.0150	 0.7797	 1.7947	 0.2353	 1.4020	 0.9341	 2.3361	 0.4679	 1.5197	 0.7999	 2.3195	 0.7199	64.1106	99.9464	
   601	 0.9479	 0.7969	 1.7448	 0.1510	 1.3500	 0.9272	 2.2773	 0.4228	 1.4466	 0.8101	 2.2566	 0.6365	64.0730	99.9478	
   602	 0.8642	 0.7898	 1.6540	 0.0743	 1.2914	 0.9164	 2.2077	 0.3750	 1.3993	 0.7706	 2.1697	 0.6287	64.2161	99.9457	
   603	 0.7421	 0.7742	 1.5163	-0.0320	 1.2186	 0.8846	 2.1032	 0.3339	 1.3461	 0.7275	 2.0734	 0.6186	64.3967	99.9451	
   604	 0.7543	 0.7241	 1.4784	 0.0302	 1.2312	 0.8800	 2.1112	 0.3512	 1.3753	 0.7451	 2.1204	 0.6302	64.2567	99.9450	
   605	 0.6628	 0.7123	 1.3751	-0.0495	 1.1837	 0.8389	 2.0226	 0.3447	 1.3174	 0.7210	 2.0383	 0.5964	64.3283	99.9463	
   606	 0.5895	 0.7545	 1.3441	-0.1650	 1.1086	 0.8797	 1.9883	 0.2290	 1.2636	 0.7756	 2.0391	 0.4880	64.2577	99.9482	
   607	 0.5843	 0.7944	 1.3788	-0.2101	 1.0789	 0.9232	 2.0021	 0.1557	 1.2197	 0.8036	 2.0232	 0.4162	64.1834	99.9469	
   608	 0.5102	 0.8218	 1.3320	-0.3116	 1.0284	 0.9418	 1.9702	 0.0865	 1.1595	 0.8434	 2.0027	 0.3161	64.1122	99.9480	
   609	 0.4727	 0.8281	 1.3008	-0.3553	 0.9660	 0.9779	 1.9439	-0.0119	 1.1103	 0.8790	 1.9893	 0.2313	63.9689	99.9475	
   610	 0.5059	 0.8766	 1.3824	-0.3707	 1.0595	 1.0345	 2.0941	 0.0250	 1.2372	 0.9231	 2.1603	 0.3141	64.1552	99.9460	
   611	 0.5678	 0.8993	 1.4671	-0.3315	 1.0937	 1.0675	 2.1612	 0.0262	 1.2553	 0.9450	 2.2002	 0.3104	64.0821	99.9447	
   612	 0.4937	 0.9267	 1.4203	-0.4330	 0.9838	 1.0625	 2.0463	-0.0787	 1.0910	 0.9436	 2.0345	 0.1474	63.9300	99.9456	
   613	 0.4047	 0.9595	 1.3642	-0.5548	 0.8567	 1.0964	 1.9531	-0.2396	 0.9840	 0.9551	 1.9390	 0.0289	63.8904	99.9454	
   614	 0.3873	 1.0495	 1.4368	-0.6622	 0.8797	 1.1595	 2.0392	-0.2798	 0.9816	 1.0191	 2.0006	-0.0375	63.9269	99.9450	
   615	 0.3838	 1.1191	 1.5030	-0.7353	 0.8508	 1.2158	 2.0665	-0.3650	 0.9436	 1.0506	 1.9941	-0.1070	63.9232	99.9441	
   616	 0.3620	 1.1348	 1.4968	-0.7727	 0.8463	 1.2500	 2.0963	-0.4037	 0.9793	 1.0830	 2.0622	-0.1038	63.9641	99.9440	
   617	 0.4859	 1.1802	 1.6660	-0.6943	 0.9570	 1.2677	 2.2247	-0.3108	 1.0354	 1.0734	 2.1087	-0.0380	64.0312	99.9418	
   618	 0.4152	 1.1379	 1.5531	-0.7227	 0.8210	 1.2593	 2.0803	-0.4383	 0.9108	 1.0743	 1.9851	-0.1635	63.7753	99.9427	
   619	 0.3176	 1.1512	 1.4688	-0.8336	 0.7452	 1.2873	 2.0325	-0.5420	 0.8839	 1.1016	 1.9855	-0.2177	63.8159	99.9430	
   620	 0.2888	 1.1770	 1.4658	-0.8882	 0.7074	 1.3013	 2.0086	-0.5939	 0.8061	 1.1308	 1.9369	-0.3247	63.6678	99.9436	
   621	 0.2522	 1.1981	 1.4503	-0.9459	 0.6821	 1.3106	 1.9927	-0.6285	 0.7839	 1.1392	 1.9230	-0.3553	63.7038	99.9440	
   622	 0.2679	 1.2075	 1.4754	-0.9396	 0.7096	 1.3395	 2.0491	-0.6300	 0.8371	 1.1823	 2.0193	-0.3452	63.6733	99.9447	
   623	 0.3760	 1.2435	 1.6196	-0.8675	 0.7890	 1.3753	 2.1643	-0.5862	 0.8997	 1.1875	 2.0870	-0.2878	63.7065	99.9425	
   624	 0.3071	 1.2310	 1.5381	-0.9239	 0.7044	 1.3610	 2.0653	-0.6566	 0.7973	 1.1800	 1.9772	-0.3827	63.5942	99.9428	
   625	 0.2478	 1.2529	 1.5007	-1.0050	 0.6338	 1.3675	 2.0013	-0.7337	 0.7125	 1.1832	 1.8956	-0.4706	63.5538	99.9431	
   626	 0.2104	 1.2591	 1.4695	-1.0488	 0.5706	 1.3908	 1.9615	-0.8202	 0.6505	 1.1892	 1.8397	-0.5387	63.4786	99.9415	
   627	 0.1650	 1.2607	 1.4257	-1.0957	 0.5439	 1.3747	 1.9186	-0.8307	 0.5886	 1.1953	 1.7838	-0.6068	63.4039	99.9424	
   628	 0.1336	 1.2419	 1.3755	-1.1083	 0.5320	 1.3921	 1.9241	-0.8600	 0.6348	 1.2124	 1.8470	-0.5776	63.4485	99.9421	
   629	 0.2635	 1.2623	 1.5258	-0.9987	 0.6806	 1.3958	 2.0764	-0.7152	 0.7330	 1.2500	 1.9829	-0.5170	63.3779	99.9434	
   630	 0.1938	 1.2349	 1.4287	-1.0411	 0.5907	 1.4029	 1.9936	-0.8122	 0.6482	 1.2532	 1.9013	-0.6050	63.2320	99.9419	
   631	 0.1659	 1.2756	 1.4414	-1.1096	 0.5795	 1.4331	 2.0127	-0.8536	 0.6441	 1.2834	 1.9274	-0.6393	63.2697	99.9423	
   632	 0.1511	 1.2810	 1.4321	-1.1299	 0.5364	 1.4686	 2.0050	-0.9321	 0.6283	 1.3065	 1.9347	-0.6783	63.1984	99.9414	
   633	 0.0909	 1.2880	 1.3790	-1.1971	 0.4904	 1.4530	 1.9434	-0.9626	 0.5441	 1.3210	 1.8649	-0.7769	63.0869	99.9432	
   634	 0.1145	 1.3021	 1.4166	-1.1877	 0.5706	 1.5015	 2.0721	-0.9309	 0.6435	 1.3811	 2.0245	-0.7376	63.0988	99.9417	
   635	 0.2069	 1.3288	 1.5357	-1.1219	 0.6174	 1.5298	 2.1472	-0.9124	 0.6499	 1.3959	 2.0457	-0.7460	62.9839	99.9402	
   636	 0.0386	 1.2998	 1.3384	-1.2612	 0.4228	 1.5105	 1.9333	-1.0877	 0.4727	 1.3649	 1.8375	-0.8922	62.9055	99.9399	
   637	-0.0477	 1.3772	 1.3295	-1.4249	 0.4079	 1.5876	 1.9955	-1.1797	 0.4902	 1.4845	 1.9746	-0.9943	62.8832	99.9427	
   638	 0.0543	 1.4383	 1.4926	-1.3839	 0.4621	 1.6327	 2.0948	-1.1706	 0.5077	 1.4951	 2.0028	-0.9874	62.8741	99.9408	
   639	 0.0125	 1.4993	 1.5118	-1.4868	 0.3945	 1.6902	 2.0847	-1.2958	 0.4142	 1.5475	 1.9615	-1.1333	62.7232	99.9402	
   640	 0.1415	 1.6339	 1.7755	-1.4924	 0.5096	 1.7845	 2.2940	-1.2749	 0.4919	 1.6272	 2.1190	-1.1353	62.7555	99.9403	
   641	 0.1817	 1.6723	 1.8540	-1.4906	 0.5177	 1.8140	 2.3317	-1.2963	 0.4744	 1.6166	 2.0909	-1.1422	62.7831	99.9374	
   642	 0.0735	 1.6363	 1.7098	-1.5627	 0.3365	 1.8028	 2.1393	-1.4663	 0.2925	 1.6046	 1.8970	-1.3121	62.5181	99.9377	
   643	-0.0468	 1.6503	 1.6035	-1.6971	 0.2526	 1.8012	 2.0538	-1.5487	 0.1925	 1.6422	 1.8345	-1.4497	62.4101	99.9402	
   644	-0.0808	 1.7160	 1.6353	-1.7968	 0.1678	 1.8976	 2.0655	-1.7298	 0.0831	 1.7176	 1.8006	-1.6345	62.1467	99.9371	
   645	-0.2142	 1.7653	 1.5511	-1.9794	 0.0037	 1.9583	 1.9619	-1.9546	-0.0819	 1.8140	 1.7320	-1.8958	61.8154	99.9401	
   646	-0.2508	 1.7864	 1.5356	-2.0371	-0.0120	 2.0226	 2.0107	-2.0346	-0.1047	 1.9200	 1.8152	-2.0247	61.5346	99.9403	
   647	-0.3005	 1.8427	 1.5423	-2.1432	-0.0588	 2.1050	 2.0462	-2.1638	-0.1673	 2.0238	 1.8564	-2.1911	61.2831	99.9400	
   648	-0.3937	 1.9303	 1.5366	-2.3240	-0.1509	 2.1846	 2.0337	-2.3355	-0.2428	 2.0980	 1.8551	-2.3408	61.2468	99.9406	
   649	-0.4713	 1.8982	 1.4269	-2.3695	-0.2854	 2.2017	 1.9163	-2.4871	-0.3878	 2.1410	 1.7530	-2.5288	60.8400	99.9409	
   650	-0.5350	 1.9749	 1.4399	-2.5098	-0.3448	 2.2888	 1.9439	-2.6336	-0.4411	 2.2068	 1.7656	-2.6479	60.8037	99.9388	
   651	-0.5977	 2.0664	 1.4687	-2.6641	-0.3917	 2.3712	 1.9795	-2.7628	-0.4867	 2.3100	 1.8231	-2.7967	60.6994	99.9406	
   652	-0.4809	 2.1220	 1.6411	-2.6029	-0.2914	 2.4318	 2.1404	-2.7232	-0.4493	 2.3762	 1.9268	-2.8255	60.5114	99.9389	
   653	-0.5428	 2.0993	 1.5565	-2.6421	-0.4036	 2.3886	 1.9850	-2.7921	-0.5979	 2.3517	 1.7537	-2.9496	60.3080	99.9414	
   654	-0.7111	 2.0703	 1.3592	-2.7813	-0.5633	 2.4150	 1.8517	-2.9783	-0.6915	 2.4040	 1.7125	-3.0955	60.1430	99.9426	
   655	-0.8044	 2.0288	 1.2244	-2.8331	-0.6279	 2.4128	 1.7849	-3.0407	-0.7394	 2.3532	 1.6137	-3.0926	60.2538	99.9364	
   656	-1.0738	 1.8245	 0.7507	-2.8983	-0.9190	 2.1752	 1.2563	-3.0942	-1.0545	 2.0644	 1.0098	-3.1189	60.4308	99.9333	
   657	-1.3519	 1.7297	 0.3777	-3.0816	-1.1559	 2.0935	 0.9376	-3.2494	-1.2212	 2.0180	 0.7968	-3.2392	60.4423	99.9370	
   658	-1.2822	 1.7571	 0.4749	-3.0393	-1.0445	 2.1239	 1.0795	-3.1684	-1.1499	 2.0830	 0.9330	-3.2329	60.3428	99.9371	
   659	-1.2246	 1.8346	 0.6100	-3.0592	-1.0074	 2.2079	 1.2005	-3.2153	-1.1125	 2.1492	 1.0367	-3.2617	60.3063	99.9359	
   660	-1.2438	 1.8948	 0.6510	-3.1386	-1.0356	 2.2769	 1.2413	-3.3126	-1.1195	 2.2322	 1.1126	-3.3517	60.2038	99.9376	
   661	-1.2089	 1.9731	 0.7642	-3.1820	-0.9926	 2.3522	 1.3596	-3.3447	-1.0868	 2.3173	 1.2305	-3.4041	60.1361	99.9381	
   662	-1.1435	 2.0553	 0.9118	-3.1988	-0.9681	 2.4408	 1.4727	-3.4089	-1.0546	 2.3913	 1.3365	-3.4459	60.0616	99.9379	
   663	-1.1086	 2.1335	 1.0249	-3.2422	-0.9139	 2.4859	 1.5720	-3.3998	-1.0570	 2.4552	 1.3981	-3.5122	59.9834	99.9387	
   664	-0.9900	 2.2189	 1.2288	-3.2089	-0.7416	 2.5655	 1.8239	-3.3071	-0.8430	 2.5412	 1.6981	-3.3842	60.1948	99.9398	
   665	-0.7790	 2.3308	 1.5518	-3.1099	-0.5656	 2.7088	 2.1432	-3.2744	-0.6547	 2.6769	 2.0221	-3.3316	60.0999	99.9391	
   666	-0.7197	 2.4381	 1.7184	-3.1578	-0.5730	 2.6920	 2.1190	-3.2651	-0.8301	 2.5708	 1.7405	-3.4009	60.2094	99.9337	
   667	-1.0694	 2.2861	 1.2168	-3.3555	-1.1033	 2.4451	 1.3418	-3.5484	-1.4505	 2.2934	 0.8427	-3.7439	59.9233	99.9374	
   668	-1.2604	 1.9997	 0.7393	-3.2600	-1.2391	 2.1047	 0.8656	-3.3437	-1.4013	 1.9308	 0.5295	-3.3321	60.8346	99.9439	
   669	-0.8872	 1.9075	 1.0203	-2.7947	-0.7422	 2.1100	 1.3678	-2.8521	-0.7854	 1.9003	 1.1148	-2.6858	61.4526	99.9374	
   670	-0.5585	 1.8317	 1.2732	-2.3902	-0.3492	 1.9909	 1.6417	-2.3401	-0.4369	 1.8497	 1.4128	-2.2866	61.6529	99.9421	
   671	-0.3937	 1.9303	 1.5366	-2.3240	-0.0596	 2.2030	 2.1434	-2.2625	-0.0469	 2.1620	 2.1150	-2.2089	61.4671	99.9447	
   672	-0.2708	 2.0900	 1.8192	-2.3608	-0.0336	 2.3171	 2.2835	-2.3507	-0.0797	 2.1858	 2.1061	-2.2655	61.5089	99.9405	
   673	-0.3815	 2.0094	 1.6279	-2.3909	-0.2609	 2.1796	 1.9188	-2.4405	-0.4083	 1.9651	 1.5568	-2.3734	61.4879	99.9357	
   674	-0.8062	 1.7408	 0.9347	-2.5470	-0.7844	 1.9368	 1.1523	-2.7212	-0.8942	 1.7691	 0.8749	-2.6633	61.0917	99.9416	
   675	-0.9989	 1.6829	 0.6840	-2.6817	-0.9553	 1.8827	 0.9274	-2.8379	-1.0831	 1.7311	 0.6479	-2.8142	60.9734	99.9414	
   676	-1.0520	 1.6797	 0.6277	-2.7317	-1.0191	 1.8932	 0.8741	-2.9124	-1.1456	 1.7259	 0.5802	-2.8716	60.9319	99.9396	
   677	-1.1209	 1.6672	 0.5463	-2.7881	-1.1372	 1.8587	 0.7215	-2.9959	-1.3059	 1.6943	 0.3884	-3.0002	60.7603	99.9406	
   678	-1.3040	 1.6436	 0.3396	-2.9476	-1.3489	 1.8783	 0.5294	-3.2272	-1.4685	 1.7267	 0.2581	-3.1952	60.5391	99.9417	
   679	-1.3310	 1.6992	 0.3682	-3.0302	-1.3660	 1.9172	 0.5511	-3.2832	-1.4831	 1.7723	 0.2891	-3.2554	60.5407	99.9429	
   680	-1.3999	 1.6866	 0.2867	-3.0865	-1.4641	 1.8948	 0.4307	-3.3588	-1.6264	 1.7401	 0.1137	-3.3665	60.4075	99.9417	
   681	-1.5525	 1.6670	 0.1145	-3.2195	-1.6074	 1.8696	 0.2621	-3.4770	-1.7574	 1.7262	-0.0312	-3.4836	60.3668	99.9430	
   682	-1.5281	 1.6960	 0.1679	-3.2241	-1.5376	 1.9610	 0.4233	-3.4986	-1.6387	 1.8308	 0.1920	-3.4694	60.3249	99.9415	
   683	-1.4600	 1.8228	 0.3627	-3.2828	-1.4136	 2.0975	 0.6838	-3.5111	-1.5188	 1.9578	 0.4388	-3.4766	60.3806	99.9388	
   684	-1.4252	 1.9010	 0.4759	-3.3262	-1.3364	 2.2057	 0.8693	-3.5421	-1.4142	 2.1192	 0.7049	-3.5334	60.2271	99.9415	
   685	-1.3807	 1.8846	 0.5039	-3.2653	-1.3112	 2.1964	 0.8852	-3.5076	-1.4481	 2.1204	 0.6722	-3.5686	60.0310	99.9403	
   686	-1.5246	 1.8846	 0.3600	-3.4091	-1.4077	 2.1995	 0.7917	-3.6072	-1.5546	 2.1432	 0.5885	-3.6978	59.9610	99.9401	
   687	-1.5830	 1.9213	 0.3384	-3.5043	-1.4583	 2.2181	 0.7599	-3.6764	-1.6277	 2.1534	 0.5257	-3.7811	59.9519	99.9393	
   688	-1.6396	 1.9878	 0.3482	-3.6274	-1.4873	 2.2744	 0.7872	-3.7617	-1.6259	 2.1872	 0.5612	-3.8131	60.1063	99.9385	
   689	-1.5515	 2.0692	 0.5177	-3.6208	-1.4026	 2.2887	 0.8861	-3.6913	-1.6101	 2.1641	 0.5538	-3.7742	60.2681	99.9366	
   690	-1.6448	 2.0277	 0.3829	-3.6726	-1.5638	 2.2896	 0.7259	-3.8534	-1.7458	 2.1691	 0.4232	-3.9150	60.0005	99.9373	
   691	-1.7102	 2.0747	 0.3644	-3.7849	-1.6002	 2.3291	 0.7290	-3.9293	-1.8055	 2.2202	 0.4146	-4.0257	59.9265	99.9370	
   692	-1.7407	 2.0707	 0.3300	-3.8115	-1.6514	 2.3350	 0.6836	-3.9865	-1.8564	 2.2221	 0.3656	-4.0785	59.8470	99.9366	
   693	-1.7939	 2.0676	 0.2737	-3.8615	-1.7101	 2.3242	 0.6140	-4.0343	-1.8967	 2.2086	 0.3117	-4.1053	59.8822	99.9377	
   694	-1.8855	 2.0558	 0.1703	-3.9413	-1.7866	 2.3394	 0.5528	-4.1260	-1.9389	 2.2703	 0.3313	-4.2091	59.7140	99.9408	
   695	-1.7826	 2.1318	 0.3492	-3.9143	-1.6552	 2.3820	 0.7268	-4.0372	-1.8482	 2.2706	 0.4223	-4.1188	59.9301	99.9370	
   696	-1.7983	 2.1224	 0.3241	-3.9206	-1.6552	 2.3820	 0.7268	-4.0372	-1.8587	 2.2861	 0.4272	-4.1448	59.8599	99.9369	
   697	-1.8523	 2.1044	 0.2520	-3.9567	-1.7770	 2.3944	 0.6174	-4.1714	-1.9705	 2.3165	 0.3460	-4.2870	59.5548	99.9389	
   698	-1.8637	 2.1693	 0.3056	-4.0329	-1.7614	 2.4408	 0.6793	-4.2022	-1.9570	 2.3574	 0.4002	-4.3144	59.6326	99.9387	
   699	-1.9081	 2.1857	 0.2776	-4.0938	-1.8030	 2.5017	 0.6987	-4.3047	-1.9658	 2.4065	 0.4406	-4.3723	59.5702	99.9364	
   700	-1.9508	 2.2319	 0.2810	-4.1827	-1.8528	 2.5331	 0.6803	-4.3859	-2.0149	 2.4422	 0.4271	-4.4571	59.5294	99.9378	
   701	-1.9343	 2.2561	 0.3219	-4.1904	-1.7941	 2.5440	 0.7498	-4.3381	-1.9711	 2.5232	 0.5520	-4.4943	59.3996	99.9426	
   702	-1.8558	 2.3031	 0.4473	-4.1589	-1.6998	 2.6133	 0.9135	-4.3132	-1.8495	 2.5750	 0.7254	-4.4245	59.4907	99.9407	
   703	-1.8532	 2.3477	 0.4945	-4.2009	-1.7095	 2.6690	 0.9595	-4.3785	-1.8805	 2.6325	 0.7519	-4.5130	59.3399	99.9398	
   704	-1.8165	 2.4557	 0.6392	-4.2722	-1.6836	 2.7831	 1.0995	-4.4667	-1.8460	 2.7515	 0.9053	-4.5975	59.2377	99.9405	
   705	-1.7747	 2.5238	 0.7491	-4.2984	-1.6539	 2.8503	 1.1964	-4.5041	-1.8203	 2.8106	 0.9902	-4.6309	59.2010	99.9401	
   706	-1.7773	 2.6083	 0.8310	-4.3856	-1.6249	 2.9047	 1.2797	-4.5296	-1.8321	 2.9125	 1.0803	-4.7445	59.0584	99.9432	
   707	-1.7886	 2.6733	 0.8847	-4.4618	-1.6591	 2.9824	 1.3233	-4.6415	-1.8192	 2.9421	 1.1228	-4.7613	59.1704	99.9411	
   708	-1.6874	 2.7195	 1.0320	-4.4069	-1.5202	 3.0418	 1.5216	-4.5620	-1.6917	 2.9974	 1.3056	-4.6891	59.2232	99.9388	
   709	-1.7014	 2.7398	 1.0384	-4.4412	-1.5633	 3.0772	 1.5139	-4.6406	-1.7362	 3.0141	 1.2778	-4.7503	59.1419	99.9371	
   710	-1.7676	 2.7719	 1.0042	-4.5395	-1.5938	 3.1080	 1.5142	-4.7018	-1.7596	 3.1089	 1.3492	-4.8685	58.9777	99.9416	
   711	-1.8043	 2.7930	 0.9887	-4.5972	-1.6488	 3.1609	 1.5121	-4.8097	-1.7596	 3.1089	 1.3492	-4.8685	59.0913	99.9383	
   712	-1.7702	 2.8564	 1.0861	-4.6266	-1.5641	 3.1752	 1.6111	-4.7393	-1.6719	 3.1620	 1.4900	-4.8339	59.2168	99.9428	
   713	-1.6560	 2.8674	 1.2113	-4.5234	-1.5314	 3.1827	 1.6512	-4.7141	-1.6947	 3.0501	 1.3553	-4.7448	59.3537	99.9334	
   714	-1.5671	 2.8345	 1.2674	-4.4016	-1.4720	 3.0956	 1.6236	-4.5676	-1.6490	 2.9470	 1.2979	-4.5960	59.5564	99.9354	
   715	-1.6980	 2.4119	 0.7140	-4.1099	-1.7733	 2.5689	 0.7955	-4.3422	-2.0705	 2.3541	 0.2835	-4.4245	59.6972	99.9350	
   716	-2.2159	 1.9728	-0.2432	-4.1887	-2.2954	 2.2408	-0.0546	-4.5362	-2.5032	 2.2012	-0.3021	-4.7044	59.0049	99.9459	
   717	-2.1383	 2.1340	-0.0043	-4.2723	-2.1521	 2.4874	 0.3352	-4.6395	-2.1863	 2.5237	 0.3373	-4.7100	58.9579	99.9515	
   718	-1.6875	 2.5903	 0.9029	-4.2778	-1.5536	 2.9109	 1.3573	-4.4645	-1.5759	 2.9367	 1.3607	-4.5126	59.3663	99.9501	
   719	-1.6779	 2.4957	 0.8178	-4.1735	-1.8276	 2.6345	 0.8069	-4.4621	-2.1617	 2.4514	 0.2896	-4.6131	59.3399	99.9392	
   720	-2.2142	 2.1316	-0.0825	-4.3458	-2.3712	 2.2688	-0.1024	-4.6400	-2.6452	 1.9735	-0.6718	-4.6188	59.8147	99.9318	
   721	-2.6912	 1.2292	-1.4620	-3.9205	-2.9740	 1.3260	-1.6480	-4.3000	-3.3725	 1.1629	-2.2097	-4.5353	59.3593	99.9427	
   722	-3.2781	 0.7775	-2.5006	-4.0556	-3.5072	 1.0281	-2.4791	-4.5353	-3.8233	 0.9881	-2.8353	-4.8114	58.7704	99.9453	
   723	-3.5667	 0.6335	-2.9333	-4.2002	-3.8095	 0.9314	-2.8781	-4.7408	-4.1087	 0.9462	-3.1626	-5.0549	58.3799	99.9476	
   724	-3.6661	 0.6170	-3.0491	-4.2831	-3.8800	 0.9379	-2.9421	-4.8179	-4.1643	 0.9670	-3.1973	-5.1313	58.3151	99.9474	
   725	-3.5850	 0.8377	-2.7473	-4.4227	-3.7828	 1.1689	-2.6139	-4.9518	-4.0345	 1.1763	-2.8583	-5.2108	58.3437	99.9461	
   726	-3.2292	 1.3519	-1.8773	-4.5811	-3.3069	 1.7028	-1.6040	-5.0097	-3.4920	 1.7008	-1.7912	-5.1928	58.5619	99.9444	
   727	-2.4975	 1.9476	-0.5499	-4.4452	-2.4960	 2.2302	-0.2657	-4.7262	-2.6710	 2.1323	-0.5388	-4.8033	59.2682	99.9397	
   728	-2.3005	 2.0799	-0.2205	-4.3804	-2.2902	 2.3300	 0.0398	-4.6203	-2.4810	 2.1928	-0.2882	-4.6738	59.4962	99.9376	
   729	-2.2926	 2.0846	-0.2080	-4.3773	-2.2264	 2.3195	 0.0931	-4.5458	-2.3967	 2.1784	-0.2184	-4.5751	59.7353	99.9375	
   730	-2.4644	 1.8671	-0.5974	-4.3315	-2.4625	 2.1397	-0.3228	-4.6022	-2.6131	 2.0475	-0.5657	-4.6606	59.4216	99.9415	
   731	-2.5525	 1.9148	-0.6377	-4.4672	-2.4915	 2.1960	-0.2955	-4.6875	-2.6219	 2.0966	-0.5253	-4.7185	59.5119	99.9398	
   732	-2.4871	 1.9969	-0.4901	-4.4840	-2.3244	 2.2971	-0.0273	-4.6215	-2.4014	 2.1974	-0.2042	-4.5988	59.7804	99.9383	
   733	-2.2857	 2.0745	-0.2112	-4.3601	-2.1291	 2.3291	 0.2001	-4.4582	-2.2681	 2.2563	-0.0120	-4.5244	59.7397	99.9409	
   734	-2.0991	 2.1575	 0.0584	-4.2565	-1.9590	 2.3705	 0.4115	-4.3294	-2.1476	 2.2856	 0.1378	-4.4332	59.8044	99.9409	
   735	-2.0729	 2.2162	 0.1433	-4.2891	-1.9545	 2.4470	 0.4924	-4.4015	-2.1453	 2.3306	 0.1851	-4.4759	59.7636	99.9379	
   736	-1.9988	 2.1888	 0.1900	-4.1876	-1.8959	 2.4578	 0.5620	-4.3537	-1.9658	 2.4065	 0.4406	-4.3723	59.7328	99.9458	
   737	-1.5471	 2.4018	 0.8547	-3.9489	-1.2497	 2.7010	 1.4513	-3.9508	-1.2448	 2.6576	 1.4127	-3.9024	60.3035	99.9433	
   738	-1.2576	 2.5607	 1.3031	-3.8184	-1.0366	 2.8176	 1.7810	-3.8542	-1.0805	 2.7680	 1.6874	-3.8484	60.2191	99.9453	
   739	-1.0414	 2.6328	 1.5914	-3.6742	-0.9208	 2.9246	 2.0038	-3.8454	-1.0086	 2.8442	 1.8355	-3.8528	59.9488	99.9421	
   740	-1.1399	 2.6312	 1.4913	-3.7711	-1.0129	 2.8935	 1.8807	-3.9064	-1.1595	 2.8836	 1.7240	-4.0431	59.6463	99.9468	
   741	-1.2812	 2.6758	 1.3946	-3.9569	-1.1310	 2.9697	 1.8387	-4.1007	-1.2420	 2.9318	 1.6897	-4.1737	59.6538	99.9437	
   742	-1.3230	 2.7368	 1.4138	-4.0598	-1.1681	 2.9964	 1.8283	-4.1646	-1.3420	 2.9693	 1.6272	-4.3113	59.5273	99.9439	
   743	-1.4363	 2.7407	 1.3043	-4.1770	-1.3108	 2.9840	 1.6732	-4.2947	-1.4741	 2.9329	 1.4587	-4.4071	59.5466	99.9439	
   744	-1.4895	 2.7375	 1.2480	-4.2270	-1.3308	 2.9718	 1.6410	-4.3026	-1.4566	 2.9435	 1.4868	-4.4001	59.6350	99.9466	
   745	-1.4006	 2.7047	 1.3041	-4.1053	-1.3219	 2.9034	 1.5816	-4.2253	-1.5396	 2.8715	 1.3318	-4.4111	59.4462	99.9469	
   746	-1.6395	 2.6334	 0.9939	-4.2729	-1.5907	 2.8269	 1.2362	-4.4177	-1.8045	 2.7875	 0.9828	-4.5920	59.3469	99.9472	
   747	-1.7886	 2.6733	 0.8847	-4.4618	-1.6628	 2.9187	 1.2559	-4.5815	-1.8367	 2.9314	 1.0946	-4.7682	59.1643	99.9480	
   748	-1.7659	 2.8016	 1.0357	-4.5675	-1.5834	 3.0651	 1.4817	-4.6485	-1.7455	 3.0520	 1.3064	-4.7976	59.2598	99.9443	
   749	-1.7057	 2.9237	 1.2180	-4.6294	-1.5314	 3.1827	 1.6512	-4.7141	-1.7737	 3.1658	 1.3920	-4.9394	59.0259	99.9416	
   750	-1.6542	 3.0262	 1.3720	-4.6804	-1.4862	 3.2961	 1.8100	-4.7823	-1.6684	 3.2295	 1.5610	-4.8979	59.2232	99.9395	
   751	-1.4546	 3.0740	 1.6194	-4.5286	-1.3540	 3.3515	 1.9975	-4.7055	-1.6187	 3.3140	 1.6952	-4.9328	58.8406	99.9402	
   752	-1.5392	 3.0521	 1.5129	-4.5912	-1.4609	 3.2868	 1.8259	-4.7477	-1.7415	 3.2397	 1.4981	-4.9812	58.8886	99.9416	
   753	-1.7423	 2.9448	 1.2025	-4.6871	-1.7067	 3.1627	 1.4560	-4.8695	-1.9807	 3.1059	 1.1251	-5.0865	58.8566	99.9429	
   754	-2.0013	 2.7898	 0.7885	-4.7911	-2.0127	 3.0023	 0.9896	-5.0150	-2.2730	 2.9289	 0.6558	-5.2020	58.8201	99.9433	
   755	-2.5593	 2.5705	 0.0112	-5.1298	-2.7383	 2.7234	-0.0150	-5.4617	-3.0834	 2.4821	-0.6015	-5.5655	58.8149	99.9333	
   756	-3.2691	 2.3465	-0.9226	-5.6155	-3.4298	 2.5881	-0.8417	-6.0179	-3.7220	 2.1828	-1.5393	-5.9048	58.9906	99.9137	
   757	-3.3780	 2.5538	-0.8242	-5.9318	-3.5508	 2.5026	-1.0483	-6.0534	-4.3090	 1.7839	-2.5252	-6.0929	59.6583	99.8732	
   758	-4.0565	 1.8321	-2.2244	-5.8886	-4.6112	 1.6767	-2.9346	-6.2879	-5.5871	 0.9450	-4.6422	-6.5321	58.7508	99.8801	
   759	-5.3853	 1.1227	-4.2626	-6.5080	-6.0334	 0.8411	-5.1922	-6.8745	-7.1325	-0.0230	-7.1556	-7.1095	58.8740	99.8661	
   760	-5.9652	 1.0482	-4.9170	-7.0133	-6.7969	 0.6869	-6.1100	-7.4838	-8.0266	-0.2263	-8.2530	-7.8004	58.1806	99.8644	
   761	-5.9504	 0.9136	-5.0368	-6.8639	-6.8043	 0.6701	-6.1342	-7.4744	-8.1530	-0.1502	-8.3032	-8.0028	57.1331	99.8588	
   762	-6.2285	 0.8188	-5.4097	-7.0473	-6.8853	 0.6088	-6.2764	-7.4941	-8.1834	-0.0814	-8.2649	-8.1020	57.1066	99.8677	
   763	-6.4107	 0.6810	-5.7297	-7.0918	-7.0850	 0.5003	-6.5847	-7.5853	-8.3202	-0.2078	-8.5281	-8.1124	57.1862	99.8677	
   764	-6.2860	 0.9996	-5.2864	-7.2856	-6.9782	 0.7864	-6.1918	-7.7645	-8.2577	 0.0153	-8.2425	-8.2730	57.1708	99.8600	
   765	-5.9747	 1.4011	-4.5736	-7.3758	-6.7874	 1.1847	-5.6027	-7.9721	-7.9748	 0.4481	-7.5269	-8.4229	56.8383	99.8785	
   766	-5.5064	 1.8966	-3.6098	-7.4030	-6.3969	 1.5808	-4.8160	-7.9777	-7.5790	 0.7639	-6.8152	-8.3429	57.1834	99.8814	
   767	-5.3843	 1.9123	-3.4721	-7.2966	-6.3954	 1.4956	-4.8997	-7.8910	-7.6737	 0.5758	-7.0979	-8.2495	57.4086	99.8753	
   768	-5.4759	 1.7714	-3.7045	-7.2473	-6.5312	 1.3765	-5.1547	-7.9078	-7.6667	 0.6019	-7.0649	-8.2685	57.1247	99.9023	
   769	-5.4602	 1.7808	-3.6794	-7.2410	-6.1971	 1.6894	-4.5078	-7.8865	-6.9048	 1.2046	-5.7003	-8.1094	57.0060	99.9232	
   770	-5.1245	 1.9530	-3.1715	-7.0775	-5.5050	 2.0588	-3.4462	-7.5637	-6.2488	 1.6234	-4.6255	-7.8722	57.0594	99.9016	
   771	-4.9162	 1.7622	-3.1540	-6.6783	-5.2568	 1.8890	-3.3678	-7.1458	-5.9189	 1.3218	-4.5971	-7.2407	58.0426	99.8881	
   772	-4.4812	 1.4344	-3.0467	-5.9156	-4.7709	 1.4817	-3.2891	-6.2526	-5.1415	 1.0185	-4.1231	-6.1601	59.3528	99.9190	
   773	-3.6999	 1.7156	-1.9843	-5.4155	-3.8158	 1.9363	-1.8795	-5.7521	-3.9025	 1.7575	-2.1451	-5.6600	59.1499	99.9415	
   774	-2.5672	 2.5658	-0.0014	-5.1330	-2.4709	 2.7744	 0.3034	-5.2453	-2.5086	 2.6447	 0.1360	-5.1533	59.6249	99.9440	
   775	-1.8017	 2.7085	 0.9068	-4.5101	-1.9398	 2.8126	 0.8728	-4.7525	-2.2436	 2.4019	 0.1582	-4.6455	60.0622	99.9222	
   776	-2.2691	 1.9696	-0.2995	-4.2387	-2.5307	 1.8524	-0.6783	-4.3832	-3.1193	 1.2398	-1.8795	-4.3591	60.8637	99.9053	
   777	-3.9616	 1.2578	-2.7038	-5.2193	-4.4775	 1.5361	-2.9413	-6.0136	-5.1388	 1.5106	-3.6283	-6.6494	56.2574	99.9390	
   778	-4.1411	 1.6810	-2.4600	-5.8221	-4.3906	 1.6994	-2.6912	-6.0900	-4.8457	 1.3719	-3.4739	-6.2176	58.8835	99.9292	
   779	-3.9659	 1.0543	-2.9116	-5.0203	-4.2262	 1.0853	-3.1409	-5.3115	-4.7111	 0.9085	-3.8026	-5.6196	58.8466	99.9404	
   780	-4.0218	 0.8775	-3.1443	-4.8992	-4.4379	 0.9942	-3.4437	-5.4321	-4.9765	 0.8133	-4.1634	-5.7898	58.1600	99.9370	
   781	-4.1647	 1.2796	-2.8851	-5.4443	-4.2086	 1.5019	-2.7066	-5.7105	-4.4047	 1.2465	-3.1583	-5.6512	59.3842	99.9284	
   782	-3.5352	 1.2978	-2.2374	-4.8330	-3.5363	 1.4165	-2.1198	-4.9528	-3.8327	 1.1350	-2.6978	-4.9677	60.0406	99.9273	
   783	-3.0652	 1.4357	-1.6295	-4.5009	-3.0201	 1.6425	-1.3776	-4.6627	-3.2018	 1.3969	-1.8049	-4.5987	60.1648	99.9293	
   784	-2.4993	 1.6597	-0.8397	-4.1590	-2.5389	 1.8229	-0.7160	-4.3618	-2.7702	 1.5274	-1.2430	-4.2976	60.3126	99.9283	
   785	-2.4008	 1.6613	-0.7396	-4.0621	-2.4431	 1.8070	-0.6360	-4.2501	-2.6924	 1.4982	-1.1944	-4.1906	60.4228	99.9275	
   786	-2.4000	 1.6761	-0.7238	-4.0761	-2.5151	 1.7881	-0.7270	-4.3032	-2.8024	 1.4534	-1.3490	-4.2558	60.3535	99.9276	
   787	-2.5186	 1.4617	-1.0569	-3.9802	-2.6517	 1.5455	-1.1061	-4.1972	-2.9304	 1.2779	-1.6526	-4.2082	60.3048	99.9358	
   788	-2.2674	 1.6120	-0.6554	-3.8794	-2.2403	 1.8559	-0.3844	-4.0962	-2.3375	 1.6803	-0.6573	-4.0178	60.2819	99.9377	
   789	-1.8096	 1.9291	 0.1194	-3.7387	-1.7086	 2.1283	 0.4197	-3.8368	-1.8592	 1.9479	 0.0886	-3.8071	60.5003	99.9364	
   790	-1.6265	 2.0817	 0.4552	-3.7082	-1.5118	 2.2965	 0.7847	-3.8083	-1.6236	 2.1232	 0.4996	-3.7468	60.5284	99.9374	
   791	-1.3571	 2.2861	 0.9290	-3.6431	-1.2043	 2.4824	 1.2781	-3.6868	-1.3061	 2.2391	 0.9330	-3.5452	60.9148	99.9323	
   792	-1.3161	 2.3393	 1.0232	-3.6554	-1.2036	 2.4952	 1.2916	-3.6988	-1.3482	 2.3008	 0.9525	-3.6490	60.6826	99.9381	
   793	-1.2847	 2.3581	 1.0734	-3.6428	-1.2623	 2.4843	 1.2220	-3.7466	-1.4640	 2.2525	 0.7885	-3.7165	60.5729	99.9368	
   794	-1.4312	 2.3134	 0.8822	-3.7446	-1.4531	 2.4181	 0.9649	-3.8712	-1.6347	 2.1274	 0.4926	-3.7621	60.7348	99.9349	
   795	-1.4504	 2.2446	 0.7942	-3.6949	-1.4695	 2.3590	 0.8895	-3.8285	-1.6429	 2.0789	 0.4359	-3.7217	60.7364	99.9354	
   796	-1.4216	 2.2187	 0.7971	-3.6403	-1.4576	 2.3416	 0.8840	-3.7991	-1.6206	 2.0705	 0.4498	-3.6912	60.7007	99.9365	
   797	-1.4391	 2.1796	 0.7406	-3.6186	-1.4657	 2.3120	 0.8463	-3.7778	-1.6546	 2.0718	 0.4171	-3.7264	60.5515	99.9373	
   798	-1.5263	 2.1131	 0.5868	-3.6393	-1.5935	 2.2225	 0.6290	-3.8159	-1.7966	 1.9531	 0.1564	-3.7498	60.6015	99.9365	
   799	-1.6884	 2.0590	 0.3706	-3.7474	-1.7257	 2.1671	 0.4415	-3.8928	-1.9259	 1.9730	 0.0470	-3.8989	60.3836	99.9419	
   800	-1.7033	 2.0645	 0.3612	-3.7677	-1.7762	 2.1858	 0.4096	-3.9620	-1.9721	 1.9559	-0.0163	-3.9280	60.3734	99.9394	
   801	-1.7966	 2.0230	 0.2264	-3.8195	-1.8950	 2.1385	 0.2435	-4.0335	-2.1037	 1.9308	-0.1730	-4.0344	60.2111	99.9415	
   802	-1.6501	 2.0676	 0.4176	-3.7177	-1.7375	 2.1845	 0.4470	-3.9221	-1.9475	 1.9926	 0.0449	-3.9401	60.2252	99.9425	
   803	-1.5384	 2.1631	 0.6247	-3.7016	-1.6484	 2.2753	 0.6269	-3.9238	-1.8318	 2.0408	 0.2090	-3.8726	60.3785	99.9410	
   804	-1.5576	 2.2234	 0.6658	-3.7810	-1.6388	 2.3304	 0.6916	-3.9692	-1.8563	 2.1131	 0.2567	-3.9695	60.2679	99.9408	
   805	-1.5716	 2.2437	 0.6722	-3.8153	-1.6633	 2.3525	 0.6891	-4.0158	-1.8721	 2.1363	 0.2640	-4.0084	60.2305	99.9413	
   806	-1.5838	 2.2938	 0.7100	-3.8776	-1.6604	 2.4034	 0.7431	-4.0638	-1.8318	 2.1498	 0.3179	-3.9816	60.4244	99.9393	
   807	-1.5532	 2.2977	 0.7445	-3.8510	-1.6604	 2.4034	 0.7431	-4.0638	-1.8429	 2.1540	 0.3110	-3.9969	60.3428	99.9402	
   808	-1.5245	 2.2719	 0.7474	-3.7964	-1.5846	 2.3755	 0.7909	-3.9601	-1.7809	 2.1479	 0.3669	-3.9288	60.3905	99.9404	
   809	-1.3501	 2.2759	 0.9258	-3.6260	-1.3766	 2.4028	 1.0262	-3.7795	-1.5809	 2.1818	 0.6007	-3.7627	60.4464	99.9387	
   810	-1.2463	 2.3667	 1.1204	-3.6130	-1.2422	 2.4964	 1.2542	-3.7387	-1.4552	 2.3123	 0.8570	-3.7675	60.3535	99.9405	
   811	-1.1897	 2.4293	 1.2397	-3.6189	-1.1620	 2.5449	 1.3829	-3.7070	-1.3289	 2.3452	 1.0162	-3.6741	60.5909	99.9412	
   812	-1.1836	 2.4043	 1.2207	-3.5878	-1.1783	 2.4859	 1.3075	-3.6642	-1.3792	 2.2494	 0.8701	-3.6285	60.7183	99.9394	
   813	-1.2315	 2.2321	 1.0006	-3.4636	-1.2815	 2.2635	 0.9820	-3.5450	-1.5095	 1.9199	 0.4103	-3.4293	61.1607	99.9335	
   814	-1.3946	 1.9050	 0.5103	-3.2996	-1.4671	 1.9545	 0.4874	-3.4215	-1.7766	 1.5729	-0.2038	-3.3495	61.1596	99.9259	
   815	-1.9126	 1.5949	-0.3177	-3.5075	-1.8755	 1.6951	-0.1804	-3.5706	-2.1041	 1.3747	-0.7294	-3.4788	61.1745	99.9282	
   816	-1.4470	 1.7876	 0.3406	-3.2345	-1.2376	 2.0195	 0.7819	-3.2570	-1.1451	 1.8461	 0.7009	-2.9912	61.4661	99.9416	
   817	-0.9657	 1.7314	 0.7657	-2.6971	-0.7012	 1.9256	 1.2243	-2.6268	-0.7877	 1.7464	 0.9585	-2.5341	61.6426	99.9354	
   818	-1.0398	 1.6296	 0.5898	-2.6695	-0.7948	 1.8690	 1.0742	-2.6638	-0.8117	 1.7210	 0.9092	-2.5327	61.5433	99.9386	
   819	-0.9980	 1.5686	 0.5706	-2.5666	-0.7918	 1.8093	 1.0175	-2.6011	-0.8427	 1.6695	 0.8268	-2.5122	61.4227	99.9389	
   820	-0.9928	 1.5287	 0.5359	-2.5215	-0.7747	 1.7704	 0.9957	-2.5451	-0.8561	 1.6287	 0.7725	-2.4848	61.4186	99.9372	
   821	-0.9797	 1.4935	 0.5138	-2.4732	-0.7628	 1.7530	 0.9902	-2.5158	-0.8117	 1.6120	 0.8003	-2.4237	61.4621	99.9375	
   822	-0.8271	 1.5131	 0.6860	-2.3402	-0.5548	 1.7804	 1.2255	-2.3352	-0.5789	 1.6221	 1.0431	-2.2010	61.7362	99.9353	
   823	-0.8149	 1.4630	 0.6481	-2.2780	-0.6105	 1.7098	 1.0993	-2.3203	-0.7321	 1.5076	 0.7754	-2.2397	61.6295	99.9306	
   824	-0.9414	 1.3730	 0.4316	-2.3144	-0.7687	 1.6510	 0.8823	-2.4197	-0.8818	 1.4606	 0.5787	-2.3424	61.4389	99.9309	
   825	-0.9789	 1.3793	 0.4004	-2.3581	-0.7814	 1.6557	 0.8743	-2.4370	-0.8818	 1.4606	 0.5787	-2.3424	61.5166	99.9304	
   826	-0.9658	 1.3440	 0.3783	-2.3098	-0.7902	 1.6134	 0.8231	-2.4036	-0.8952	 1.4198	 0.5244	-2.3150	61.5112	99.9313	
   827	-0.9893	 1.3300	 0.3406	-2.3193	-0.7984	 1.5839	 0.7854	-2.3823	-0.9245	 1.4021	 0.4775	-2.3266	61.5085	99.9319	
   828	-1.0364	 1.3018	 0.2654	-2.3382	-0.8251	 1.5677	 0.7425	-2.3928	-0.9198	 1.3831	 0.4632	-2.3029	61.5888	99.9317	
   829	-0.9074	 1.3073	 0.3999	-2.2146	-0.6640	 1.5668	 0.9028	-2.2307	-0.7730	 1.3739	 0.6008	-2.1469	61.7423	99.9299	
   830	-0.8777	 1.2963	 0.4186	-2.1741	-0.6268	 1.5400	 0.9132	-2.1668	-0.7572	 1.3508	 0.5935	-2.1079	61.7765	99.9301	
   831	-0.9091	 1.2775	 0.3684	-2.1867	-0.6988	 1.5211	 0.8222	-2.2199	-0.8151	 1.3266	 0.5114	-2.1417	61.7334	99.9313	
   832	-0.9710	 1.2548	 0.2838	-2.2259	-0.7583	 1.4974	 0.7392	-2.2557	-0.8577	 1.2681	 0.4103	-2.1258	61.8769	99.9289	
   833	-0.9876	 1.2306	 0.2430	-2.2182	-0.7857	 1.4685	 0.6828	-2.2542	-0.9203	 1.2629	 0.3425	-2.1832	61.7231	99.9300	
   834	-1.0722	 1.2086	 0.1365	-2.2808	-0.8711	 1.4414	 0.5703	-2.3126	-0.9969	 1.2057	 0.2087	-2.2026	61.8275	99.9280	
   835	-1.0975	 1.1648	 0.0673	-2.2623	-0.9046	 1.4212	 0.5167	-2.3258	-1.0080	 1.2098	 0.2017	-2.2179	61.7218	99.9299	
   836	-1.0216	 1.1672	 0.1456	-2.1888	-0.8080	 1.4181	 0.6101	-2.2261	-0.9408	 1.1961	 0.2552	-2.1368	61.7956	99.9275	
   837	-1.0521	 1.1633	 0.1111	-2.2154	-0.8295	 1.3805	 0.5510	-2.2100	-0.9817	 1.1713	 0.1895	-2.1530	61.8275	99.9295	
   838	-1.1149	 1.1257	 0.0108	-2.2406	-0.9521	 1.3802	 0.4281	-2.3323	-1.0846	 1.1526	 0.0679	-2.2372	61.6719	99.9281	
   839	-1.1838	 1.1131	-0.0707	-2.2969	-0.9929	 1.3432	 0.3503	-2.3361	-1.1542	 1.1214	-0.0329	-2.2756	61.7037	99.9280	
   840	-1.2379	 1.0951	-0.1427	-2.3330	-1.0769	 1.3416	 0.2648	-2.4185	-1.1963	 1.0741	-0.1223	-2.2704	61.8111	99.9255	
   841	-1.3059	 1.0974	-0.2084	-2.4033	-1.1541	 1.3441	 0.1900	-2.4982	-1.3033	 1.0856	-0.2178	-2.3889	61.6548	99.9252	
   842	-1.3146	 1.0779	-0.2367	-2.3924	-1.1549	 1.3314	 0.1765	-2.4862	-1.2747	 1.0921	-0.1827	-2.3667	61.6627	99.9276	
   843	-1.2919	 1.0771	-0.2148	-2.3690	-1.1162	 1.3301	 0.2139	-2.4463	-1.2630	 1.0991	-0.1639	-2.3621	61.6256	99.9267	
   844	-1.3529	 1.0693	-0.2837	-2.4222	-1.2009	 1.3158	 0.1149	-2.5167	-1.3712	 1.0881	-0.2831	-2.4593	61.5035	99.9270	
   845	-1.4201	 1.0865	-0.3336	-2.5065	-1.2522	 1.3217	 0.0696	-2.5739	-1.4156	 1.1048	-0.3109	-2.5205	61.5048	99.9285	
   846	-1.4349	 1.0919	-0.3430	-2.5268	-1.2900	 1.3357	 0.0457	-2.6258	-1.4332	 1.0942	-0.3390	-2.5274	61.5393	99.9273	
   847	-1.4576	 1.0927	-0.3649	-2.5503	-1.3287	 1.3370	 0.0083	-2.6656	-1.4560	 1.0913	-0.3648	-2.5473	61.5379	99.9280	
   848	-1.4951	 1.0989	-0.3961	-2.5940	-1.3547	 1.3335	-0.0211	-2.6882	-1.4887	 1.1151	-0.3737	-2.6038	61.4649	99.9304	
   849	-1.4183	 1.1162	-0.3021	-2.5345	-1.2173	 1.3674	 0.1502	-2.5847	-1.3449	 1.1585	-0.1864	-2.5034	61.5568	99.9289	
   850	-1.3564	 1.1389	-0.2175	-2.4953	-1.1526	 1.3696	 0.2170	-2.5222	-1.3203	 1.1952	-0.1252	-2.5155	61.4443	99.9314	
   851	-1.3704	 1.1592	-0.2111	-2.5296	-1.2203	 1.4271	 0.2069	-2.6474	-1.3537	 1.2077	-0.1460	-2.5614	61.4031	99.9282	
   852	-1.3939	 1.1451	-0.2488	-2.5390	-1.2292	 1.3848	 0.1557	-2.6140	-1.3560	 1.1627	-0.1934	-2.5187	61.5501	99.9295	
   853	-1.4314	 1.1514	-0.2800	-2.5828	-1.2678	 1.3861	 0.1183	-2.6539	-1.4051	 1.1984	-0.2069	-2.6035	61.4017	99.9324	
   854	-1.4977	 1.1835	-0.3142	-2.6811	-1.3294	 1.4349	 0.1054	-2.7643	-1.4273	 1.2067	-0.2207	-2.6341	61.5157	99.9293	
   855	-1.5046	 1.1936	-0.3110	-2.6982	-1.2916	 1.4209	 0.1293	-2.7125	-1.3806	 1.2350	-0.1457	-2.6156	61.5635	99.9336	
   856	-1.3965	 1.2297	-0.1669	-2.6262	-1.1794	 1.4641	 0.2847	-2.6435	-1.2771	 1.2650	-0.0122	-2.5420	61.6045	99.9316	
   857	-1.3634	 1.2782	-0.0852	-2.6415	-1.1586	 1.4890	 0.3304	-2.6476	-1.2701	 1.2910	 0.0208	-2.5611	61.6005	99.9329	
   858	-1.3154	 1.3212	 0.0058	-2.6366	-1.1111	 1.5301	 0.4189	-2.6412	-1.2057	 1.3299	 0.1241	-2.5357	61.6428	99.9336	
   859	-1.2273	 1.4026	 0.1753	-2.6300	-1.0101	 1.6034	 0.5933	-2.6135	-1.0888	 1.4007	 0.3118	-2.4895	61.7257	99.9343	
   860	-1.1323	 1.4739	 0.3416	-2.6062	-0.9299	 1.6519	 0.7220	-2.5819	-1.0350	 1.4551	 0.4199	-2.4901	61.6862	99.9355	
   861	-1.1009	 1.4927	 0.3918	-2.5936	-0.8824	 1.6930	 0.8106	-2.5754	-0.9947	 1.4686	 0.4738	-2.4632	61.7257	99.9311	
   862	-0.9535	 1.5522	 0.5987	-2.5057	-0.7249	 1.7390	 1.0141	-2.4639	-0.8766	 1.5618	 0.6852	-2.4384	61.5848	99.9342	
   863	-0.8646	 1.6485	 0.7839	-2.5131	-0.7057	 1.8491	 1.1434	-2.5547	-0.8742	 1.6068	 0.7325	-2.4811	61.5346	99.9291	
   864	-0.8428	 1.7619	 0.9192	-2.6047	-0.7265	 1.9349	 1.2084	-2.6614	-0.9520	 1.6360	 0.6839	-2.5881	61.5130	99.9245	
   865	-0.8305	 1.8410	 1.0104	-2.6715	-0.7763	 1.9663	 1.1900	-2.7426	-1.0614	 1.6026	 0.5411	-2.6639	61.5576	99.9205	
   866	-0.9221	 1.8292	 0.9071	-2.7513	-0.9471	 1.9122	 0.9651	-2.8593	-1.2462	 1.5343	 0.2881	-2.7805	61.4941	99.9235	
   867	-1.0712	 1.7400	 0.6688	-2.8112	-1.1261	 1.8285	 0.7025	-2.9546	-1.4134	 1.4767	 0.0632	-2.8901	61.3353	99.9268	
   868	-1.0555	 1.7494	 0.6938	-2.8049	-1.0704	 1.7884	 0.7181	-2.8588	-1.3690	 1.4600	 0.0910	-2.8290	61.4886	99.9303	
   869	-1.0947	 1.7259	 0.6311	-2.8206	-1.1721	 1.8130	 0.6409	-2.9851	-1.4579	 1.4934	 0.0354	-2.9512	61.1834	99.9305	
   870	-1.1924	 1.7391	 0.5467	-2.9315	-1.2613	 1.8329	 0.5716	-3.0942	-1.5204	 1.4882	-0.0323	-3.0086	61.2587	99.9287	
   871	-1.2848	 1.7125	 0.4277	-2.9973	-1.3637	 1.7340	 0.3703	-3.0978	-1.6888	 1.4081	-0.2809	-3.0969	61.2338	99.9320	
   872	-1.5691	 1.5137	-0.0554	-3.0827	-1.7358	 1.5459	-0.1899	-3.2817	-2.0356	 1.1656	-0.8701	-3.2011	61.2362	99.9297	
   873	-1.8969	 1.3461	-0.5509	-3.2430	-2.0477	 1.3941	-0.6536	-3.4419	-2.3016	 1.0590	-1.2427	-3.3606	61.1204	99.9338	
   874	-1.9981	 1.2999	-0.6982	-3.2980	-2.0485	 1.3814	-0.6671	-3.4298	-2.2344	 1.0452	-1.1892	-3.2796	61.3765	99.9318	
   875	-1.6450	 1.1239	-0.5211	-2.7689	-1.7178	 1.1877	-0.5301	-2.9055	-2.1793	 0.7952	-1.3842	-2.9745	61.2874	99.9159	
   876	-3.0034	 1.2002	-1.8032	-4.2035	-3.2941	 1.3661	-1.9280	-4.6602	-3.9374	 1.1915	-2.7460	-5.1289	58.3882	99.9275	
   877	-3.4951	 1.4653	-2.0298	-4.9603	-3.5156	 1.6627	-1.8529	-5.1783	-3.9048	 1.4946	-2.4103	-5.3994	59.0201	99.9294	
   878	-3.0242	 1.4889	-1.5353	-4.5132	-2.9570	 1.6192	-1.3378	-4.5762	-3.2117	 1.3147	-1.8971	-4.5264	60.4798	99.9248	
   879	-2.8299	 1.1893	-1.6406	-4.0191	-2.7311	 1.2884	-1.4427	-4.0194	-2.9502	 1.0043	-1.9459	-3.9545	61.0232	99.9292	
   880	-2.6529	 0.9796	-1.6733	-3.6325	-2.4807	 1.1569	-1.3238	-3.6376	-2.5934	 1.0023	-1.5912	-3.5957	61.0091	99.9383	
   881	-2.2370	 1.2286	-1.0084	-3.4656	-1.8969	 1.4361	-0.4608	-3.3331	-2.0356	 1.1656	-0.8701	-3.2011	61.6469	99.9207	
   882	-2.3347	 1.1128	-1.2219	-3.4474	-2.1740	 1.3301	-0.8439	-3.5040	-2.2823	 1.1034	-1.1790	-3.3857	61.1725	99.9306	
   883	-2.3268	 1.1175	-1.2094	-3.4443	-2.1725	 1.3556	-0.8169	-3.5281	-2.2823	 1.1034	-1.1790	-3.3857	61.1710	99.9272	
   884	-2.3547	 1.1581	-1.1966	-3.5128	-2.1584	 1.3764	-0.7820	-3.5348	-2.2975	 1.1378	-1.1599	-3.4353	61.1725	99.9271	
   885	-2.3460	 1.1777	-1.1683	-3.5237	-2.1695	 1.4066	-0.7630	-3.5761	-2.3011	 1.1792	-1.1219	-3.4803	61.0617	99.9284	
   886	-2.2143	 1.2278	-0.9865	-3.4421	-1.9980	 1.4734	-0.5246	-3.4714	-2.1058	 1.2320	-0.8738	-3.3378	61.2303	99.9262	
   887	-2.1271	 1.2944	-0.8328	-3.4215	-1.9237	 1.5306	-0.3931	-3.4544	-2.0742	 1.2947	-0.7796	-3.3689	61.1140	99.9259	
   888	-2.1018	 1.3382	-0.7636	-3.4400	-1.8955	 1.5723	-0.3232	-3.4678	-2.0333	 1.3195	-0.7139	-3.3528	61.1916	99.9250	
   889	-2.0242	 1.3703	-0.6539	-3.3945	-1.7975	 1.5947	-0.2028	-3.3922	-1.9303	 1.3382	-0.5922	-3.2686	61.3105	99.9249	
   890	-1.9493	 1.3578	-0.5914	-3.3070	-1.7477	 1.5633	-0.1844	-3.3110	-1.9268	 1.2967	-0.6302	-3.2236	61.2977	99.9239	
   891	-2.0120	 1.3202	-0.6918	-3.3322	-1.8457	 1.5409	-0.3048	-3.3866	-1.9964	 1.2655	-0.7310	-3.2619	61.2560	99.9244	
   892	-1.9039	 1.3563	-0.5477	-3.2602	-1.6950	 1.5829	-0.1121	-3.2779	-1.8526	 1.3090	-0.5437	-3.1616	61.3435	99.9227	
   893	-1.8656	 1.3649	-0.5007	-3.2304	-1.6823	 1.5782	-0.1041	-3.2606	-1.8748	 1.3173	-0.5575	-3.1921	61.2230	99.9239	
   894	-1.9248	 1.3868	-0.5381	-3.3116	-1.7455	 1.6015	-0.1439	-3.3470	-1.9368	 1.3234	-0.6135	-3.2602	61.2187	99.9223	
   895	-1.9327	 1.3821	-0.5506	-3.3147	-1.7834	 1.6155	-0.1678	-3.3989	-1.9859	 1.3591	-0.6269	-3.3450	60.9915	99.9236	
   896	-1.9536	 1.4126	-0.5410	-3.3662	-1.7759	 1.6323	-0.1436	-3.4083	-1.9637	 1.3507	-0.6131	-3.3144	61.1813	99.9219	
   897	-1.9684	 1.4181	-0.5504	-3.3865	-1.8265	 1.6510	-0.1755	-3.4774	-2.0193	 1.3716	-0.6478	-3.3908	61.0259	99.9221	
   898	-1.9301	 1.4267	-0.5034	-3.3567	-1.7730	 1.6833	-0.0897	-3.4563	-1.9386	 1.3986	-0.5400	-3.3372	61.0753	99.9210	
   899	-1.8673	 1.4643	-0.4030	-3.3315	-1.6891	 1.6849	-0.0042	-3.3739	-1.9362	 1.4436	-0.4927	-3.3799	60.9199	99.9230	
   900	-1.8812	 1.4846	-0.3966	-3.3658	-1.7262	 1.7116	-0.0146	-3.4378	-1.9696	 1.4561	-0.5135	-3.4257	60.8779	99.9221	
   901	-1.9187	 1.4908	-0.4279	-3.4095	-1.7648	 1.7129	-0.0520	-3.4777	-1.9982	 1.4497	-0.5486	-3.4479	60.9137	99.9222	
   902	-1.9405	 1.5065	-0.4340	-3.4470	-1.7894	 1.7349	-0.0544	-3.5243	-2.0474	 1.4853	-0.5621	-3.5327	60.7610	99.9220	
   903	-1.9623	 1.5221	-0.4402	-3.4844	-1.8146	 1.7443	-0.0704	-3.5589	-2.0585	 1.4895	-0.5691	-3.5480	60.7984	99.9227	
   904	-1.9841	 1.5378	-0.4463	-3.5219	-1.8391	 1.7663	-0.0728	-3.6055	-2.0690	 1.5049	-0.5642	-3.5739	60.8000	99.9224	
   905	-1.8777	 1.5441	-0.3337	-3.4218	-1.7411	 1.7887	 0.0476	-3.5298	-1.9772	 1.5278	-0.4495	-3.5050	60.7674	99.9215	
   906	-1.8760	 1.5738	-0.3022	-3.4498	-1.7151	 1.7921	 0.0770	-3.5072	-1.9930	 1.5509	-0.4422	-3.5439	60.7268	99.9223	
   907	-1.9056	 1.5847	-0.3209	-3.4904	-1.7783	 1.8155	 0.0372	-3.5937	-2.0486	 1.5718	-0.4769	-3.6204	60.6098	99.9227	
   908	-1.9431	 1.5910	-0.3521	-3.5341	-1.8042	 1.8120	 0.0078	-3.6163	-2.0819	 1.5843	-0.4977	-3.6662	60.5723	99.9241	
   909	-1.9579	 1.5965	-0.3615	-3.5544	-1.8295	 1.8214	-0.0081	-3.6509	-2.0883	 1.5695	-0.5189	-3.6579	60.6455	99.9227	
   910	-1.9727	 1.6019	-0.3708	-3.5747	-1.8667	 1.8481	-0.0185	-3.7148	-2.1439	 1.5904	-0.5536	-3.7343	60.4892	99.9207	
   911	-2.0015	 1.6278	-0.3738	-3.6293	-1.8592	 1.8649	 0.0057	-3.7241	-2.1035	 1.6039	-0.4997	-3.7075	60.6504	99.9214	
   912	-1.8803	 1.6286	-0.2517	-3.5089	-1.7307	 1.8565	 0.1258	-3.5872	-2.0281	 1.6387	-0.3896	-3.6668	60.5026	99.9234	
   913	-1.9091	 1.6544	-0.2547	-3.5635	-1.7552	 1.8786	 0.1233	-3.6338	-2.0615	 1.6512	-0.4104	-3.7126	60.4992	99.9222	
   914	-1.9318	 1.6552	-0.2766	-3.5869	-1.8065	 1.8845	 0.0780	-3.6910	-2.0790	 1.6406	-0.4385	-3.7196	60.5349	99.9227	
   915	-1.9614	 1.6661	-0.2953	-3.6275	-1.8563	 1.9159	 0.0596	-3.7722	-2.1170	 1.6720	-0.4451	-3.7891	60.4227	99.9226	
   916	-1.9762	 1.6716	-0.3046	-3.6478	-1.8570	 1.9031	 0.0461	-3.7602	-2.1504	 1.6846	-0.4659	-3.8349	60.3445	99.9242	
   917	-2.0059	 1.6825	-0.3233	-3.6884	-1.8942	 1.9299	 0.0357	-3.8241	-2.1790	 1.6781	-0.5010	-3.8571	60.3785	99.9207	
   918	-1.9980	 1.6872	-0.3108	-3.6852	-1.8741	 1.9420	 0.0679	-3.8161	-2.1317	 1.7177	-0.4141	-3.8493	60.3548	99.9237	
   919	-1.9134	 1.7092	-0.2043	-3.6226	-1.7709	 1.9429	 0.1721	-3.7138	-2.0738	 1.7418	-0.3321	-3.8156	60.3175	99.9246	
   920	-1.9126	 1.7240	-0.1885	-3.6366	-1.8132	 1.9911	 0.1779	-3.8044	-2.0802	 1.7270	-0.3533	-3.8072	60.3871	99.9196	
   921	-1.9727	 1.7311	-0.2417	-3.7038	-1.8340	 1.9663	 0.1322	-3.8003	-2.1469	 1.7520	-0.3949	-3.8989	60.2732	99.9229	
   922	-1.9875	 1.7365	-0.2510	-3.7241	-1.8719	 1.9803	 0.1083	-3.8522	-2.1580	 1.7562	-0.4019	-3.9142	60.2732	99.9234	
   923	-2.0024	 1.7420	-0.2604	-3.7444	-1.9024	 2.0110	 0.1087	-3.9134	-2.1960	 1.7877	-0.4084	-3.9837	60.1218	99.9220	
   924	-2.0311	 1.7678	-0.2633	-3.7989	-1.9276	 2.0204	 0.0927	-3.9480	-2.2071	 1.7919	-0.4154	-3.9990	60.1966	99.9231	
   925	-2.0311	 1.7678	-0.2633	-3.7989	-1.9135	 2.0412	 0.1277	-3.9547	-2.1557	 1.8012	-0.3545	-3.9569	60.2836	99.9220	
   926	-1.9387	 1.7944	-0.1443	-3.7331	-1.7902	 2.0543	 0.2640	-3.8445	-2.0580	 1.8276	-0.2305	-3.8856	60.3278	99.9221	
   927	-1.9300	 1.8140	-0.1160	-3.7440	-1.7902	 2.0543	 0.2640	-3.8445	-2.0908	 1.8514	-0.2395	-3.9422	60.2090	99.9243	
   928	-1.9893	 1.8359	-0.1534	-3.8252	-1.8281	 2.0683	 0.2401	-3.8964	-2.1136	 1.8485	-0.2652	-3.9621	60.3226	99.9232	
   929	-1.9971	 1.8312	-0.1659	-3.8283	-1.8407	 2.0729	 0.2322	-3.9137	-2.1241	 1.8639	-0.2603	-3.9880	60.2498	99.9239	
   930	-2.0189	 1.8469	-0.1721	-3.8658	-1.8712	 2.1037	 0.2325	-3.9749	-2.1510	 1.8912	-0.2599	-4.0422	60.1752	99.9230	
   931	-2.0486	 1.8578	-0.1908	-3.9063	-1.9091	 2.1177	 0.2086	-4.0268	-2.1844	 1.9037	-0.2807	-4.0881	60.1361	99.9231	
   932	-2.0703	 1.8734	-0.1969	-3.9438	-1.9210	 2.1351	 0.2141	-4.0561	-2.1662	 1.9256	-0.2407	-4.0918	60.1822	99.9245	
   933	-1.9492	 1.8743	-0.0749	-3.8234	-1.7970	 2.1609	 0.3640	-3.9579	-2.0352	 1.9395	-0.0959	-3.9747	60.2300	99.9222	
   934	-1.9247	 1.9032	-0.0215	-3.8280	-1.7769	 2.1730	 0.3961	-3.9499	-2.0458	 1.9549	-0.0910	-4.0007	60.1857	99.9223	
   935	-1.9692	 1.9196	-0.0496	-3.8888	-1.8148	 2.1870	 0.3722	-4.0018	-2.0791	 1.9674	-0.1118	-4.0465	60.1857	99.9223	
   936	-1.9840	 1.9251	-0.0589	-3.9091	-1.8519	 2.2138	 0.3618	-4.0657	-2.0949	 1.9906	-0.1045	-4.0855	60.1131	99.9223	
   937	-1.9831	 1.9400	-0.0432	-3.9231	-1.8512	 2.2265	 0.3753	-4.0777	-2.1054	 2.0060	-0.0996	-4.1114	60.0741	99.9222	
   938	-2.0128	 1.9509	-0.0619	-3.9637	-1.8638	 2.2312	 0.3673	-4.0950	-2.1388	 2.0185	-0.1204	-4.1573	60.0350	99.9218	
   939	-2.0503	 1.9572	-0.0931	-4.0074	-1.9025	 2.2324	 0.3300	-4.1349	-2.1388	 2.0185	-0.1204	-4.1573	60.1148	99.9238	
   940	-1.9657	 1.9791	 0.0134	-3.9448	-1.7911	 2.2629	 0.4718	-4.0540	-2.0347	 2.0597	 0.0249	-4.0944	60.1273	99.9232	
   941	-1.9116	 1.9971	 0.0855	-3.9088	-1.7450	 2.2784	 0.5334	-4.0235	-2.0055	 2.0774	 0.0718	-4.0828	60.0884	99.9231	
   942	-1.9483	 2.0182	 0.0700	-3.9665	-1.7829	 2.2924	 0.5095	-4.0753	-2.0388	 2.0899	 0.0510	-4.1287	60.0866	99.9236	
   943	-1.9709	 2.0190	 0.0481	-3.9899	-1.8208	 2.3064	 0.4856	-4.1272	-2.0388	 2.0899	 0.0510	-4.1287	60.1273	99.9237	
   944	-1.9779	 2.0292	 0.0513	-4.0071	-1.8200	 2.3192	 0.4991	-4.1392	-2.0610	 2.0982	 0.0371	-4.1593	60.0866	99.9218	
   945	-1.9997	 2.0448	 0.0451	-4.0445	-1.8453	 2.3285	 0.4832	-4.1738	-2.1102	 2.1339	 0.0236	-4.2441	59.9343	99.9237	
   946	-2.0293	 2.0558	 0.0264	-4.0851	-1.8706	 2.3378	 0.4673	-4.2084	-2.1277	 2.1233	-0.0045	-4.2510	60.0069	99.9221	
   947	-1.9692	 2.0488	 0.0796	-4.0179	-1.7993	 2.3441	 0.5448	-4.1433	-2.0300	 2.1497	 0.1195	-4.1797	60.0231	99.9241	
   948	-1.9221	 2.0769	 0.1549	-3.9990	-1.7525	 2.3723	 0.6199	-4.1248	-2.0119	 2.1716	 0.1595	-4.1835	59.9824	99.9223	
   949	-1.9291	 2.0871	 0.1580	-4.0162	-1.7777	 2.3817	 0.6039	-4.1594	-2.0453	 2.1841	 0.1387	-4.2293	59.9027	99.9228	
   950	-1.9735	 2.1035	 0.1300	-4.0770	-1.8030	 2.3910	 0.5880	-4.1940	-2.0564	 2.1882	 0.1318	-4.2446	59.9806	99.9228	
   951	-1.9883	 2.1090	 0.1207	-4.0973	-1.8275	 2.4131	 0.5856	-4.2406	-2.0722	 2.2114	 0.1391	-4.2835	59.9082	99.9226	
   952	-1.9953	 2.1192	 0.1239	-4.1145	-1.8282	 2.4003	 0.5721	-4.2286	-2.0944	 2.2197	 0.1252	-4.3141	59.8674	99.9248	
   953	-2.0398	 2.1356	 0.0958	-4.1754	-1.8914	 2.4236	 0.5322	-4.3150	-2.1231	 2.2133	 0.0901	-4.3363	59.9398	99.9237	
   954	-2.0023	 2.1293	 0.1270	-4.1316	-1.8201	 2.4299	 0.6098	-4.2500	-2.0541	 2.2332	 0.1791	-4.2873	59.9526	99.9231	
   955	-1.9482	 2.1474	 0.1991	-4.0956	-1.7867	 2.4501	 0.6634	-4.2368	-2.0301	 2.2586	 0.2285	-4.2887	59.8766	99.9237	
   956	-1.9700	 2.1630	 0.1930	-4.1330	-1.8119	 2.4594	 0.6475	-4.2713	-2.0857	 2.2795	 0.1937	-4.3651	59.7579	99.9239	
   957	-2.0154	 2.1646	 0.1492	-4.1799	-1.8624	 2.4781	 0.6156	-4.3405	-2.1143	 2.2731	 0.1587	-4.3874	59.7950	99.9216	
   958	-2.0223	 2.1747	 0.1524	-4.1970	-1.8751	 2.4827	 0.6076	-4.3578	-2.1190	 2.2920	 0.1729	-4.4110	59.7598	99.9238	
   959	-2.0372	 2.1802	 0.1430	-4.2173	-1.9003	 2.4921	 0.5917	-4.3924	-2.1143	 2.2731	 0.1587	-4.3874	59.8711	99.9226	
   960	-2.0598	 2.1810	 0.1211	-4.2408	-1.9130	 2.4967	 0.5837	-4.4097	-2.1857	 2.3170	 0.1313	-4.5027	59.6057	99.9230	
   961	-2.0284	 2.1998	 0.1713	-4.2282	-1.8536	 2.5203	 0.6668	-4.3739	-2.0564	 2.2972	 0.2407	-4.3536	59.9580	99.9211	
   962	-1.9744	 2.2178	 0.2434	-4.1921	-1.7904	 2.4970	 0.7066	-4.2874	-2.0547	 2.3309	 0.2762	-4.3856	59.8044	99.9259	
   963	-2.0040	 2.2287	 0.2247	-4.2327	-1.8402	 2.5284	 0.6882	-4.3686	-2.1102	 2.3518	 0.2415	-4.4620	59.6875	99.9240	
   964	-2.0267	 2.2295	 0.2028	-4.2562	-1.8907	 2.5471	 0.6564	-4.4378	-2.1278	 2.3412	 0.2133	-4.4690	59.7227	99.9225	
   965	-2.0415	 2.2350	 0.1935	-4.2765	-1.8914	 2.5343	 0.6429	-4.4258	-2.1547	 2.3685	 0.2137	-4.5232	59.6115	99.9257	
   966	-2.0711	 2.2459	 0.1748	-4.3171	-1.9160	 2.5564	 0.6405	-4.4724	-2.1880	 2.3810	 0.1929	-4.5690	59.5724	99.9236	
   967	-2.1008	 2.2569	 0.1561	-4.3576	-1.9286	 2.5611	 0.6325	-4.4897	-2.1769	 2.3768	 0.1998	-4.5537	59.6894	99.9237	
   968	-2.0014	 2.2733	 0.2719	-4.2747	-1.8239	 2.5875	 0.7636	-4.4114	-2.0793	 2.4032	 0.3239	-4.4825	59.6970	99.9227	
   969	-1.9857	 2.2827	 0.2970	-4.2684	-1.8231	 2.6003	 0.7771	-4.4234	-2.0951	 2.4264	 0.3312	-4.5214	59.5821	99.9231	
   970	-2.0084	 2.2835	 0.2751	-4.2919	-1.8618	 2.6015	 0.7397	-4.4633	-2.1348	 2.4241	 0.2892	-4.5589	59.5392	99.9232	
   971	-2.0380	 2.2944	 0.2564	-4.3324	-1.9123	 2.6202	 0.7079	-4.5324	-2.1617	 2.4514	 0.2896	-4.6131	59.4671	99.9252	
   972	-2.0598	 2.3101	 0.2503	-4.3699	-1.9249	 2.6248	 0.6999	-4.5497	-2.1682	 2.4366	 0.2684	-4.6048	59.5763	99.9241	
   973	-2.0825	 2.3109	 0.2284	-4.3933	-1.9375	 2.6295	 0.6920	-4.5670	-2.2126	 2.4533	 0.2406	-4.6659	59.4612	99.9232	
   974	-2.0816	 2.3257	 0.2441	-4.4073	-1.9242	 2.6376	 0.7134	-4.5617	-2.1723	 2.4668	 0.2945	-4.6391	59.5451	99.9250	
