OxySoft export of:	C:\Users\TO3 TechSupport\Documents\Train2Adapt\Post_tests\T2A_56_POST_NIRS
Export date:	2022/12/15 09:26:53
Start of measurement:	2022-12-15 08:35:24.995

Datafile sample rate:	10.00	Hz
Datafile duration:	3059.700	s
Datafile total number of samples:	30597

Description:	

Optode-template:	PortaMon TSI Fit Factor
Optode distance (mm):	 35.00
Optode gradients (mm):	 5.00
DPF:	6.61

Device id:	334
# Receivers:	1
# Light sources:	6
# ADC:	2

Light source wavelengths:
device	index	wavelength
1	1	849	nm
1	2	759	nm
1	3	846	nm
1	4	757	nm
1	5	848	nm
1	6	757	nm

Export sample rate:	10.00	Hz
Selected time span:	0	3059.700
Selected time span (sample numbers):	0	30597


Legend:
Column	Trace (Measurement)
1	(Sample number)
2	Rx1-Tx1 O2Hb (T2A_56_POST_NIRS)
3	Rx1-Tx1 HHb (T2A_56_POST_NIRS)
4	Rx1-Tx1 tHb (T2A_56_POST_NIRS)
5	Rx1-Tx2 O2Hb (T2A_56_POST_NIRS)
6	Rx1-Tx2 HHb (T2A_56_POST_NIRS)
7	Rx1-Tx2 tHb (T2A_56_POST_NIRS)
8	Rx1-Tx3 O2Hb (T2A_56_POST_NIRS)
9	Rx1-Tx3 HHb (T2A_56_POST_NIRS)
10	Rx1-Tx3 tHb (T2A_56_POST_NIRS)
11	Rx1-Tx1,Tx2,Tx3 TSI% (T2A_56_POST_NIRS)
12	Rx1-Tx1,Tx2,Tx3 TSI Fit Factor (T2A_56_POST_NIRS)
13	(Event)


1	2	3	4	5	6	7	8	9	10	11	12	13
     0	122.0584	63.7029	185.7614	99.0804	52.6412	151.7216	81.1866	46.7699	127.9565	11.5652	98.7634	
     1	 0.8997	-0.8250	 0.0748	 1.2615	-0.8267	 0.4347	 1.3376	-0.8625	 0.4751	58.9713	99.9808	
     2	 0.8247	-0.8431	-0.0183	 1.1713	-0.8336	 0.3377	 1.2380	-0.8612	 0.3768	58.7881	99.9808	
     3	 0.8170	-0.8478	-0.0308	 1.1514	-0.8460	 0.3054	 1.2093	-0.8793	 0.3300	58.7781	99.9807	
     4	 0.7881	-0.8375	-0.0493	 1.1130	-0.8453	 0.2677	 1.1710	-0.8714	 0.2996	58.7296	99.9798	
     5	 0.7958	-0.8327	-0.0369	 1.1271	-0.8245	 0.3026	 1.1947	-0.8459	 0.3488	58.6963	99.9800	
     6	 0.8189	-0.8185	 0.0004	 1.1537	-0.8080	 0.3457	 1.2177	-0.8314	 0.3863	58.6988	99.9804	
     7	 0.7823	-0.8129	-0.0305	 1.0703	-0.8109	 0.2594	 1.1168	-0.8523	 0.2645	58.5838	99.9802	
     8	 0.7525	-0.8172	-0.0646	 0.9927	-0.8222	 0.1705	 1.0280	-0.8548	 0.1732	58.3884	99.9786	
     9	 0.6909	-0.8551	-0.1641	 0.8861	-0.8879	-0.0018	 0.8797	-0.9267	-0.0470	58.2578	99.9781	
    10	 0.5321	-0.9106	-0.3784	 0.7286	-0.9484	-0.2199	 0.6880	-0.9833	-0.2953	58.0983	99.9791	
    11	 0.3869	-0.9860	-0.5990	 0.5511	-1.0214	-0.4703	 0.4675	-1.0580	-0.5904	57.8348	99.9800	
    12	 0.2974	-0.9989	-0.7014	 0.3901	-1.0355	-0.6454	 0.2887	-1.0852	-0.7965	57.5684	99.9791	
    13	 0.2387	-0.9928	-0.7540	 0.2800	-1.0547	-0.7748	 0.1756	-1.1244	-0.9488	57.5322	99.9777	
    14	 0.1656	-1.0941	-0.9283	 0.1953	-1.1798	-0.9845	 0.0846	-1.2561	-1.1715	57.6393	99.9770	
    15	-0.0026	-1.2961	-1.2986	-0.1453	-1.4017	-1.5470	-0.4363	-1.4450	-1.8813	56.5693	99.9763	
    16	-0.7018	-0.7979	-1.4997	-0.9198	-0.6760	-1.5958	-1.3340	-0.5402	-1.8741	53.2835	99.9793	
    17	-0.5804	 0.0507	-0.5297	-0.5922	 0.1576	-0.4347	-0.7106	 0.2454	-0.4651	54.4299	99.9760	
    18	-0.1371	 0.3940	 0.2570	-0.0651	 0.4944	 0.4293	-0.0567	 0.5286	 0.4719	55.3391	99.9759	
    19	 0.0526	 0.3560	 0.4086	 0.1115	 0.3481	 0.4595	 0.0780	 0.2832	 0.3613	56.1476	99.9776	
    20	-0.0000	-0.0000	 0.0000	 0.0000	-0.0000	-0.0000	-0.0000	 0.0000	-0.0000	56.0825	99.9713	
    21	 0.5043	 0.0290	 0.5334	 0.6468	-0.0025	 0.6443	 0.7863	-0.0913	 0.6950	57.7451	99.9733	
    22	 1.1746	 0.5683	 1.7430	 1.4028	 0.5118	 1.9146	 1.4777	 0.3538	 1.8315	58.1648	99.9806	
    23	 1.4372	 0.7440	 2.1813	 1.3919	 0.5415	 1.9333	 1.1891	 0.3428	 1.5318	57.3035	99.9794	
    24	 1.2909	 0.7665	 2.0575	 1.2673	 0.5984	 1.8657	 1.0251	 0.3781	 1.4032	57.0663	99.9836	
    25	 1.1215	 0.7748	 1.8964	 1.1420	 0.6427	 1.7847	 0.9793	 0.4451	 1.4244	57.0696	99.9824	
    26	 1.2330	 0.8997	 2.1328	 1.3751	 0.7863	 2.1615	 1.3609	 0.6211	 1.9820	57.6377	99.9797	
    27	 1.5216	 1.0211	 2.5428	 1.7160	 0.9113	 2.6273	 1.7545	 0.7194	 2.4738	58.1325	99.9805	
    28	 1.5524	 1.0401	 2.5926	 1.7560	 0.9359	 2.6919	 1.7616	 0.7451	 2.5067	58.0435	99.9820	
    29	 1.4293	 0.9643	 2.3936	 1.5718	 0.8589	 2.4308	 1.5340	 0.6447	 2.1787	57.8144	99.9828	
    30	 1.2033	 0.7829	 1.9863	 1.3246	 0.6944	 2.0190	 1.3095	 0.5036	 1.8131	57.6638	99.9811	
    31	 1.0399	 0.5417	 1.5816	 1.2077	 0.4645	 1.6722	 1.2253	 0.3017	 1.5270	57.8465	99.9805	
    32	 0.8275	 0.2280	 1.0556	 1.0258	 0.2188	 1.2445	 1.0927	 0.1225	 1.2152	57.6956	99.9791	
    33	 0.6996	 0.0789	 0.7786	 0.9211	 0.0814	 1.0025	 1.0067	-0.0166	 0.9901	57.8229	99.9796	
    34	 0.4948	-0.1175	 0.3774	 0.6930	-0.0834	 0.6096	 0.7887	-0.1430	 0.6457	57.5450	99.9780	
    35	 0.3399	-0.2269	 0.1131	 0.5014	-0.1772	 0.3242	 0.5855	-0.2068	 0.3786	57.2131	99.9765	
    36	 0.1975	-0.2583	-0.0607	 0.3411	-0.1787	 0.1625	 0.3927	-0.1896	 0.2031	56.7983	99.9775	
    37	 0.1108	-0.1147	-0.0039	 0.2731	-0.0384	 0.2347	 0.3439	-0.0819	 0.2619	56.8484	99.9788	
    38	 0.1262	-0.1053	 0.0210	 0.3165	-0.0602	 0.2563	 0.3903	-0.1379	 0.2524	57.1947	99.9799	
    39	 0.1121	-0.4376	-0.3254	 0.2536	-0.4513	-0.1976	 0.2839	-0.5241	-0.2402	57.4315	99.9777	
    40	-0.3331	-0.9227	-1.2557	-0.2822	-0.9272	-1.2093	-0.3628	-0.9624	-1.3252	56.7592	99.9779	
    41	-1.0819	-0.9615	-2.0433	-1.2098	-0.8061	-2.0159	-1.5232	-0.6485	-2.1717	53.5251	99.9785	
    42	-1.2506	 0.3135	-0.9370	-0.9979	 0.6367	-0.3612	-0.9996	 0.7770	-0.2226	53.8232	99.9849	
    43	-0.3129	 1.1018	 0.7890	-0.1153	 1.2290	 1.1137	-0.3400	 1.2446	 0.9046	54.1914	99.9888	
    44	-0.0418	 1.4094	 1.3677	 0.1775	 1.5065	 1.6841	 0.0209	 1.5353	 1.5562	54.4635	99.9859	
    45	 0.2660	 1.5989	 1.8650	 0.4600	 1.6198	 2.0799	 0.3128	 1.6017	 1.9145	54.9440	99.9844	
    46	 0.0898	 1.6171	 1.7070	 0.1940	 1.5653	 1.7593	 0.0542	 1.3540	 1.4082	55.5462	99.9872	
    47	 0.1164	 1.0003	 1.1168	 0.1908	 0.7979	 0.9888	 0.2397	 0.5765	 0.8162	57.2429	99.9750	
    48	 0.6728	 0.9207	 1.5936	 0.6582	 0.7942	 1.4525	 0.6197	 0.6343	 1.2541	56.6860	99.9754	
    49	 0.7477	 1.0513	 1.7991	 0.8221	 0.9559	 1.7780	 0.8232	 0.7941	 1.6173	56.8921	99.9779	
    50	 0.9266	 1.1895	 2.1163	 1.0885	 1.1201	 2.2086	 1.1283	 0.9858	 2.1141	57.0670	99.9787	
    51	 1.1372	 1.3614	 2.4987	 1.3358	 1.2846	 2.6204	 1.3904	 1.1079	 2.4983	57.4054	99.9807	
    52	 1.1709	 1.4243	 2.5953	 1.3598	 1.3601	 2.7198	 1.3964	 1.2075	 2.6039	57.1531	99.9805	
    53	 1.1689	 1.5075	 2.6765	 1.3712	 1.4400	 2.8112	 1.3723	 1.2669	 2.6392	57.1009	99.9828	
    54	 1.1015	 1.4942	 2.5958	 1.3011	 1.4454	 2.7465	 1.3225	 1.2675	 2.5900	57.0609	99.9829	
    55	 1.0246	 1.4468	 2.4715	 1.2270	 1.3876	 2.6146	 1.2355	 1.2022	 2.4377	57.0855	99.9834	
    56	 0.8688	 1.3227	 2.1916	 1.0796	 1.2847	 2.3643	 1.1031	 1.1190	 2.2221	56.9961	99.9830	
    57	 0.7582	 1.2125	 1.9707	 0.9323	 1.1818	 2.1140	 0.9324	 1.0437	 1.9761	56.7050	99.9820	
    58	 0.6070	 1.2742	 1.8813	 0.7991	 1.3063	 2.1054	 0.8097	 1.2114	 2.0211	56.2162	99.9825	
    59	 0.6384	 1.6453	 2.2838	 0.6888	 1.5907	 2.2795	 0.4796	 1.4297	 1.9093	55.3929	99.9859	
    60	-0.4853	 1.1786	 0.6934	-0.5529	 1.2996	 0.7468	-0.7889	 1.2394	 0.4505	53.4291	99.9857	
    61	-1.1586	 0.7079	-0.4506	-1.2646	 0.7761	-0.4885	-1.5113	 0.6470	-0.8643	53.6246	99.9863	
    62	-1.0621	 0.4858	-0.5762	-0.8944	 0.6518	-0.2426	-0.7015	 0.7621	 0.0606	54.8496	99.9706	
    63	 0.7836	 1.8331	 2.6168	 1.1869	 1.8732	 3.0601	 1.3564	 1.7359	 3.0923	57.0462	99.9846	
    64	 1.2482	 2.0488	 3.2971	 1.4515	 2.1091	 3.5605	 1.4534	 1.9672	 3.4206	56.0742	99.9855	
    65	 0.9344	 2.1089	 3.0434	 1.2298	 2.2520	 3.4818	 1.2944	 2.1759	 3.4703	55.6867	99.9859	
    66	 0.6762	 2.3439	 3.0203	 1.0384	 2.5715	 3.6099	 1.1397	 2.5470	 3.6867	55.0885	99.9869	
    67	 0.7828	 2.6206	 3.4035	 1.1843	 2.8557	 4.0400	 1.1642	 2.8605	 4.0246	54.5513	99.9903	
    68	 0.7423	 2.6801	 3.4225	 1.1221	 2.9875	 4.1096	 1.1092	 3.0494	 4.1586	53.9600	99.9897	
    69	 0.7711	 2.7822	 3.5534	 1.2126	 3.1041	 4.3167	 1.2666	 3.1803	 4.4469	54.1686	99.9891	
    70	 0.7375	 2.7193	 3.4569	 1.1119	 3.0299	 4.1417	 1.1762	 3.0596	 4.2359	54.2380	99.9886	
    71	 0.7154	 2.6073	 3.3228	 1.1079	 2.9667	 4.0746	 1.1875	 2.9709	 4.1584	54.3330	99.9904	
    72	 0.7117	 2.4362	 3.1480	 1.0942	 2.8488	 3.9430	 1.2031	 2.8637	 4.0668	54.3070	99.9903	
    73	 0.6589	 2.3052	 2.9642	 1.1055	 2.7221	 3.8276	 1.2245	 2.7600	 3.9846	54.5001	99.9908	
    74	 0.7283	 2.2353	 2.9637	 1.2684	 2.6646	 3.9330	 1.4115	 2.7392	 4.1507	54.7783	99.9912	
    75	 0.8352	 2.1745	 3.0098	 1.3208	 2.4782	 3.7990	 1.3667	 2.4555	 3.8222	55.2721	99.9924	
    76	 0.3844	 1.6014	 1.9859	 0.6305	 1.7856	 2.4162	 0.5882	 1.6683	 2.2564	55.2655	99.9903	
    77	-0.4716	 0.9338	 0.4623	-0.2712	 1.1937	 0.9224	-0.2221	 1.1804	 0.9583	54.6763	99.9855	
    78	-0.5986	 0.9119	 0.3134	-0.3672	 1.1953	 0.8281	-0.3098	 1.1040	 0.7942	54.9200	99.9891	
    79	-0.9940	 0.7388	-0.2551	-0.8747	 0.9677	 0.0930	-0.8658	 0.8823	 0.0165	54.4606	99.9866	
    80	-1.3578	 0.7118	-0.6459	-1.3527	 0.9041	-0.4485	-1.3736	 0.8187	-0.5549	53.8856	99.9838	
    81	-1.7091	 0.7629	-0.9462	-1.7467	 0.9529	-0.7938	-1.7801	 0.8719	-0.9082	53.3704	99.9830	
    82	-1.8277	 0.9853	-0.8423	-1.8963	 1.2253	-0.6709	-1.8891	 1.1760	-0.7131	52.7898	99.9811	
    83	-1.9021	 1.2069	-0.6951	-2.0313	 1.4216	-0.6097	-2.0443	 1.3552	-0.6892	52.4259	99.9801	
    84	-2.1708	 1.3933	-0.7774	-2.3109	 1.6624	-0.6485	-2.3494	 1.6212	-0.7282	51.6148	99.9815	
    85	-2.4732	 1.6292	-0.8439	-2.5278	 1.8812	-0.6467	-2.5399	 1.7676	-0.7723	51.8475	99.9852	
    86	-2.5377	 1.6598	-0.8778	-2.5459	 1.7971	-0.7488	-2.4822	 1.6229	-0.8593	52.8219	99.9829	
    87	-2.3566	 1.4899	-0.8666	-2.2828	 1.4975	-0.7853	-2.1314	 1.2899	-0.8415	54.2869	99.9792	
    88	-1.4366	 1.5498	 0.1133	-1.3190	 1.5445	 0.2255	-1.0657	 1.3315	 0.2658	55.4806	99.9760	
    89	-0.3559	 1.6945	 1.3387	-0.2537	 1.6783	 1.4245	-0.0560	 1.4551	 1.3991	56.0506	99.9773	
    90	 0.1812	 1.6593	 1.8406	 0.3880	 1.6970	 2.0849	 0.5750	 1.5429	 2.1180	56.3063	99.9795	
    91	 0.4410	 1.7911	 2.2321	 0.6835	 1.9155	 2.5989	 0.8757	 1.7531	 2.6288	56.2088	99.9832	
    92	 0.5301	 2.1414	 2.6717	 0.6449	 2.2197	 2.8646	 0.7034	 2.0174	 2.7209	55.5086	99.9844	
    93	-0.0330	 2.2309	 2.1980	 0.0737	 2.3053	 2.3790	 0.2006	 2.1273	 2.3279	55.0991	99.9811	
    94	-0.7027	 2.0438	 1.3412	-0.4584	 2.1962	 1.7378	-0.3465	 2.1454	 1.7989	54.3565	99.9831	
    95	-1.0263	 2.2948	 1.2686	-0.7543	 2.5849	 1.8306	-0.6740	 2.5889	 1.9148	53.1621	99.9868	
    96	-1.0515	 2.4763	 1.4248	-0.7169	 2.8752	 2.1583	-0.4903	 2.9704	 2.4800	52.8957	99.9836	
    97	-0.6167	 2.6877	 2.0711	-0.2311	 3.0652	 2.8341	-0.0220	 3.1157	 3.0937	53.3841	99.9862	
    98	-0.2509	 2.6315	 2.3807	 0.1086	 3.0679	 3.1765	 0.3253	 3.0891	 3.4143	53.5514	99.9876	
    99	-0.0689	 2.4762	 2.4075	 0.3353	 2.9038	 3.2392	 0.4992	 2.9429	 3.4420	53.7680	99.9892	
   100	 0.0649	 2.4882	 2.5532	 0.5508	 2.8665	 3.4173	 0.6879	 2.8592	 3.5471	54.3629	99.9916	
   101	-0.2340	 2.0931	 1.8592	 0.0667	 2.3981	 2.4649	 0.1673	 2.3086	 2.4759	54.3910	99.9897	
   102	-0.7831	 1.6003	 0.8173	-0.5530	 1.8098	 1.2569	-0.5782	 1.7017	 1.1236	54.2346	99.9902	
   103	-1.3208	 1.2833	-0.0374	-1.1564	 1.5839	 0.4275	-1.1041	 1.5203	 0.4162	53.6280	99.9876	
   104	-1.5335	 1.3072	-0.2263	-1.4451	 1.5761	 0.1310	-1.4164	 1.4837	 0.0673	53.3522	99.9868	
   105	-1.8262	 1.3521	-0.4739	-1.8291	 1.5826	-0.2465	-1.8402	 1.5260	-0.3142	52.6697	99.9836	
   106	-1.9689	 1.6582	-0.3106	-1.9680	 1.9223	-0.0457	-1.9265	 1.9295	 0.0030	52.0918	99.9805	
   107	-2.0867	 2.0079	-0.0787	-2.1069	 2.2620	 0.1551	-2.0443	 2.2706	 0.2263	51.7124	99.9788	
   108	-2.3141	 2.2618	-0.0521	-2.2540	 2.5723	 0.3183	-2.2082	 2.5828	 0.3746	51.2882	99.9835	
   109	-2.6010	 2.3947	-0.2062	-2.5940	 2.6666	 0.0726	-2.6079	 2.5658	-0.0421	51.1205	99.9870	
   110	-2.8743	 2.2828	-0.5913	-2.8527	 2.4222	-0.4305	-2.7760	 2.2579	-0.5181	52.0655	99.9831	
   111	-2.6825	 2.0491	-0.6333	-2.5771	 2.1181	-0.4589	-2.3110	 1.8902	-0.4208	53.8092	99.9789	
   112	-1.7980	 2.0168	 0.2189	-1.6604	 2.0267	 0.3664	-1.3248	 1.8073	 0.4825	55.0448	99.9743	
   113	-0.6557	 2.1994	 1.5438	-0.5018	 2.2180	 1.7162	-0.2627	 1.9745	 1.7119	55.5800	99.9795	
   114	 0.0643	 2.1361	 2.2005	 0.2844	 2.1921	 2.4765	 0.5405	 1.9789	 2.5194	56.1786	99.9805	
   115	 0.3253	 1.9450	 2.2704	 0.5703	 2.0523	 2.6226	 0.7299	 1.9064	 2.6363	55.8968	99.9833	
   116	 0.2735	 1.8286	 2.1022	 0.4814	 1.9610	 2.4424	 0.6321	 1.8449	 2.4769	55.6233	99.9823	
   117	 0.1683	 2.0313	 2.1997	 0.4596	 2.2271	 2.6866	 0.7074	 2.0838	 2.7913	55.7573	99.9841	
   118	 0.4585	 2.5195	 2.9781	 0.6808	 2.6914	 3.3721	 0.9046	 2.5058	 3.4104	55.5105	99.9839	
   119	 0.1090	 2.7123	 2.8214	 0.2456	 2.7999	 3.0455	 0.4158	 2.5711	 2.9869	55.1313	99.9827	
   120	-0.7254	 2.6067	 1.8814	-0.4263	 2.8113	 2.3850	-0.3167	 2.7282	 2.4115	53.9211	99.9871	
   121	-1.2357	 2.8272	 1.5916	-0.8574	 3.1896	 2.3322	-0.6877	 3.1870	 2.4993	52.8888	99.9887	
   122	-1.0964	 3.0396	 1.9434	-0.6512	 3.4138	 2.7626	-0.4047	 3.4713	 3.0666	52.9882	99.9864	
   123	-0.9260	 3.0460	 2.1201	-0.4572	 3.5455	 3.0883	-0.0813	 3.6000	 3.5187	53.1353	99.9863	
   124	-0.3976	 2.9914	 2.5940	 0.0689	 3.4565	 3.5253	 0.3690	 3.4465	 3.8156	53.7004	99.9892	
   125	-0.4559	 2.6600	 2.2042	 0.0529	 2.9971	 3.0501	 0.1625	 2.8697	 3.0322	54.3866	99.9946	
   126	-1.1233	 2.0522	 0.9290	-0.7579	 2.4247	 1.6668	-0.5814	 2.3810	 1.7996	53.7502	99.9895	
   127	-1.4091	 1.9747	 0.5658	-1.0573	 2.3497	 1.2924	-0.8879	 2.3480	 1.4601	53.3719	99.9884	
   128	-1.6101	 1.8369	 0.2269	-1.4527	 2.0696	 0.6169	-1.4675	 1.9199	 0.4524	53.2387	99.9904	
   129	-2.4288	 1.5158	-0.9129	-2.3606	 1.7898	-0.5708	-2.3000	 1.7055	-0.5946	52.4241	99.9855	
   130	-2.5706	 1.8366	-0.7340	-2.4928	 2.1336	-0.3593	-2.3667	 2.0681	-0.2986	52.1017	99.9837	
   131	-2.5758	 2.2133	-0.3625	-2.6082	 2.4391	-0.1691	-2.5183	 2.3985	-0.1198	51.4602	99.9788	
   132	-2.7984	 2.4280	-0.3702	-2.8185	 2.6619	-0.1565	-2.6875	 2.6222	-0.0654	51.2225	99.9780	
   133	-2.9324	 2.6410	-0.2912	-2.8477	 2.9112	 0.0635	-2.7443	 2.8739	 0.1296	51.0282	99.9831	
   134	-3.0239	 2.7113	-0.3124	-2.9363	 2.9296	-0.0067	-2.9106	 2.7801	-0.1305	51.2527	99.9880	
   135	-3.0699	 2.5704	-0.4994	-2.9998	 2.7325	-0.2674	-2.8487	 2.5209	-0.3278	52.1301	99.9843	
   136	-2.8109	 2.4625	-0.3483	-2.6587	 2.5538	-0.1049	-2.3947	 2.3379	-0.0568	53.3387	99.9807	
   137	-2.1978	 2.4600	 0.2623	-2.0668	 2.4932	 0.4264	-1.7571	 2.2595	 0.5025	54.1914	99.9769	
   138	-1.3770	 2.5855	 1.2086	-1.1410	 2.6505	 1.5095	-0.7741	 2.3982	 1.6241	55.1609	99.9794	
   139	-0.3789	 2.5949	 2.2161	-0.0377	 2.6740	 2.6363	 0.3847	 2.4239	 2.8086	56.3208	99.9803	
   140	 0.3528	 2.3700	 2.7229	 0.7857	 2.5251	 3.3108	 1.1978	 2.3174	 3.5152	56.8585	99.9835	
   141	 0.6647	 2.2806	 2.9454	 1.1065	 2.4312	 3.5377	 1.4549	 2.2661	 3.7210	56.8707	99.9840	
   142	 0.8602	 2.2180	 3.0783	 1.3552	 2.4143	 3.7696	 1.6880	 2.2742	 3.9622	56.9162	99.9861	
   143	 0.8909	 2.3494	 3.2404	 1.3690	 2.5322	 3.9012	 1.6787	 2.3961	 4.0749	56.7440	99.9859	
   144	 0.8019	 2.8012	 3.6031	 1.1996	 2.9989	 4.1985	 1.4406	 2.8532	 4.2938	55.8349	99.9868	
   145	 0.3374	 3.3876	 3.7251	 0.5700	 3.5830	 4.1530	 0.7692	 3.3786	 4.1478	54.5890	99.9862	
   146	-0.6098	 3.4799	 2.8702	-0.2566	 3.6813	 3.4247	-0.0999	 3.5670	 3.4671	53.6690	99.9879	
   147	-1.1277	 3.5832	 2.4556	-0.7532	 3.9342	 3.1810	-0.5612	 3.9052	 3.3440	52.5078	99.9885	
   148	-1.3289	 3.6703	 2.3415	-0.8354	 4.0537	 3.2183	-0.5104	 4.0115	 3.5011	52.9662	99.9886	
   149	-1.0797	 3.7534	 2.6738	-0.4855	 4.2207	 3.7352	-0.0980	 4.2388	 4.1408	53.0607	99.9891	
   150	-0.7159	 3.7804	 3.0645	-0.1399	 4.2148	 4.0749	 0.1144	 4.1807	 4.2951	53.1651	99.9924	
   151	-0.8504	 3.5287	 2.6784	-0.3752	 3.9363	 3.5611	-0.1475	 3.8777	 3.7302	53.0820	99.9914	
   152	-1.3275	 3.2350	 1.9076	-0.8615	 3.6367	 2.7752	-0.6127	 3.5109	 2.8982	53.2662	99.9922	
   153	-1.8393	 2.9762	 1.1370	-1.4407	 3.3892	 1.9486	-1.2013	 3.3007	 2.0994	52.6885	99.9908	
   154	-2.0896	 2.9910	 0.9015	-1.7051	 3.3600	 1.6549	-1.5247	 3.1719	 1.6473	52.7736	99.9933	
   155	-2.7033	 2.6413	-0.0619	-2.5406	 2.9060	 0.3654	-2.4817	 2.7303	 0.2486	51.8538	99.9903	
   156	-3.2624	 2.5645	-0.6978	-3.1538	 2.8321	-0.3217	-3.0629	 2.6418	-0.4211	51.4343	99.9890	
   157	-3.7119	 2.5832	-1.1286	-3.6952	 2.7780	-0.9172	-3.6204	 2.5788	-1.0416	50.9934	99.9861	
   158	-3.9825	 2.7403	-1.2421	-3.9862	 2.9389	-1.0473	-3.8299	 2.7772	-1.0527	50.6699	99.9818	
   159	-4.0366	 2.9321	-1.1044	-4.0202	 3.1124	-0.9078	-3.8389	 2.9951	-0.8438	50.5034	99.9792	
   160	-3.8876	 3.1786	-0.7090	-3.8069	 3.4503	-0.3566	-3.6424	 3.4059	-0.2364	49.9617	99.9816	
   161	-3.8185	 3.3337	-0.4847	-3.7081	 3.5962	-0.1119	-3.5675	 3.4530	-0.1146	50.2954	99.9864	
   162	-3.8041	 3.3285	-0.4754	-3.7046	 3.5498	-0.1548	-3.4326	 3.3036	-0.1290	51.2330	99.9841	
   163	-3.6019	 3.2560	-0.3458	-3.4218	 3.3595	-0.0624	-3.0368	 3.0733	 0.0365	52.6655	99.9805	
   164	-2.8233	 3.2991	 0.4760	-2.5482	 3.3995	 0.8513	-1.9941	 3.1005	 1.1063	54.1215	99.9771	
   165	-1.3248	 3.3915	 2.0668	-1.0112	 3.4958	 2.4846	-0.5606	 3.1817	 2.6211	55.0394	99.9821	
   166	-0.4496	 3.1001	 2.6505	-0.0112	 3.2006	 3.1894	 0.4321	 2.9327	 3.3647	56.1440	99.9835	
   167	-0.0567	 2.8917	 2.8351	 0.3366	 3.0261	 3.3627	 0.7215	 2.7739	 3.4954	56.1407	99.9845	
   168	 0.0407	 2.6843	 2.7251	 0.4775	 2.8213	 3.2988	 0.8385	 2.6026	 3.4411	56.3216	99.9852	
   169	-0.0545	 2.5835	 2.5291	 0.3941	 2.8185	 3.2126	 0.7500	 2.6960	 3.4460	55.6510	99.9851	
   170	-0.1079	 3.0150	 2.9072	 0.3065	 3.2627	 3.5693	 0.6318	 3.1220	 3.7538	55.0636	99.9861	
   171	-0.2242	 3.8439	 3.6198	 0.0057	 4.0859	 4.0916	 0.1973	 3.9028	 4.1001	53.4838	99.9870	
   172	-1.0792	 4.2180	 3.1389	-0.8568	 4.4293	 3.5726	-0.7084	 4.2171	 3.5087	52.5536	99.9885	
   173	-1.9948	 4.4564	 2.4618	-1.6679	 4.8774	 3.2095	-1.4300	 4.8281	 3.3980	50.8981	99.9887	
   174	-2.2203	 4.7397	 2.5196	-1.7488	 5.1191	 3.3702	-1.5667	 5.0402	 3.4735	51.0021	99.9928	
   175	-2.5302	 4.7459	 2.2158	-2.0795	 5.1584	 3.0789	-1.8117	 5.1098	 3.2982	50.7303	99.9904	
   176	-2.6102	 4.8796	 2.2695	-2.0703	 5.4070	 3.3367	-1.6980	 5.3409	 3.6429	50.8109	99.9920	
   177	-2.4158	 4.9148	 2.4991	-1.9160	 5.4171	 3.5011	-1.5734	 5.3873	 3.8139	50.6820	99.9907	
   178	-2.3553	 5.0506	 2.6954	-1.9061	 5.4717	 3.5656	-1.7018	 5.3705	 3.6687	50.5635	99.9931	
   179	-2.9451	 4.8422	 1.8973	-2.5954	 5.2051	 2.6097	-2.4857	 4.9524	 2.4667	50.3987	99.9952	
   180	-3.7428	 4.6185	 0.8759	-3.4621	 5.0721	 1.6101	-3.2481	 4.8884	 1.6403	49.4844	99.9925	
   181	-4.2440	 4.4084	 0.1645	-4.1987	 4.7641	 0.5654	-4.1073	 4.5082	 0.4010	48.6814	99.9912	
   182	-4.8956	 4.3872	-0.5082	-4.8322	 4.7748	-0.0574	-4.6889	 4.5046	-0.1843	48.3117	99.9912	
   183	-5.3509	 4.4306	-0.9202	-5.3929	 4.7210	-0.6718	-5.2918	 4.4238	-0.8680	47.8260	99.9894	
   184	-5.7908	 4.4834	-1.3073	-5.8728	 4.7291	-1.1436	-5.6875	 4.4732	-1.2143	47.5563	99.9841	
   185	-5.8141	 4.6941	-1.1198	-5.8942	 4.8982	-0.9961	-5.7222	 4.6324	-1.0898	47.4981	99.9839	
   186	-5.9324	 4.6916	-1.2407	-5.9945	 4.9336	-1.0609	-5.7341	 4.7100	-1.0240	47.4716	99.9809	
   187	-5.6870	 4.7161	-0.9709	-5.6853	 5.0633	-0.6220	-5.5086	 4.9581	-0.5505	46.7936	99.9843	
   188	-5.5611	 4.8358	-0.7251	-5.5473	 5.2212	-0.3261	-5.4267	 5.0309	-0.3958	46.8171	99.9894	
   189	-5.5659	 4.8750	-0.6908	-5.5665	 5.2215	-0.3450	-5.2763	 4.9551	-0.3211	47.7206	99.9854	
   190	-5.3860	 4.9155	-0.4704	-5.2575	 5.1446	-0.1128	-4.7863	 4.8159	 0.0296	49.5210	99.9818	
   191	-4.7913	 5.0846	 0.2933	-4.5859	 5.2303	 0.6443	-4.0245	 4.8689	 0.8444	50.8288	99.9795	
   192	-3.7433	 5.1810	 1.4378	-3.4796	 5.3043	 1.8248	-2.9856	 4.9256	 1.9400	51.7093	99.9830	
   193	-2.6986	 4.7688	 2.0703	-2.3515	 4.9058	 2.5543	-1.8943	 4.5683	 2.6740	52.8460	99.9849	
   194	-2.2976	 4.1152	 1.8177	-2.0180	 4.2971	 2.2791	-1.7553	 4.0276	 2.2723	52.5231	99.9880	
   195	-2.6677	 3.6482	 0.9806	-2.5589	 3.8425	 1.2835	-2.3177	 3.6103	 1.2927	51.8575	99.9838	
   196	-3.0293	 3.3130	 0.2839	-2.8842	 3.5570	 0.6728	-2.6369	 3.3671	 0.7302	51.6591	99.9846	
   197	-3.2493	 2.9946	-0.2546	-3.1535	 3.2453	 0.0918	-2.9077	 3.1012	 0.1934	51.4087	99.9820	
   198	-3.3445	 2.8938	-0.4506	-3.2684	 3.1502	-0.1181	-3.0510	 3.0218	-0.0292	51.1873	99.9821	
   199	-3.4273	 2.8710	-0.5562	-3.3918	 3.1228	-0.2690	-3.1864	 2.9793	-0.2072	51.0416	99.9818	
   200	-3.4851	 2.8917	-0.5932	-3.4545	 3.1450	-0.3095	-3.2407	 2.9984	-0.2422	50.9923	99.9816	
   201	-3.4976	 2.9262	-0.5713	-3.4846	 3.1750	-0.3096	-3.2827	 3.0359	-0.2468	50.8444	99.9811	
   202	-3.5092	 2.9754	-0.5337	-3.4814	 3.2255	-0.2559	-3.2475	 3.0686	-0.1788	51.0030	99.9811	
   203	-3.4486	 2.9986	-0.4499	-3.4231	 3.2372	-0.1859	-3.2187	 3.0867	-0.1320	50.9484	99.9815	
   204	-3.4322	 3.0227	-0.4094	-3.4215	 3.2625	-0.1590	-3.2492	 3.1314	-0.1178	50.7125	99.9815	
   205	-3.4650	 3.0870	-0.3780	-3.4434	 3.3219	-0.1215	-3.2625	 3.1870	-0.0755	50.7234	99.9815	
   206	-3.4430	 3.1990	-0.2439	-3.4088	 3.4647	 0.0558	-3.1880	 3.3189	 0.1308	50.7391	99.9818	
   207	-3.3710	 3.3981	 0.0272	-3.2893	 3.6355	 0.3463	-3.0689	 3.4576	 0.3887	50.9951	99.9834	
   208	-3.2961	 3.5287	 0.2327	-3.2104	 3.7691	 0.5587	-2.9569	 3.5706	 0.6137	51.1244	99.9832	
   209	-3.1932	 3.6342	 0.4411	-3.0889	 3.8683	 0.7793	-2.8512	 3.6689	 0.8176	51.1506	99.9840	
   210	-3.1442	 3.7066	 0.5625	-3.0775	 3.9482	 0.8707	-2.8581	 3.7391	 0.8810	50.9556	99.9841	
   211	-3.1924	 3.7614	 0.5691	-3.1202	 3.9827	 0.8624	-2.9377	 3.7955	 0.8578	50.7601	99.9842	
   212	-3.1876	 3.8346	 0.6471	-3.1280	 4.0629	 0.9349	-2.9395	 3.8583	 0.9188	50.7165	99.9845	
   213	-3.1069	 3.9406	 0.8339	-2.9857	 4.1870	 1.2013	-2.7756	 4.0038	 1.2282	50.8128	99.9851	
   214	-2.8463	 4.1995	 1.3534	-2.6346	 4.4762	 1.8417	-2.4019	 4.3238	 1.9220	50.9383	99.9863	
   215	-2.3750	 4.5178	 2.1429	-2.0448	 4.7910	 2.7462	-1.8289	 4.6413	 2.8123	51.3624	99.9891	
   216	-1.9036	 4.7236	 2.8201	-1.6416	 4.9908	 3.3492	-1.5679	 4.8372	 3.2693	50.9402	99.9912	
   217	-2.3127	 4.7954	 2.4828	-2.1069	 5.1293	 3.0224	-2.0467	 5.0686	 3.0218	49.7621	99.9895	
   218	-2.8171	 4.8788	 2.0618	-2.5957	 5.3021	 2.7063	-2.5632	 5.3188	 2.7557	48.6535	99.9905	
   219	-2.9508	 4.7543	 1.8036	-3.0048	 5.1108	 2.1059	-3.1611	 4.9537	 1.7926	47.9695	99.9927	
   220	-3.6742	 4.4215	 0.7474	-3.8094	 4.6395	 0.8301	-3.9047	 4.5610	 0.6562	47.7810	99.9844	
   221	-3.5598	 4.4779	 0.9183	-3.6612	 4.7550	 1.0938	-3.5962	 4.6271	 1.0310	48.4496	99.9833	
   222	-3.5078	 4.4818	 0.9741	-3.5962	 4.7708	 1.1746	-3.5074	 4.6297	 1.1222	48.6178	99.9836	
   223	-3.4607	 4.5248	 1.0643	-3.5413	 4.8289	 1.2876	-3.4536	 4.6954	 1.2418	48.5614	99.9840	
   224	-3.4588	 4.5542	 1.0955	-3.5523	 4.8586	 1.3063	-3.4529	 4.7065	 1.2535	48.5988	99.9839	
   225	-3.4781	 4.5986	 1.1206	-3.5824	 4.8886	 1.3062	-3.5072	 4.7256	 1.2185	48.5181	99.9844	
   226	-3.4916	 4.6184	 1.1269	-3.5601	 4.9388	 1.3788	-3.4578	 4.8099	 1.3521	48.4678	99.9841	
   227	-3.3109	 4.8985	 1.5877	-3.3550	 5.2474	 1.8924	-3.2602	 5.1470	 1.8868	48.2328	99.9847	
   228	-3.0291	 5.1423	 2.1133	-2.9553	 5.4937	 2.5384	-2.8278	 5.4293	 2.6015	48.6188	99.9854	
   229	-2.6975	 5.5856	 2.8882	-2.6048	 5.9769	 3.3721	-2.4237	 5.8855	 3.4618	48.7070	99.9859	
   230	-1.9913	 5.8797	 3.8884	-1.7937	 6.2457	 4.4520	-1.5899	 6.1221	 4.5322	49.6389	99.9878	
   231	-0.8115	 6.0713	 5.2598	-0.5717	 6.4274	 5.8558	-0.4830	 6.2960	 5.8131	50.2530	99.9912	
   232	-0.1321	 6.1800	 6.0479	 0.0427	 6.6237	 6.6664	 0.0623	 6.5216	 6.5838	49.8843	99.9922	
   233	-0.1397	 6.0628	 5.9231	-0.0400	 6.4269	 6.3869	-0.0870	 6.3426	 6.2556	49.7489	99.9907	
   234	-0.4340	 5.8534	 5.4195	-0.3782	 6.2429	 5.8646	-0.4033	 6.2397	 5.8363	49.2533	99.9876	
   235	-0.6265	 5.8475	 5.2211	-0.5185	 6.2537	 5.7352	-0.4785	 6.2775	 5.7990	49.3207	99.9866	
   236	-0.6227	 5.9061	 5.2835	-0.4953	 6.3165	 5.8212	-0.4745	 6.3439	 5.8694	49.2492	99.9876	
   237	-0.6642	 5.9510	 5.2869	-0.5333	 6.4268	 5.8935	-0.5099	 6.4920	 5.9822	48.8463	99.9880	
   238	-0.4459	 6.1276	 5.6818	-0.2601	 6.5951	 6.3349	-0.2650	 6.6033	 6.3383	49.1797	99.9911	
   239	-0.4718	 6.0694	 5.5977	-0.2849	 6.5069	 6.2221	-0.2978	 6.5188	 6.2210	49.2751	99.9906	
   240	-0.6555	 5.9704	 5.3149	-0.4812	 6.3374	 5.8561	-0.5378	 6.3041	 5.7663	49.4307	99.9912	
   241	-0.8421	 5.8273	 4.9853	-0.7320	 6.2193	 5.4873	-0.8068	 6.2522	 5.4455	48.8274	99.9893	
   242	-0.9692	 5.9179	 4.9488	-0.8785	 6.3356	 5.4572	-0.9430	 6.3795	 5.4364	48.4943	99.9889	
   243	-0.9838	 6.0356	 5.0519	-0.8572	 6.4702	 5.6130	-0.8744	 6.5078	 5.6334	48.6123	99.9890	
   244	-0.8588	 6.1407	 5.2820	-0.7158	 6.5817	 5.8659	-0.7336	 6.6389	 5.9053	48.5879	99.9889	
   245	-0.8386	 6.2235	 5.3849	-0.7412	 6.6875	 5.9464	-0.7831	 6.7355	 5.9524	48.2692	99.9893	
   246	-0.9071	 6.3080	 5.4010	-0.8132	 6.7646	 5.9514	-0.8614	 6.8140	 5.9526	48.1331	99.9893	
   247	-0.9312	 6.3916	 5.4605	-0.8077	 6.8531	 6.0454	-0.8509	 6.8951	 6.0441	48.1631	99.9900	
   248	-0.9188	 6.4696	 5.5509	-0.7814	 6.9665	 6.1851	-0.7734	 6.9864	 6.2129	48.2698	99.9903	
   249	-0.8544	 6.5515	 5.6972	-0.6607	 7.0530	 6.3924	-0.6621	 7.0883	 6.4262	48.3347	99.9913	
   250	-0.7100	 6.6122	 5.9022	-0.4906	 7.1092	 6.6186	-0.5087	 7.1527	 6.6441	48.4167	99.9918	
   251	-0.6263	 6.6496	 6.0234	-0.4408	 7.1885	 6.7477	-0.4223	 7.2070	 6.7847	48.4050	99.9916	
   252	-0.6149	 6.7130	 6.0982	-0.3843	 7.2718	 6.8875	-0.3723	 7.3023	 6.9301	48.3759	99.9926	
   253	-0.6024	 6.7910	 6.1887	-0.3087	 7.3549	 7.0462	-0.3012	 7.3789	 7.0777	48.5094	99.9939	
   254	-0.6082	 6.8156	 6.2074	-0.3255	 7.3931	 7.0676	-0.2660	 7.4117	 7.1457	48.5844	99.9930	
   255	-0.6391	 6.9091	 6.2701	-0.3294	 7.5366	 7.2072	-0.2400	 7.5664	 7.3264	48.4569	99.9933	
   256	-0.8211	 6.9519	 6.1309	-0.5605	 7.5278	 6.9673	-0.4673	 7.5619	 7.0946	48.2950	99.9916	
   257	-1.2906	 6.7754	 5.4849	-1.0789	 7.3300	 6.2510	-0.8770	 7.3790	 6.5019	48.2713	99.9873	
   258	-1.5830	 6.5954	 5.0125	-1.3313	 7.1866	 5.8553	-1.1296	 7.2309	 6.1012	48.2013	99.9891	
   259	-1.9274	 6.4115	 4.4842	-1.7345	 6.9868	 5.2523	-1.6007	 7.0413	 5.4406	47.6939	99.9892	
   260	-2.2083	 6.2948	 4.0866	-2.0205	 6.9200	 4.8994	-1.8052	 6.9553	 5.1501	47.7000	99.9885	
   261	-2.2226	 6.1875	 3.9650	-1.9893	 6.8056	 4.8163	-1.7612	 6.9511	 5.1899	47.6154	99.9860	
   262	-2.1881	 6.2651	 4.0771	-2.1326	 6.9725	 4.8399	-1.9202	 7.1598	 5.2396	46.5288	99.9830	
   263	-2.2476	 6.1440	 3.8965	-2.2212	 6.7842	 4.5630	-2.0399	 6.8292	 4.7893	47.0838	99.9860	
   264	-2.3801	 5.8092	 3.4292	-2.4055	 6.5006	 4.0951	-2.1683	 6.8124	 4.6441	46.1972	99.9746	
   265	-2.4061	 6.7781	 4.3721	-2.0335	 7.5316	 5.4981	-1.7675	 7.6710	 5.9035	47.1241	99.9908	
   266	-2.4787	 6.2269	 3.7483	-2.6291	 6.7152	 4.0861	-2.4053	 6.7379	 4.3326	46.9775	99.9766	
   267	-2.4530	 6.5100	 4.0572	-2.2885	 6.9372	 4.6487	-1.6797	 6.6511	 4.9714	50.2485	99.9807	
   268	-1.9343	 5.6193	 3.6851	-1.8369	 5.9639	 4.1270	-1.6743	 5.8242	 4.1498	49.5891	99.9867	
   269	-2.2374	 5.5031	 3.2658	-2.2303	 5.8187	 3.5884	-2.1471	 5.6974	 3.5502	48.9340	99.9858	
   270	-2.5040	 5.4937	 2.9899	-2.4407	 5.8350	 3.3942	-2.2728	 5.7248	 3.4520	49.0467	99.9849	
   271	-2.5377	 5.5433	 3.0057	-2.4085	 5.9398	 3.5313	-2.1710	 5.8527	 3.6817	49.1376	99.9850	
   272	-2.3886	 5.6773	 3.2887	-2.2337	 6.0718	 3.8381	-1.9956	 6.0055	 4.0099	49.1644	99.9849	
   273	-2.2135	 5.7569	 3.5435	-2.0061	 6.1270	 4.1209	-1.8066	 6.0178	 4.2112	49.5163	99.9879	
   274	-2.4059	 5.6385	 3.2327	-2.2988	 6.0560	 3.7573	-2.0813	 5.9623	 3.8810	48.9810	99.9858	
   275	-2.2646	 5.7677	 3.5033	-2.0037	 6.1649	 4.1612	-1.6870	 6.0716	 4.3846	49.8516	99.9859	
   276	-1.5371	 5.9342	 4.3972	-1.3165	 6.2967	 4.9802	-1.1742	 6.1278	 4.9536	50.0056	99.9907	
   277	-1.6321	 5.6084	 3.9764	-1.5929	 5.8712	 4.2783	-1.6018	 5.7420	 4.1402	49.3630	99.9880	
   278	-2.4960	 5.2735	 2.7775	-2.4451	 5.6621	 3.2170	-2.3324	 5.6555	 3.3231	48.4960	99.9842	
   279	-2.8521	 5.2512	 2.3992	-2.7613	 5.6253	 2.8640	-2.6308	 5.5744	 2.9436	48.6117	99.9858	
   280	-3.1108	 5.0216	 1.9109	-2.9941	 5.3847	 2.3906	-2.8115	 5.3331	 2.5216	48.8855	99.9847	
   281	-2.8595	 4.9090	 2.0496	-2.6325	 5.3280	 2.6954	-2.3423	 5.3086	 2.9663	49.5751	99.9843	
   282	-2.4430	 5.1795	 2.7366	-2.2963	 5.5837	 3.2874	-2.0806	 5.5156	 3.4350	49.4151	99.9857	
   283	-2.3239	 5.4217	 3.0978	-2.2546	 5.8402	 3.5856	-2.0845	 5.7261	 3.6416	49.0261	99.9869	
   284	-2.2961	 5.5091	 3.2132	-2.2456	 5.8823	 3.6367	-2.1329	 5.7489	 3.6159	48.9561	99.9876	
   285	-2.5145	 5.4450	 2.9306	-2.5057	 5.8192	 3.3134	-2.4344	 5.7084	 3.2741	48.4784	99.9873	
   286	-2.7676	 5.4158	 2.6483	-2.7651	 5.7688	 3.0036	-2.6874	 5.6453	 2.9579	48.4115	99.9870	
   287	-3.0466	 5.3285	 2.2820	-3.0476	 5.6555	 2.6078	-2.9495	 5.5231	 2.5737	48.4300	99.9861	
   288	-3.3352	 5.2071	 1.8719	-3.3051	 5.5333	 2.2282	-3.1547	 5.4261	 2.2714	48.4790	99.9845	
   289	-3.4824	 5.1024	 1.6201	-3.4133	 5.4424	 2.0291	-3.1824	 5.3342	 2.1518	48.7905	99.9833	
   290	-3.5977	 4.9189	 1.3213	-3.4561	 5.2702	 1.8141	-3.1623	 5.2084	 2.0461	49.0867	99.9818	
   291	-3.5784	 4.8745	 1.2961	-3.3601	 5.2686	 1.9085	-2.9842	 5.2246	 2.2404	49.4371	99.9817	
   292	-3.4976	 4.8680	 1.3705	-3.2774	 5.2588	 1.9813	-2.9286	 5.2276	 2.2990	49.3948	99.9821	
   293	-3.5370	 4.8296	 1.2927	-3.2990	 5.2212	 1.9222	-2.9370	 5.1797	 2.2427	49.5273	99.9825	
   294	-3.5023	 4.7947	 1.2925	-3.2947	 5.1874	 1.8927	-2.9397	 5.1354	 2.1957	49.4991	99.9823	
   295	-3.4975	 4.7555	 1.2581	-3.2462	 5.1444	 1.8982	-2.8818	 5.0867	 2.2049	49.7387	99.9832	
   296	-3.4041	 4.7145	 1.3105	-3.1517	 5.1175	 1.9657	-2.7893	 5.0597	 2.2704	49.7976	99.9836	
   297	-3.2943	 4.6976	 1.4034	-3.0765	 5.0909	 2.0144	-2.7415	 5.0258	 2.2844	49.7643	99.9836	
   298	-3.2596	 4.6627	 1.4031	-3.0723	 5.0571	 1.9848	-2.7442	 4.9816	 2.2374	49.7364	99.9834	
   299	-3.2163	 4.6471	 1.4309	-3.0229	 5.0268	 2.0038	-2.7014	 4.9552	 2.2537	49.8212	99.9832	
   300	-3.1595	 4.6118	 1.4524	-2.9677	 4.9879	 2.0202	-2.6543	 4.9103	 2.2560	49.9005	99.9835	
   301	-3.0151	 4.5600	 1.5450	-2.8365	 4.9350	 2.0986	-2.5134	 4.8605	 2.3471	50.0442	99.9827	
   302	-2.9438	 4.5194	 1.5757	-2.7629	 4.8832	 2.1204	-2.4554	 4.8118	 2.3563	50.1236	99.9828	
   303	-2.9399	 4.4655	 1.5257	-2.7793	 4.8245	 2.0451	-2.4926	 4.7458	 2.2532	50.0853	99.9831	
   304	-2.9735	 4.4026	 1.4292	-2.8091	 4.7575	 1.9483	-2.5285	 4.7020	 2.1735	50.0373	99.9825	
   305	-2.9379	 4.3823	 1.4445	-2.8033	 4.7490	 1.9457	-2.5075	 4.6832	 2.1758	50.0318	99.9818	
   306	-2.8638	 4.3858	 1.5221	-2.6822	 4.7385	 2.0563	-2.3906	 4.6928	 2.3022	50.2030	99.9821	
   307	-2.7117	 4.3387	 1.6271	-2.5694	 4.6986	 2.1292	-2.2835	 4.6324	 2.3488	50.2716	99.9821	
   308	-2.7097	 4.2555	 1.5459	-2.5800	 4.6313	 2.0513	-2.2760	 4.5732	 2.2972	50.2771	99.9813	
   309	-2.7673	 4.1637	 1.3965	-2.5965	 4.5726	 1.9761	-2.3048	 4.5551	 2.2503	50.1399	99.9823	
   310	-2.8404	 4.0625	 1.2222	-2.6522	 4.5018	 1.8496	-2.3420	 4.4892	 2.1471	50.1562	99.9829	
   311	-2.9673	 3.9281	 0.9609	-2.8094	 4.3443	 1.5349	-2.5059	 4.3436	 1.8377	50.0908	99.9813	
   312	-2.9134	 3.9612	 1.0479	-2.6460	 4.3963	 1.7503	-2.3244	 4.4151	 2.0907	50.3737	99.9834	
   313	-2.8191	 3.9349	 1.1159	-2.6182	 4.3284	 1.7102	-2.3687	 4.3234	 1.9547	50.2662	99.9837	
   314	-2.9653	 3.8449	 0.8797	-2.7879	 4.1752	 1.3873	-2.5667	 4.0713	 1.5046	50.6390	99.9856	
   315	-3.4143	 3.4137	-0.0006	-3.2794	 3.6902	 0.4107	-3.1005	 3.5761	 0.4756	50.6075	99.9850	
   316	-3.5942	 3.2607	-0.3333	-3.3370	 3.6911	 0.3541	-3.1188	 3.6391	 0.5203	50.3326	99.9885	
   317	-2.9989	 3.7820	 0.7831	-3.0316	 4.1709	 1.1393	-3.2164	 4.1313	 0.9149	48.2119	99.9918	
   318	-3.1515	 4.2790	 1.1276	-3.1551	 4.6537	 1.4986	-3.2439	 4.5931	 1.3492	48.1944	99.9902	
   319	-2.9428	 4.4216	 1.4789	-2.7739	 4.7063	 1.9324	-2.6399	 4.6000	 1.9602	50.0219	99.9871	
   320	-2.1746	 4.3035	 2.1290	-1.9748	 4.5789	 2.6042	-1.7526	 4.5296	 2.7769	50.9557	99.9826	
   321	-1.6463	 4.3614	 2.7153	-1.5924	 4.5472	 2.9547	-1.6316	 4.4246	 2.7930	50.6285	99.9871	
   322	-1.7020	 4.2990	 2.5970	-1.5991	 4.5431	 2.9440	-1.5110	 4.4046	 2.8936	51.0446	99.9864	
   323	-1.6354	 4.0726	 2.4374	-1.5099	 4.3307	 2.8208	-1.3934	 4.2444	 2.8510	51.2189	99.9847	
   324	-1.6574	 3.9606	 2.3033	-1.4496	 4.2707	 2.8211	-1.3232	 4.2140	 2.8907	51.2949	99.9868	
   325	-1.8258	 3.8710	 2.0454	-1.6537	 4.1814	 2.5276	-1.5098	 4.1499	 2.6401	51.0895	99.9846	
   326	-1.8787	 3.8525	 1.9739	-1.6722	 4.1943	 2.5222	-1.5034	 4.1646	 2.6612	51.1304	99.9855	
   327	-1.8873	 3.8331	 1.9459	-1.6596	 4.1899	 2.5303	-1.4753	 4.1716	 2.6963	51.1609	99.9855	
   328	-1.8267	 3.8564	 2.0298	-1.5295	 4.2214	 2.6919	-1.3232	 4.2140	 2.8907	51.4050	99.9863	
   329	-1.7093	 3.8442	 2.1351	-1.4394	 4.2283	 2.7889	-1.2345	 4.2165	 2.9820	51.3679	99.9863	
   330	-1.6948	 3.8391	 2.1443	-1.4144	 4.2195	 2.8051	-1.2562	 4.2242	 2.9680	51.2266	99.9873	
   331	-1.6929	 3.8684	 2.1755	-1.4320	 4.2451	 2.8131	-1.2721	 4.2355	 2.9634	51.2115	99.9872	
   332	-1.7295	 3.8740	 2.1446	-1.4829	 4.2502	 2.7673	-1.3327	 4.2399	 2.9072	51.1069	99.9871	
   333	-1.7276	 3.9033	 2.1758	-1.4872	 4.2840	 2.7968	-1.3250	 4.2767	 2.9518	51.0749	99.9867	
   334	-1.6160	 3.9157	 2.2999	-1.4045	 4.2741	 2.8696	-1.2714	 4.2465	 2.9751	51.1237	99.9869	
   335	-1.6622	 3.8873	 2.2253	-1.4911	 4.2208	 2.7296	-1.4242	 4.1931	 2.7690	50.8666	99.9873	
   336	-1.7516	 3.8744	 2.1229	-1.5954	 4.1930	 2.5977	-1.5366	 4.1650	 2.6284	50.7875	99.9869	
   337	-1.7661	 3.8796	 2.1136	-1.6204	 4.2019	 2.5814	-1.5525	 4.1763	 2.6238	50.7449	99.9864	
   338	-1.7593	 3.8697	 2.1104	-1.6138	 4.2060	 2.5922	-1.5295	 4.1908	 2.6613	50.7233	99.9859	
   339	-1.6997	 3.8783	 2.1787	-1.5229	 4.2255	 2.7027	-1.3903	 4.2038	 2.8135	50.9981	99.9857	
   340	-1.6053	 3.8519	 2.2467	-1.4543	 4.1949	 2.7405	-1.3642	 4.1776	 2.8134	50.8822	99.9861	
   341	-1.6601	 3.8041	 2.1441	-1.5159	 4.1326	 2.6168	-1.4461	 4.1048	 2.6587	50.8832	99.9865	
   342	-1.7150	 3.7563	 2.0415	-1.5766	 4.0831	 2.5065	-1.5037	 4.0686	 2.5650	50.8301	99.9858	
   343	-1.7236	 3.7369	 2.0134	-1.6091	 4.0752	 2.4660	-1.5216	 4.0467	 2.5251	50.8196	99.9855	
   344	-1.7688	 3.7231	 1.9544	-1.6366	 4.0461	 2.4096	-1.5612	 4.0325	 2.4712	50.8144	99.9855	
   345	-1.6938	 3.7412	 2.0475	-1.5523	 4.0616	 2.5092	-1.4827	 4.0499	 2.5673	50.8727	99.9857	
   346	-1.6553	 3.7649	 2.1097	-1.5316	 4.0865	 2.5550	-1.4654	 4.0608	 2.5954	50.8623	99.9859	
   347	-1.6620	 3.7748	 2.1129	-1.5441	 4.0910	 2.5469	-1.4762	 4.0646	 2.5884	50.8571	99.9856	
   348	-1.6620	 3.7748	 2.1129	-1.5633	 4.0913	 2.5280	-1.5094	 4.0650	 2.5556	50.7507	99.9855	
   349	-1.6909	 3.7852	 2.0944	-1.6009	 4.1046	 2.5037	-1.5420	 4.0765	 2.5346	50.7027	99.9853	
   350	-1.6659	 3.8287	 2.1629	-1.5468	 4.1500	 2.6032	-1.4831	 4.1348	 2.6518	50.7396	99.9855	
   351	-1.5986	 3.8420	 2.2435	-1.4951	 4.1576	 2.6625	-1.4441	 4.1380	 2.6939	50.7291	99.9855	
   352	-1.6352	 3.8476	 2.2126	-1.5335	 4.1582	 2.6248	-1.4881	 4.1423	 2.6541	50.6758	99.9854	
   353	-1.6573	 3.8481	 2.1909	-1.5836	 4.1760	 2.5923	-1.5264	 4.1501	 2.6237	50.5798	99.9851	
   354	-1.6920	 3.8830	 2.1911	-1.6012	 4.2016	 2.6003	-1.5685	 4.1876	 2.6191	50.4891	99.9857	
   355	-1.7045	 3.9175	 2.2131	-1.6365	 4.2528	 2.6163	-1.5715	 4.2282	 2.6567	50.4571	99.9849	
   356	-1.6285	 3.9502	 2.3218	-1.5514	 4.2808	 2.7294	-1.5140	 4.2644	 2.7504	50.4198	99.9856	
   357	-1.6285	 3.9502	 2.3218	-1.5765	 4.2897	 2.7132	-1.5312	 4.2536	 2.7223	50.4036	99.9856	
   358	-1.6719	 3.9658	 2.2940	-1.6208	 4.2989	 2.6781	-1.5695	 4.2614	 2.6919	50.3982	99.9853	
   359	-1.7229	 3.9766	 2.2538	-1.6666	 4.2828	 2.6162	-1.6302	 4.2659	 2.6357	50.3393	99.9845	
   360	-1.7681	 3.9628	 2.1948	-1.7242	 4.2838	 2.5595	-1.6864	 4.2519	 2.5655	50.2802	99.9851	
   361	-1.7970	 3.9732	 2.1763	-1.7117	 4.2793	 2.5676	-1.6539	 4.2404	 2.5865	50.5211	99.9853	
   362	-1.7681	 3.9628	 2.1948	-1.7066	 4.2582	 2.5516	-1.6660	 4.2221	 2.5560	50.4514	99.9849	
   363	-1.7998	 3.9292	 2.1295	-1.7599	 4.2253	 2.4654	-1.7236	 4.1859	 2.4623	50.3816	99.9846	
   364	-1.8681	 3.9012	 2.0332	-1.8199	 4.1884	 2.3685	-1.7812	 4.1497	 2.3686	50.4136	99.9845	
   365	-1.9220	 3.8681	 1.9462	-1.8982	 4.1644	 2.2662	-1.8662	 4.1176	 2.2514	50.2950	99.9846	
   366	-1.9894	 3.8547	 1.8655	-1.9566	 4.1527	 2.1961	-1.9109	 4.1108	 2.1999	50.3005	99.9843	
   367	-1.9663	 3.8689	 1.9028	-1.9174	 4.1647	 2.2473	-1.8777	 4.1104	 2.2327	50.3919	99.9853	
   368	-1.9653	 3.8836	 1.9184	-1.9484	 4.1821	 2.2338	-1.9210	 4.1257	 2.2046	50.2356	99.9850	
   369	-2.0077	 3.9138	 1.9062	-1.9918	 4.2039	 2.2121	-1.9644	 4.1410	 2.1766	50.2246	99.9850	
   370	-2.0356	 3.9388	 1.9033	-2.0102	 4.2169	 2.2067	-1.9963	 4.1636	 2.1673	50.1760	99.9850	
   371	-2.0405	 3.9780	 1.9376	-2.0204	 4.2592	 2.2388	-1.9936	 4.2078	 2.2142	50.1440	99.9845	
   372	-2.0078	 4.0263	 2.0186	-1.9596	 4.3088	 2.3492	-1.9188	 4.2549	 2.3361	50.2685	99.9849	
   373	-1.9472	 4.0495	 2.1024	-1.9079	 4.3164	 2.4084	-1.8907	 4.2619	 2.3712	50.2520	99.9850	
   374	-1.9549	 4.0448	 2.0900	-1.9455	 4.3297	 2.3841	-1.9073	 4.2621	 2.3548	50.2035	99.9845	
   375	-1.9838	 4.0551	 2.0715	-1.9522	 4.3256	 2.3734	-1.9296	 4.2587	 2.3291	50.2411	99.9852	
   376	-2.0146	 4.0362	 2.0217	-1.9847	 4.3177	 2.3330	-1.9310	 4.2366	 2.3056	50.3381	99.9849	
   377	-2.0204	 4.0608	 2.0405	-1.9639	 4.3426	 2.3787	-1.9110	 4.2917	 2.3807	50.2849	99.9846	
   378	-1.9434	 4.1081	 2.1648	-1.8523	 4.3871	 2.5349	-1.7820	 4.3195	 2.5376	50.5424	99.9854	
   379	-1.9145	 4.0978	 2.1834	-1.8531	 4.3745	 2.5214	-1.7891	 4.2938	 2.5047	50.5156	99.9852	
   380	-1.9232	 4.0784	 2.1553	-1.8722	 4.3748	 2.5026	-1.7941	 4.3012	 2.5071	50.4407	99.9848	
   381	-1.9145	 4.0978	 2.1834	-1.8389	 4.3953	 2.5564	-1.7532	 4.3376	 2.5844	50.4730	99.9846	
   382	-1.7414	 4.2606	 2.5193	-1.5951	 4.6063	 3.0111	-1.4339	 4.5808	 3.1469	50.6483	99.9842	
   383	-1.4374	 4.3915	 2.9542	-1.3091	 4.6731	 3.3640	-1.2513	 4.5785	 3.3271	50.8718	99.9874	
   384	-1.5634	 4.2717	 2.7084	-1.4506	 4.5616	 3.1110	-1.3665	 4.5061	 3.1397	50.7391	99.9852	
   385	-1.5009	 4.3243	 2.8235	-1.3107	 4.6478	 3.3371	-1.1497	 4.6104	 3.4606	51.0429	99.9850	
   386	-1.2209	 4.4263	 3.2055	-1.0188	 4.7062	 3.6873	-0.8713	 4.6363	 3.7650	51.4421	99.9855	
   387	-1.3353	 4.2574	 2.9222	-1.2818	 4.4955	 3.2138	-1.1733	 4.4040	 3.2307	51.1388	99.9827	
   388	-1.6730	 4.1761	 2.5032	-1.5886	 4.4037	 2.8151	-1.4584	 4.2674	 2.8090	51.3012	99.9842	
   389	-1.6856	 4.2106	 2.5251	-1.5670	 4.4413	 2.8743	-1.4449	 4.3078	 2.8629	51.3215	99.9853	
   390	-1.4779	 4.4510	 2.9732	-1.3879	 4.5395	 3.1516	-1.5343	 4.2942	 2.7599	51.2582	99.9919	
   391	-2.2872	 4.2764	 1.9893	-2.4826	 4.4484	 1.9658	-2.6343	 4.3268	 1.6926	49.0339	99.9844	
   392	-2.2336	 4.6471	 2.4135	-2.0745	 4.9306	 2.8561	-2.0608	 4.8362	 2.7754	49.9545	99.9896	
   393	-2.0692	 4.7905	 2.7214	-1.9354	 5.0042	 3.0688	-2.0083	 4.8798	 2.8715	49.9622	99.9906	
   394	-1.9655	 5.0232	 3.0578	-1.7115	 5.4094	 3.6979	-1.4871	 5.4416	 3.9545	50.0110	99.9841	
   395	-1.2818	 5.6552	 4.3735	-0.9014	 5.9692	 5.0678	-0.6516	 5.7962	 5.1446	51.4470	99.9903	
   396	-0.9434	 5.0615	 4.1182	-0.8446	 5.2387	 4.3942	-0.6376	 5.1132	 4.4756	51.5411	99.9799	
   397	-0.5662	 5.1811	 4.6150	-0.3254	 5.4492	 5.1238	-0.0981	 5.3351	 5.2369	51.8691	99.9850	
   398	-0.6374	 5.1092	 4.4719	-0.4037	 5.4253	 5.0215	-0.2588	 5.4257	 5.1670	51.0348	99.9848	
   399	-0.9859	 5.2042	 4.2184	-0.6532	 5.6361	 4.9829	-0.5229	 5.7281	 5.2053	50.2240	99.9876	
   400	-1.3760	 5.5690	 4.1931	-0.9754	 6.1180	 5.1427	-0.8311	 6.2156	 5.3845	49.4489	99.9911	
   401	-1.4449	 6.1035	 4.6587	-0.9950	 6.7256	 5.7305	-0.8136	 6.7802	 5.9666	49.1226	99.9933	
   402	-1.3366	 6.6345	 5.2979	-0.7259	 7.3409	 6.6149	-0.5068	 7.3668	 6.8600	49.1980	99.9961	
   403	-1.0917	 7.1089	 6.0173	-0.3718	 7.9842	 7.6124	 0.0876	 8.0383	 8.1259	49.4070	99.9948	
   404	-0.5916	 7.5293	 6.9378	 0.1800	 8.4092	 8.5893	 0.6045	 8.4377	 9.0422	49.5707	99.9960	
   405	-0.5214	 7.5866	 7.0653	 0.0295	 8.2558	 8.2853	 0.2352	 8.0992	 8.3344	49.5684	99.9966	
   406	-1.2198	 7.1848	 5.9652	-0.5758	 7.5913	 7.0156	-0.3108	 7.1280	 6.8172	51.7316	99.9966	
   407	-1.9708	 5.5124	 3.5417	-1.6568	 5.7711	 4.1143	-1.6061	 5.5797	 3.9736	50.4635	99.9933	
   408	-2.5263	 4.6920	 2.1659	-2.2175	 5.0005	 2.7830	-2.1770	 4.8377	 2.6607	50.3933	99.9938	
   409	-3.1637	 3.9760	 0.8124	-2.8446	 4.3954	 1.5509	-2.6719	 4.3458	 1.6739	50.1485	99.9906	
   410	-3.4945	 3.6598	 0.1654	-3.1483	 4.1476	 0.9992	-2.9342	 4.1277	 1.1934	50.0208	99.9907	
   411	-3.3770	 3.6477	 0.2707	-3.1374	 4.1179	 0.9805	-3.0206	 4.0734	 1.0528	49.6244	99.9913	
   412	-3.2559	 3.8067	 0.5508	-3.1244	 4.2231	 1.0987	-3.1934	 4.1458	 0.9524	48.9389	99.9934	
   413	-3.2168	 4.1825	 0.9658	-3.1242	 4.6363	 1.5121	-3.1663	 4.6843	 1.5180	48.0304	99.9898	
   414	-3.0825	 4.6591	 1.5767	-2.6695	 5.1473	 2.4778	-2.5285	 5.1597	 2.6312	49.3706	99.9928	
   415	-2.8846	 4.9780	 2.0935	-2.4954	 5.4732	 2.9779	-2.3610	 5.4565	 3.0955	49.2425	99.9932	
   416	-2.6962	 5.2628	 2.5667	-2.2335	 5.7682	 3.5347	-2.0601	 5.7627	 3.7026	49.4363	99.9935	
   417	-2.4328	 5.5657	 3.1330	-1.9693	 6.1011	 4.1318	-1.8052	 6.0399	 4.2347	49.4560	99.9949	
   418	-2.3579	 5.6962	 3.3385	-1.9296	 6.2227	 4.2931	-1.8158	 6.1397	 4.3239	49.2456	99.9955	
   419	-2.3974	 5.7704	 3.3731	-1.9566	 6.3033	 4.3466	-1.8985	 6.2368	 4.3382	48.9382	99.9963	
   420	-2.4533	 5.8204	 3.3672	-2.0079	 6.4053	 4.3974	-1.9237	 6.3700	 4.4463	48.6648	99.9961	
   421	-2.4024	 5.9221	 3.5199	-1.9130	 6.4881	 4.5750	-1.7984	 6.4274	 4.6290	49.0054	99.9963	
   422	-2.2792	 5.9979	 3.7188	-1.7723	 6.5869	 4.8145	-1.6640	 6.5438	 4.8798	48.9388	99.9965	
   423	-2.2619	 6.0367	 3.7748	-1.8017	 6.6295	 4.8278	-1.7118	 6.5776	 4.8658	48.7342	99.9964	
   424	-2.2303	 6.1828	 3.9526	-1.7597	 6.7891	 5.0294	-1.6909	 6.7398	 5.0489	48.5518	99.9968	
   425	-2.2487	 6.2418	 3.9933	-1.7883	 6.8444	 5.0561	-1.7438	 6.7811	 5.0373	48.4403	99.9971	
   426	-2.2468	 6.2712	 4.0245	-1.7926	 6.8782	 5.0856	-1.7157	 6.7881	 5.0724	48.5754	99.9969	
   427	-2.1419	 6.2935	 4.1517	-1.6934	 6.9271	 5.2337	-1.6178	 6.8496	 5.2317	48.4871	99.9969	
   428	-2.1083	 6.3564	 4.2483	-1.6644	 6.9814	 5.3170	-1.6247	 6.9198	 5.2951	48.3112	99.9971	
   429	-2.1266	 6.4155	 4.2890	-1.7114	 7.0497	 5.3383	-1.6840	 6.9464	 5.2624	48.2286	99.9973	
   430	-2.1998	 6.4267	 4.2271	-1.7882	 7.0510	 5.2628	-1.7663	 6.9585	 5.1923	48.1284	99.9973	
   431	-2.2517	 6.4229	 4.1712	-1.8642	 7.0649	 5.2008	-1.8479	 6.9817	 5.1338	47.9044	99.9972	
   432	-2.2575	 6.4474	 4.1900	-1.8442	 7.0772	 5.2331	-1.7924	 6.9847	 5.1923	48.1463	99.9970	
   433	-2.2219	 6.4272	 4.2054	-1.8058	 7.0766	 5.2708	-1.7700	 6.9881	 5.2181	48.0700	99.9972	
   434	-2.2508	 6.4375	 4.1868	-1.8367	 7.0940	 5.2573	-1.8178	 7.0220	 5.2041	47.8995	99.9973	
   435	-2.3086	 6.4582	 4.1498	-1.9060	 7.1120	 5.2060	-1.8893	 7.0303	 5.1410	47.8341	99.9973	
   436	-2.3442	 6.4785	 4.1344	-1.9495	 7.1338	 5.1843	-1.9117	 7.0269	 5.1152	47.9104	99.9972	
   437	-2.4020	 6.4992	 4.0974	-2.0122	 7.1560	 5.1438	-1.9760	 7.0609	 5.0849	47.7807	99.9971	
   438	-2.3731	 6.4889	 4.1159	-1.9605	 7.1635	 5.2031	-1.8981	 7.0673	 5.1691	47.9116	99.9971	
   439	-2.3057	 6.5022	 4.1966	-1.8954	 7.1793	 5.2839	-1.8419	 7.0813	 5.2394	47.9176	99.9971	
   440	-2.3192	 6.5220	 4.2029	-1.9138	 7.1923	 5.2784	-1.9005	 7.1190	 5.2184	47.6878	99.9974	
   441	-2.3635	 6.5229	 4.1595	-1.9773	 7.2018	 5.2245	-1.9503	 7.1196	 5.1693	47.6344	99.9972	
   442	-2.4280	 6.5536	 4.1257	-2.0266	 7.2321	 5.2055	-2.0046	 7.1388	 5.1342	47.6282	99.9974	
   443	-2.4636	 6.5738	 4.1103	-2.0834	 7.2457	 5.1623	-2.0696	 7.1618	 5.0922	47.4799	99.9973	
   444	-2.4848	 6.5889	 4.1042	-2.0952	 7.2628	 5.1676	-2.0523	 7.1726	 5.1203	47.5871	99.9971	
   445	-2.4415	 6.5734	 4.1320	-2.0251	 7.2574	 5.2323	-1.9802	 7.1754	 5.1952	47.6650	99.9973	
   446	-2.4492	 6.5687	 4.1196	-2.0376	 7.2618	 5.2242	-2.0025	 7.1720	 5.1694	47.6117	99.9974	
   447	-2.4550	 6.5932	 4.1383	-2.0560	 7.2748	 5.2188	-2.0344	 7.1945	 5.1601	47.5109	99.9973	
   448	-2.4752	 6.6230	 4.1479	-2.0795	 7.3089	 5.2294	-2.0612	 7.2096	 5.1485	47.4985	99.9974	
   449	-2.5349	 6.6144	 4.0796	-2.1496	 7.3143	 5.1647	-2.1211	 7.2252	 5.1040	47.3750	99.9973	
   450	-2.5927	 6.6351	 4.0426	-2.2005	 7.3194	 5.1188	-2.1760	 7.2333	 5.0572	47.3626	99.9973	
   451	-2.5619	 6.6541	 4.0923	-2.1288	 7.3393	 5.2104	-2.0802	 7.2616	 5.1814	47.5479	99.9974	
   452	-2.4579	 6.6618	 4.2039	-2.0379	 7.3588	 5.3209	-1.9908	 7.2752	 5.2844	47.5602	99.9973	
   453	-2.4512	 6.6518	 4.2008	-2.0387	 7.3462	 5.3074	-2.0131	 7.2718	 5.2587	47.4596	99.9974	
   454	-2.5262	 6.6338	 4.1076	-2.1230	 7.3307	 5.2078	-2.0809	 7.2505	 5.1696	47.4472	99.9972	
   455	-2.5917	 6.6498	 4.0582	-2.1798	 7.3443	 5.1646	-2.1459	 7.2735	 5.1276	47.3588	99.9974	
   456	-2.6129	 6.6649	 4.0521	-2.2174	 7.3576	 5.1403	-2.1849	 7.2703	 5.0854	47.3339	99.9973	
   457	-2.6177	 6.7041	 4.0864	-2.2283	 7.3873	 5.1590	-2.2001	 7.2926	 5.0925	47.3214	99.9973	
   458	-2.5802	 6.7131	 4.1330	-2.1566	 7.4072	 5.2506	-2.1043	 7.3209	 5.2167	47.4658	99.9973	
   459	-2.4782	 6.6915	 4.2134	-2.0180	 7.3711	 5.3532	-1.9894	 7.2973	 5.3079	47.6135	99.9977	
   460	-2.4589	 6.6471	 4.1883	-2.0321	 7.3503	 5.3182	-1.9908	 7.2752	 5.2844	47.5254	99.9974	
   461	-2.5493	 6.6196	 4.0703	-2.1104	 7.3263	 5.2159	-2.0687	 7.2688	 5.2001	47.4433	99.9975	
   462	-2.5927	 6.6351	 4.0426	-2.1488	 7.3270	 5.1781	-2.1025	 7.2582	 5.1556	47.5130	99.9975	
   463	-2.5975	 6.6743	 4.0769	-2.1590	 7.3693	 5.2103	-2.1273	 7.3065	 5.1792	47.3837	99.9975	
   464	-2.5581	 6.7127	 4.1547	-2.1366	 7.4195	 5.2829	-2.1074	 7.3616	 5.2542	47.2668	99.9975	
   465	-2.4715	 6.7941	 4.3227	-2.0359	 7.4937	 5.4578	-2.0159	 7.4084	 5.3925	47.4023	99.9977	
   466	-2.4282	 6.7786	 4.3504	-1.9983	 7.4804	 5.4821	-1.9560	 7.3929	 5.4369	47.5028	99.9974	
   467	-2.4580	 6.7743	 4.3163	-1.9999	 7.4552	 5.4553	-1.9861	 7.3526	 5.3666	47.6013	99.9978	
   468	-2.5590	 6.6980	 4.1391	-2.1590	 7.3693	 5.2103	-2.1337	 7.2918	 5.1581	47.3813	99.9973	
   469	-2.5243	 6.6631	 4.1388	-2.2065	 7.1213	 4.9148	-2.4027	 6.7822	 4.3795	48.0789	99.9980	
   470	-3.5167	 5.7145	 2.1979	-3.4607	 6.1178	 2.6571	-3.6192	 5.9858	 2.3666	46.7689	99.9949	
   471	-3.8220	 5.9064	 2.0846	-3.4883	 6.5990	 3.1107	-3.3544	 6.6099	 3.2555	46.7536	99.9947	
   472	-3.2930	 6.3165	 3.0236	-3.0486	 6.8699	 3.8213	-3.1198	 6.7360	 3.6163	46.8601	99.9970	
   473	-3.3037	 6.3803	 3.0767	-2.9388	 6.9861	 4.0473	-2.9305	 6.8443	 3.9139	47.2993	99.9974	
   474	-3.3795	 6.1226	 2.7432	-3.1145	 6.6349	 3.5204	-3.2202	 6.4494	 3.2293	47.2213	99.9976	
   475	-3.7379	 5.6064	 1.8686	-3.6030	 5.9937	 2.3908	-3.7237	 5.8136	 2.0899	47.2872	99.9958	
   476	-4.0917	 5.1635	 1.0719	-3.9722	 5.6205	 1.6482	-3.9627	 5.5251	 1.5624	47.2038	99.9927	
   477	-4.3552	 4.9731	 0.6180	-4.2305	 5.4857	 1.2552	-4.2113	 5.4434	 1.2322	46.8093	99.9925	
   478	-4.5246	 4.9814	 0.4569	-4.4091	 5.4971	 1.0880	-4.3742	 5.4049	 1.0307	46.8418	99.9930	
   479	-4.6170	 4.9246	 0.3077	-4.5224	 5.4274	 0.9050	-4.4995	 5.3475	 0.8480	46.7012	99.9926	
   480	-4.6354	 5.0961	 0.4608	-4.5422	 5.6217	 1.0794	-4.5248	 5.6616	 1.1368	46.0203	99.9904	
   481	-3.4500	 6.4028	 2.9529	-2.7769	 7.2195	 4.4426	-2.1086	 7.1586	 5.0500	49.2162	99.9918	
   482	-2.5990	 6.1950	 3.5962	-2.4892	 6.8014	 4.3122	-2.6388	 6.8147	 4.1760	46.1623	99.9954	
   483	-1.9439	 6.6124	 4.6685	-1.1170	 7.2336	 6.1166	-0.8721	 7.0947	 6.2226	50.3071	99.9981	
   484	-1.6070	 6.5665	 4.9596	-1.1385	 7.1960	 6.0575	-1.0777	 7.0826	 6.0048	48.8420	99.9973	
   485	-1.4828	 6.5445	 5.0617	-1.0249	 7.1688	 6.1439	-0.8635	 6.9617	 6.0981	49.5688	99.9965	
   486	-1.4286	 6.2401	 4.8116	-1.1351	 6.9430	 5.8078	-1.2007	 7.1543	 5.9535	46.9772	99.9940	
   487	-1.6135	 6.3514	 4.7380	-1.1669	 6.9477	 5.7808	-1.0721	 6.8093	 5.7372	49.2467	99.9968	
   488	-1.4980	 6.3100	 4.8121	-0.9714	 6.8980	 5.9266	-0.8576	 6.7844	 5.9268	49.6204	99.9970	
   489	-1.4604	 6.2065	 4.7463	-0.8908	 6.7533	 5.8625	-0.7234	 6.6240	 5.9006	50.2223	99.9967	
   490	-1.3678	 6.0384	 4.6707	-0.7541	 6.5823	 5.8282	-0.5488	 6.4888	 5.9400	50.5684	99.9963	
   491	-1.2735	 6.0120	 4.7387	-0.6472	 6.5510	 5.9038	-0.4455	 6.4580	 6.0125	50.7051	99.9964	
   492	-1.1849	 6.0103	 4.8255	-0.5771	 6.5456	 5.9685	-0.3862	 6.4314	 6.0452	50.7712	99.9965	
   493	-1.1782	 6.0004	 4.8223	-0.5912	 6.5248	 5.9336	-0.4150	 6.4133	 5.9983	50.7055	99.9964	
   494	-1.1955	 5.9616	 4.7662	-0.6394	 6.4708	 5.8313	-0.5338	 6.3705	 5.8367	50.4307	99.9968	
   495	-1.3773	 5.8918	 4.5146	-0.8545	 6.4111	 5.5566	-0.7804	 6.3220	 5.5416	50.0767	99.9969	
   496	-1.4090	 5.8582	 4.4493	-0.8495	 6.3900	 5.5405	-0.7038	 6.3063	 5.6024	50.3491	99.9963	
   497	-1.1366	 5.8430	 4.7065	-0.5439	 6.3595	 5.8156	-0.4013	 6.2728	 5.8715	50.7261	99.9966	
   498	-1.0211	 5.8016	 4.7806	-0.4260	 6.2985	 5.8725	-0.2993	 6.2199	 5.9205	50.8482	99.9966	
   499	-1.0085	 5.7671	 4.7586	-0.4092	 6.2602	 5.8511	-0.2905	 6.1828	 5.8924	50.8839	99.9967	
   500	-1.0258	 5.7283	 4.7026	-0.4499	 6.2230	 5.7730	-0.3595	 6.1394	 5.7799	50.7623	99.9969	
   501	-1.0806	 5.6805	 4.5999	-0.5299	 6.1737	 5.6439	-0.4618	 6.0965	 5.6346	50.5992	99.9969	
   502	-1.1720	 5.6383	 4.4664	-0.5906	 6.1242	 5.5335	-0.4933	 6.0341	 5.5408	50.8139	99.9969	
   503	-1.1355	 5.6327	 4.4973	-0.5848	 6.1156	 5.5309	-0.4984	 6.0416	 5.5432	50.6759	99.9965	
   504	-0.9584	 5.6291	 4.6709	-0.3160	 6.1111	 5.7951	-0.1721	 6.0337	 5.8615	51.2795	99.9967	
   505	-0.7168	 5.5950	 4.8783	-0.0755	 6.0649	 5.9894	 0.1009	 5.9711	 6.0720	51.6832	99.9962	
   506	-0.6031	 5.5242	 4.9212	-0.0226	 5.9881	 5.9654	 0.0969	 5.9047	 6.0016	51.4638	99.9962	
   507	-0.6348	 5.4906	 4.8559	-0.0376	 5.9546	 5.9170	 0.0776	 5.8606	 5.9383	51.5405	99.9966	
   508	-0.6435	 5.4712	 4.8278	-0.0399	 5.9167	 5.8767	 0.0373	 5.8353	 5.8727	51.4758	99.9968	
   509	-0.6829	 5.4329	 4.7501	-0.0881	 5.8627	 5.7745	-0.0050	 5.7768	 5.7719	51.5383	99.9966	
   510	-0.6925	 5.3988	 4.7064	-0.1097	 5.8251	 5.7154	-0.0452	 5.7515	 5.7063	51.4374	99.9965	
   511	-0.6636	 5.3885	 4.7250	-0.0462	 5.8156	 5.7693	 0.0971	 5.7238	 5.8209	51.8665	99.9960	
   512	-0.4740	 5.3505	 4.8766	 0.1625	 5.7741	 5.9366	 0.2834	 5.6919	 5.9753	52.0118	99.9963	
   513	-0.3815	 5.2948	 4.9134	 0.2295	 5.7182	 5.9477	 0.3254	 5.6544	 5.9799	51.9165	99.9962	
   514	-0.3622	 5.2504	 4.8883	 0.2338	 5.6843	 5.9181	 0.3177	 5.6176	 5.9353	51.8618	99.9963	
   515	-0.3718	 5.2164	 4.8446	 0.2365	 5.6253	 5.8618	 0.3245	 5.5474	 5.8719	52.0566	99.9963	
   516	-0.3968	 5.1728	 4.7761	 0.1891	 5.5839	 5.7730	 0.2669	 5.5112	 5.7782	51.9518	99.9961	
   517	-0.4054	 5.1534	 4.7481	 0.1683	 5.5590	 5.7273	 0.2426	 5.4746	 5.7172	51.9741	99.9962	
   518	-0.4276	 5.1539	 4.7264	 0.1867	 5.5460	 5.7327	 0.3032	 5.4702	 5.7734	52.2199	99.9957	
   519	-0.2437	 5.1404	 4.8968	 0.3912	 5.5383	 5.9295	 0.5183	 5.4563	 5.9746	52.4642	99.9959	
   520	-0.1503	 5.0994	 4.9492	 0.5024	 5.4732	 5.9756	 0.5769	 5.4187	 5.9956	52.4553	99.9962	
   521	-0.1532	 5.0555	 4.9024	 0.4750	 5.4441	 5.9191	 0.5417	 5.3859	 5.9276	52.3558	99.9963	
   522	-0.1859	 5.0072	 4.8215	 0.4268	 5.3901	 5.8169	 0.5045	 5.3199	 5.8244	52.4195	99.9961	
   523	-0.1887	 4.9633	 4.7746	 0.4177	 5.3481	 5.7659	 0.4917	 5.2906	 5.7822	52.3742	99.9959	
   524	-0.1531	 4.9430	 4.7900	 0.4479	 5.3181	 5.7660	 0.5120	 5.2608	 5.7728	52.4061	99.9958	
   525	-0.1531	 4.9430	 4.7900	 0.4487	 5.3307	 5.7794	 0.5184	 5.2754	 5.7939	52.3742	99.9959	
   526	-0.0424	 4.9408	 4.8985	 0.6081	 5.3196	 5.9277	 0.7061	 5.2656	 5.9718	52.7129	99.9959	
   527	 0.0443	 4.9097	 4.9541	 0.6959	 5.2886	 5.9845	 0.7973	 5.2165	 6.0138	52.8801	99.9961	
   528	 0.0934	 4.8696	 4.9631	 0.7370	 5.2289	 5.9658	 0.8220	 5.1682	 5.9902	52.9079	99.9958	
   529	 0.1127	 4.8252	 4.9380	 0.7346	 5.1910	 5.9256	 0.8143	 5.1314	 5.9456	52.8542	99.9957	
   530	 0.0982	 4.8304	 4.9287	 0.7471	 5.1865	 5.9337	 0.8251	 5.1275	 5.9527	52.9444	99.9959	
   531	 0.1050	 4.8204	 4.9255	 0.7338	 5.1783	 5.9121	 0.8065	 5.0946	 5.9011	52.9637	99.9962	
   532	 0.0954	 4.7864	 4.8819	 0.6989	 5.1325	 5.8315	 0.7649	 5.0471	 5.8120	52.9379	99.9959	
   533	 0.1291	 4.7368	 4.8660	 0.7533	 5.0810	 5.8344	 0.8675	 5.0052	 5.8727	53.1806	99.9951	
   534	 0.2158	 4.7057	 4.9216	 0.8662	 5.0412	 5.9073	 0.9600	 4.9782	 5.9382	53.2748	99.9955	
   535	 0.3015	 4.6600	 4.9616	 0.9582	 4.9764	 5.9345	 1.0766	 4.8918	 5.9684	53.6092	99.9952	
   536	 0.3564	 4.5953	 4.9518	 0.9601	 4.9046	 5.8647	 1.0394	 4.8258	 5.8652	53.4416	99.9950	
   537	 0.2862	 4.5380	 4.8243	 0.8492	 4.8728	 5.7220	 0.9161	 4.8015	 5.7177	53.1665	99.9949	
   538	 0.1669	 4.5208	 4.6878	 0.7391	 4.8536	 5.5927	 0.7776	 4.7996	 5.5772	52.9811	99.9952	
   539	 0.0341	 4.5235	 4.5577	 0.6232	 4.8429	 5.4660	 0.6218	 4.7869	 5.4087	52.8642	99.9960	
   540	-0.0988	 4.5262	 4.4275	 0.4845	 4.8789	 5.3634	 0.4707	 4.8516	 5.3222	52.4894	99.9961	
   541	 0.0052	 4.5339	 4.5391	 0.5495	 4.8947	 5.4442	 0.4988	 4.8586	 5.3574	52.3388	99.9964	
   542	-0.1294	 4.3947	 4.2654	 0.3489	 4.7589	 5.1078	 0.2641	 4.7324	 4.9965	52.0077	99.9961	
   543	-0.2199	 4.3672	 4.1474	 0.2756	 4.7138	 4.9894	 0.2059	 4.6852	 4.8911	52.1274	99.9959	
   544	-0.1919	 4.3422	 4.1503	 0.2983	 4.6670	 4.9653	 0.2083	 4.6335	 4.8418	52.1872	99.9959	
   545	-0.3005	 4.1487	 3.8483	 0.0737	 4.4558	 4.5295	-0.0483	 4.4190	 4.3707	51.8933	99.9948	
   546	-0.6429	 3.8816	 3.2388	-0.2810	 4.2130	 3.9320	-0.3541	 4.2162	 3.8622	51.7386	99.9933	
   547	-0.6814	 3.8579	 3.1767	-0.2442	 4.1871	 3.9429	-0.2578	 4.1596	 3.9018	52.2566	99.9939	
   548	-0.6196	 3.6708	 3.0514	-0.1835	 4.0300	 3.8465	-0.1209	 4.0434	 3.9226	52.4418	99.9918	
   549	-0.4136	 3.6569	 3.2434	 0.1303	 4.0289	 4.1592	 0.2158	 4.1166	 4.3324	52.6966	99.9915	
   550	 0.0616	 3.9213	 3.9830	 0.7220	 4.2719	 4.9939	 0.8074	 4.2862	 5.0936	53.5069	99.9946	
   551	 0.1761	 3.9778	 4.1539	 0.8129	 4.2915	 5.1044	 0.8667	 4.2596	 5.1263	53.6752	99.9951	
   552	 0.0509	 3.9851	 4.0362	 0.7270	 4.2508	 4.9778	 0.7835	 4.1647	 4.9482	54.0587	99.9959	
   553	-0.2339	 3.9224	 3.6886	 0.4461	 4.1627	 4.6089	 0.5623	 4.0789	 4.6413	54.1666	99.9946	
   554	-0.1165	 3.9102	 3.7939	 0.5997	 4.1602	 4.7598	 0.7456	 4.0876	 4.8332	54.3819	99.9945	
   555	 0.2916	 3.9363	 4.2280	 1.0569	 4.1988	 5.2557	 1.2865	 4.1508	 5.4373	54.9105	99.9931	
   556	 0.5833	 3.8767	 4.4601	 1.2723	 4.1614	 5.4338	 1.4397	 4.1193	 5.5590	54.6811	99.9934	
   557	 0.7257	 3.9081	 4.6339	 1.4475	 4.1964	 5.6439	 1.6083	 4.1614	 5.7698	54.7957	99.9939	
   558	 0.7797	 3.8287	 4.6085	 1.4282	 3.9901	 5.4183	 1.3979	 3.7950	 5.1929	55.1670	99.9972	
   559	-0.3710	 3.4018	 3.0308	 0.2060	 3.6018	 3.8078	 0.4653	 3.3899	 3.8552	55.2376	99.9921	
   560	-0.5510	 3.3613	 2.8105	 0.1136	 3.5569	 3.6705	 0.3369	 3.3731	 3.7100	55.2032	99.9937	
   561	-0.5559	 3.5131	 2.9572	 0.1238	 3.7212	 3.8451	 0.3751	 3.5461	 3.9212	55.1147	99.9934	
   562	-0.3176	 3.8849	 3.5674	 0.5613	 4.1608	 4.7221	 0.8354	 4.0164	 4.8518	55.2523	99.9961	
   563	 0.2548	 4.1669	 4.4218	 1.1016	 4.2993	 5.4009	 1.1836	 4.0968	 5.2804	55.5066	99.9976	
   564	 0.3771	 4.1156	 4.4928	 1.0957	 4.3078	 5.4035	 1.2073	 4.1223	 5.3296	55.0848	99.9962	
   565	 0.4349	 4.0949	 4.5298	 1.1670	 4.2180	 5.3850	 1.2860	 3.9589	 5.2449	55.7160	99.9965	
   566	 0.3772	 4.0031	 4.3804	 1.0969	 4.2234	 5.3203	 1.2402	 4.0259	 5.2661	55.2189	99.9962	
   567	 0.4157	 4.0268	 4.4425	 1.1721	 4.1969	 5.3689	 1.2741	 4.0365	 5.3106	55.2600	99.9961	
   568	 0.3763	 3.9884	 4.3648	 1.1180	 4.1514	 5.2694	 1.2094	 3.9746	 5.1841	55.2763	99.9963	
   569	 0.3753	 3.9738	 4.3492	 1.1438	 4.1552	 5.2990	 1.2873	 3.9810	 5.2683	55.4383	99.9960	
   570	 0.4629	 3.9573	 4.4204	 1.2249	 4.1201	 5.3450	 1.3307	 3.9657	 5.2964	55.3868	99.9959	
   571	 0.4918	 3.9470	 4.4389	 1.2132	 4.1371	 5.3503	 1.3256	 3.9731	 5.2987	55.2564	99.9958	
   572	 0.5245	 3.9952	 4.5198	 1.2163	 4.1877	 5.4040	 1.3175	 4.0212	 5.3387	55.1223	99.9957	
   573	 0.5110	 4.0151	 4.5262	 1.1486	 4.2310	 5.3796	 1.2395	 4.0148	 5.2544	55.0037	99.9962	
   574	 0.4042	 3.9634	 4.3677	 1.0580	 4.1145	 5.1725	 1.0797	 3.9357	 5.0154	54.9146	99.9962	
   575	 0.2869	 3.8630	 4.1500	 0.8938	 4.0498	 4.9436	 0.9358	 3.8453	 4.7811	54.8018	99.9962	
   576	 0.1897	 3.8454	 4.0352	 0.8672	 4.0333	 4.9005	 1.0226	 3.8146	 4.8372	55.3234	99.9955	
   577	 0.2360	 3.7614	 3.9974	 0.8965	 3.9907	 4.8872	 0.9924	 3.7744	 4.7668	55.0536	99.9966	
   578	 0.1734	 3.7088	 3.8823	 0.8009	 3.8953	 4.6962	 0.8512	 3.7282	 4.5795	54.8018	99.9957	
   579	 0.1755	 3.6256	 3.8012	 0.8154	 3.8192	 4.6345	 0.8817	 3.6836	 4.5653	54.8205	99.9952	
   580	 0.1629	 3.6601	 3.8231	 0.8318	 3.8779	 4.7098	 0.9037	 3.7719	 4.6755	54.6884	99.9952	
   581	 0.2023	 3.6984	 3.9009	 0.8793	 3.9193	 4.7986	 0.9477	 3.7676	 4.7153	54.8502	99.9962	
   582	 0.0955	 3.6468	 3.7424	 0.8087	 3.8151	 4.6238	 0.8733	 3.6357	 4.5090	55.1977	99.9965	
   583	 0.1716	 3.6795	 3.8511	 0.9070	 3.8514	 4.7584	 1.0006	 3.7263	 4.7269	55.1652	99.9954	
   584	 0.3920	 3.6604	 4.0525	 1.1065	 3.8649	 4.9713	 1.1954	 3.7423	 4.9376	55.1455	99.9956	
   585	 0.4199	 3.6354	 4.0554	 1.0990	 3.8481	 4.9471	 1.1839	 3.7350	 4.9189	55.0110	99.9951	
   586	 0.4064	 3.6552	 4.0617	 1.1190	 3.8604	 4.9794	 1.2062	 3.7384	 4.9446	55.1455	99.9956	
   587	 0.4180	 3.6061	 4.0242	 1.1076	 3.7805	 4.8881	 1.2168	 3.6386	 4.8554	55.3753	99.9948	
   588	 0.2345	 3.2821	 3.5167	 0.7775	 3.4192	 4.1968	 0.8038	 3.2195	 4.0233	55.2034	99.9949	
   589	-0.5375	 2.4269	 1.8895	-0.2231	 2.4747	 2.2516	-0.2707	 2.2994	 2.0288	54.7195	99.9907	
   590	-1.1608	 2.0432	 0.8824	-0.7106	 2.2595	 1.5489	-0.5206	 2.1956	 1.6750	54.6689	99.9880	
   591	-1.2438	 2.2453	 1.0016	-0.7124	 2.5378	 1.8254	-0.4649	 2.4754	 2.0105	54.5541	99.9899	
   592	-1.1736	 2.3026	 1.1291	-0.6874	 2.5290	 1.8416	-0.5086	 2.3948	 1.8862	54.7230	99.9912	
   593	-1.2361	 2.2501	 1.0141	-0.7348	 2.4876	 1.7528	-0.5519	 2.4101	 1.8582	54.5301	99.9902	
   594	-1.1342	 2.3410	 1.2069	-0.6125	 2.5994	 1.9869	-0.4138	 2.4969	 2.0831	54.6499	99.9912	
   595	-1.0129	 2.3875	 1.3746	-0.4757	 2.6350	 2.1593	-0.3166	 2.5473	 2.2307	54.6153	99.9918	
   596	-0.9822	 2.4064	 1.4243	-0.4750	 2.6476	 2.1727	-0.3447	 2.5403	 2.1956	54.5419	99.9923	
   597	-0.9976	 2.3969	 1.3995	-0.4440	 2.6303	 2.1862	-0.2732	 2.5320	 2.2588	54.7920	99.9919	
   598	-0.8878	 2.3801	 1.4924	-0.3430	 2.6075	 2.2645	-0.1706	 2.4901	 2.3195	54.9610	99.9920	
   599	-0.8166	 2.3395	 1.5231	-0.2952	 2.5518	 2.2567	-0.1248	 2.4231	 2.2983	55.0729	99.9916	
   600	-0.8117	 2.3003	 1.4887	-0.2517	 2.5300	 2.2783	-0.0564	 2.4554	 2.3990	55.0368	99.9906	
   601	-0.5741	 2.4325	 1.8585	 0.0065	 2.6648	 2.6713	 0.1898	 2.5888	 2.7786	55.1194	99.9913	
   602	-0.2741	 2.7297	 2.4557	 0.3758	 3.0381	 3.4138	 0.6468	 3.0037	 3.6505	55.1131	99.9909	
   603	-0.1078	 2.9025	 2.7948	 0.4440	 3.1044	 3.5484	 0.5892	 2.9675	 3.5568	55.1906	99.9925	
   604	-0.2444	 2.8465	 2.6023	 0.3574	 3.0510	 3.4084	 0.5496	 2.9533	 3.5029	55.2685	99.9914	
   605	-0.0616	 2.9309	 2.8694	 0.5839	 3.1906	 3.7745	 0.8272	 3.1490	 3.9763	55.2029	99.9906	
   606	 0.3112	 3.5544	 3.8658	 1.1147	 3.8942	 5.0089	 1.4466	 3.8682	 5.3148	55.2991	99.9924	
   607	 0.6294	 4.0176	 4.6471	 1.4467	 4.1838	 5.6305	 1.6231	 3.9472	 5.5702	56.0936	99.9967	
   608	 0.3494	 3.9156	 4.2651	 1.0698	 4.0974	 5.1672	 1.2532	 3.8744	 5.1276	55.6197	99.9955	
   609	 0.2464	 3.9225	 4.1690	 0.9087	 4.0832	 4.9920	 1.0442	 3.8070	 4.8512	55.5022	99.9961	
   610	 0.0318	 3.9171	 3.9489	 0.6850	 4.0912	 4.7763	 0.8119	 3.8100	 4.6218	55.2664	99.9964	
   611	 0.0461	 4.0244	 4.0706	 0.7940	 4.1948	 4.9888	 0.9679	 3.9187	 4.8866	55.5853	99.9967	
   612	 0.2819	 4.0148	 4.2968	 1.0804	 4.1647	 5.2451	 1.2481	 3.8819	 5.1300	55.9902	99.9971	
   613	 0.2484	 3.8394	 4.0879	 1.0008	 4.0184	 5.0192	 1.1764	 3.7942	 4.9705	55.6952	99.9960	
   614	 0.1820	 3.8407	 4.0228	 0.9314	 4.0365	 4.9679	 1.1184	 3.8429	 4.9613	55.4997	99.9956	
   615	 0.0624	 4.0485	 4.1110	 0.9206	 4.2728	 5.1934	 1.1643	 4.0527	 5.2170	55.6946	99.9967	
   616	 0.0980	 4.1407	 4.2388	 0.8195	 4.2956	 5.1151	 0.9432	 3.9670	 4.9102	55.5472	99.9975	
   617	-0.0580	 4.1292	 4.0713	 0.5868	 4.2616	 4.8484	 0.7294	 4.0030	 4.7324	55.1038	99.9953	
   618	-0.1080	 4.1546	 4.0467	 0.5241	 4.2837	 4.8078	 0.6424	 3.9376	 4.5800	55.2649	99.9967	
   619	-0.3610	 4.0129	 3.6520	 0.2592	 4.1448	 4.4040	 0.3644	 3.8268	 4.1912	55.0158	99.9965	
   620	-0.3169	 4.1246	 3.8078	 0.4031	 4.2942	 4.6973	 0.5634	 4.0051	 4.5685	55.1598	99.9968	
   621	-0.0716	 4.2615	 4.1900	 0.6731	 4.4119	 5.0850	 0.8089	 4.1274	 4.9364	55.2749	99.9971	
   622	 0.0334	 4.1714	 4.2049	 0.8027	 4.3338	 5.1365	 0.9658	 4.0664	 5.0322	55.4754	99.9969	
   623	 0.1152	 4.1795	 4.2948	 0.8944	 4.3660	 5.2604	 1.0643	 4.1389	 5.2032	55.3457	99.9966	
   624	 0.3134	 4.2734	 4.5869	 1.0668	 4.4601	 5.5269	 1.1774	 4.1781	 5.3555	55.3622	99.9977	
   625	 0.1123	 4.2480	 4.3604	 0.8400	 4.4175	 5.2575	 0.9596	 4.1476	 5.1073	55.2065	99.9971	
   626	 0.1873	 4.2661	 4.4535	 0.9402	 4.3821	 5.3223	 1.0559	 4.0910	 5.1469	55.5749	99.9972	
   627	 0.2471	 4.1622	 4.4094	 0.9315	 4.2431	 5.1746	 1.0421	 3.9546	 4.9967	55.6163	99.9961	
   628	 0.3166	 3.9798	 4.2965	 0.9526	 3.9644	 4.9170	 1.0738	 3.6552	 4.7291	56.1451	99.9943	
   629	-0.2265	 3.2375	 3.0111	 0.0867	 3.8441	 3.9308	 0.9384	 3.6127	 4.5510	55.0469	99.9778	
   630	 0.5478	 3.7845	 4.3323	 0.9686	 3.9136	 4.8822	 1.5081	 3.6939	 5.2020	56.2155	99.9785	
   631	 0.6160	 3.9249	 4.5410	 1.4177	 4.1295	 5.5471	 1.9896	 3.9646	 5.9541	56.8259	99.9873	
   632	 0.9240	 3.8894	 4.8135	 1.6707	 4.0788	 5.7495	 2.0763	 3.9339	 6.0102	56.4487	99.9895	
   633	 0.7277	 3.8249	 4.5527	 1.5943	 3.9831	 5.5774	 2.0171	 3.7797	 5.7968	57.0617	99.9922	
   634	 0.6950	 3.7766	 4.4718	 1.5594	 3.9373	 5.4967	 1.9264	 3.7439	 5.6703	56.8762	99.9932	
   635	 0.6431	 3.7728	 4.4159	 1.4509	 3.9434	 5.3942	 1.7865	 3.7199	 5.5064	56.6716	99.9937	
   636	 0.5065	 3.7168	 4.2234	 1.2726	 3.8578	 5.1304	 1.5328	 3.6456	 5.1785	56.3611	99.9940	
   637	 0.3775	 3.6656	 4.0432	 1.1166	 3.8225	 4.9391	 1.3814	 3.6144	 4.9958	56.1777	99.9937	
   638	 0.2736	 3.6579	 3.9316	 1.0124	 3.7948	 4.8072	 1.2524	 3.5865	 4.8389	56.1105	99.9939	
   639	 0.1610	 3.6308	 3.7919	 0.8890	 3.7673	 4.6563	 1.1278	 3.5401	 4.6679	56.0876	99.9941	
   640	 0.1023	 3.6369	 3.7392	 0.8757	 3.7591	 4.6348	 1.1667	 3.5433	 4.7100	56.3261	99.9933	
   641	 0.1293	 3.5972	 3.7266	 0.9050	 3.7165	 4.6215	 1.1857	 3.4914	 4.6771	56.4021	99.9937	
   642	 0.0619	 3.5839	 3.6459	 0.8024	 3.7140	 4.5163	 1.0465	 3.4784	 4.5249	56.1604	99.9943	
   643	-0.0430	 3.5615	 3.5186	 0.6539	 3.6954	 4.3493	 0.9104	 3.4248	 4.3352	56.1277	99.9942	
   644	-0.1574	 3.5051	 3.3478	 0.5516	 3.5959	 4.1475	 0.8021	 3.2822	 4.0843	56.4246	99.9947	
   645	-0.5670	 2.9997	 2.4329	-0.0764	 2.9782	 2.9019	 0.1484	 2.6373	 2.7858	56.3857	99.9904	
   646	-0.9780	 3.0422	 2.0643	-0.1968	 3.3050	 3.1081	 0.2784	 3.2299	 3.5083	55.5923	99.9887	
   647	-0.3779	 3.5242	 3.1464	 0.4310	 3.7160	 4.1470	 0.8389	 3.4331	 4.2720	56.4971	99.9940	
   648	-0.1200	 3.6266	 3.5067	 0.7805	 3.7734	 4.5538	 1.1853	 3.5763	 4.7616	56.6941	99.9931	
   649	 0.0821	 3.6666	 3.7488	 0.9681	 3.8039	 4.7721	 1.3259	 3.6114	 4.9373	56.6502	99.9935	
   650	 0.1128	 3.6856	 3.7985	 0.9513	 3.8422	 4.7935	 1.2940	 3.6339	 4.9280	56.4682	99.9937	
   651	 0.1523	 3.7239	 3.8763	 0.9854	 3.8753	 4.8607	 1.3357	 3.6814	 5.0171	56.4367	99.9931	
   652	 0.1926	 3.7769	 3.9696	 1.0270	 3.9252	 4.9522	 1.3549	 3.7254	 5.0804	56.3927	99.9936	
   653	 0.2244	 3.8105	 4.0350	 1.0485	 3.9628	 5.0114	 1.3512	 3.7550	 5.1062	56.3014	99.9942	
   654	 0.2167	 3.8058	 4.0225	 1.0094	 3.9508	 4.9602	 1.2719	 3.7265	 4.9984	56.1841	99.9947	
   655	 0.2302	 3.7859	 4.0162	 1.0419	 3.9587	 5.0006	 1.3800	 3.7731	 5.1531	56.2387	99.9931	
   656	 0.3822	 3.8514	 4.2336	 1.2186	 4.0190	 5.2376	 1.5314	 3.8044	 5.3357	56.4115	99.9945	
   657	 0.4409	 3.8453	 4.2863	 1.2378	 4.0187	 5.2564	 1.5314	 3.8044	 5.3357	56.2732	99.9943	
   658	 0.4437	 3.8893	 4.3331	 1.2468	 4.0607	 5.3075	 1.5391	 3.8412	 5.3803	56.2764	99.9945	
   659	 0.4659	 3.8888	 4.3548	 1.2452	 4.0354	 5.2806	 1.5039	 3.8084	 5.3123	56.2477	99.9946	
   660	 0.4640	 3.8595	 4.3236	 1.2362	 3.9934	 5.2296	 1.4917	 3.7901	 5.2819	56.2035	99.9939	
   661	 0.4803	 3.8836	 4.3640	 1.2319	 4.0272	 5.2591	 1.5039	 3.8084	 5.3123	56.2035	99.9937	
   662	 0.4726	 3.8789	 4.3516	 1.2378	 4.0187	 5.2564	 1.5205	 3.8082	 5.3287	56.2541	99.9934	
   663	 0.6227	 3.9150	 4.5378	 1.4447	 4.0489	 5.4935	 1.7735	 3.8714	 5.6449	56.5210	99.9925	
   664	 0.8479	 3.9692	 4.8172	 1.6429	 4.1467	 5.7897	 1.9557	 3.9539	 5.9096	56.4145	99.9934	
   665	 0.8873	 4.0076	 4.8950	 1.6621	 4.1464	 5.8086	 1.8255	 4.1808	 6.0062	55.2677	99.9898	
   666	 0.8950	 4.0123	 4.9074	 1.5998	 4.0716	 5.6714	 1.8186	 3.7933	 5.6119	56.6267	99.9938	
   667	 0.6737	 3.9042	 4.5781	 1.3929	 4.0413	 5.4343	 1.6228	 3.8512	 5.4740	56.0363	99.9933	
   668	 0.5698	 3.8965	 4.4664	 1.2636	 4.0224	 5.2861	 1.4426	 3.8018	 5.2444	55.9012	99.9944	
   669	 0.4775	 3.8397	 4.3172	 1.1813	 3.9353	 5.1166	 1.3766	 3.7178	 5.0944	56.0562	99.9937	
   670	 0.4719	 3.6393	 4.1112	 0.9724	 3.7701	 4.7426	 1.4024	 3.5956	 4.9981	56.0347	99.9829	
   671	 0.4056	 3.5281	 3.9338	 1.2223	 3.6689	 4.8912	 1.6773	 3.4703	 5.1476	57.0878	99.9902	
   672	 0.4268	 3.5130	 3.9399	 1.2000	 3.6187	 4.8187	 1.5303	 3.4205	 4.9508	56.7744	99.9917	
   673	 0.4662	 3.5513	 4.0176	 1.2674	 3.6724	 4.9398	 1.5719	 3.4680	 5.0399	56.7425	99.9931	
   674	 0.5249	 3.5453	 4.0703	 1.3042	 3.6465	 4.9506	 1.5482	 3.4424	 4.9906	56.6298	99.9937	
   675	 0.5144	 3.4966	 4.0110	 1.2693	 3.6007	 4.8700	 1.5103	 3.3654	 4.8757	56.6906	99.9940	
   676	 0.4365	 3.4345	 3.8711	 1.1627	 3.5350	 4.6977	 1.3786	 3.2933	 4.6719	56.5740	99.9942	
   677	 0.3143	 3.3734	 3.6878	 1.0185	 3.4826	 4.5011	 1.2476	 3.2322	 4.4798	56.5137	99.9939	
   678	 0.2854	 3.3838	 3.6693	 1.0702	 3.4902	 4.5604	 1.4213	 3.2669	 4.6882	56.9647	99.9921	
   679	 0.3124	 3.3441	 3.6566	 1.1062	 3.4516	 4.5579	 1.4505	 3.2001	 4.6506	57.1233	99.9930	
   680	 0.2585	 3.3109	 3.5696	 1.0012	 3.4112	 4.4125	 1.2883	 3.1726	 4.4609	56.7899	99.9930	
   681	 0.2143	 3.3118	 3.5262	 0.9319	 3.4293	 4.3612	 1.2059	 3.1848	 4.3907	56.6091	99.9933	
   682	 0.2220	 3.3165	 3.5386	 0.9636	 3.4245	 4.3881	 1.2442	 3.1769	 4.4211	56.7425	99.9934	
   683	 0.1902	 3.2829	 3.4733	 0.9479	 3.3784	 4.3263	 1.2236	 3.1107	 4.3343	56.8989	99.9940	
   684	-0.0954	 3.0930	 2.9977	 0.5521	 3.1953	 3.7475	 0.7481	 2.9397	 3.6878	56.2508	99.9939	
   685	-0.3371	 3.1272	 2.7902	 0.2764	 3.2928	 3.5692	 0.4937	 3.0352	 3.5289	55.7803	99.9940	
   686	-0.2726	 3.2090	 2.9365	 0.3172	 3.3300	 3.6472	 0.5198	 3.0090	 3.5288	56.0400	99.9944	
   687	-0.4545	 3.1393	 2.6849	 0.0813	 3.2455	 3.3267	 0.2214	 2.9280	 3.1494	55.6691	99.9946	
   688	-0.6239	 3.1476	 2.5238	-0.0323	 3.2727	 3.2404	 0.1411	 2.9733	 3.1144	55.6584	99.9947	
   689	-0.4767	 3.2522	 2.7756	 0.1135	 3.3503	 3.4638	 0.2867	 3.0010	 3.2877	55.9539	99.9951	
   690	-0.4930	 3.1156	 2.6228	 0.0632	 3.1614	 3.2246	 0.1815	 2.8178	 2.9993	55.9772	99.9949	
   691	-0.5910	 2.9709	 2.3800	 0.0060	 3.0654	 3.0714	 0.1890	 2.7586	 2.9476	56.0248	99.9943	
   692	-0.4226	 3.0604	 2.6379	 0.1992	 3.1844	 3.3836	 0.4026	 2.9035	 3.3061	55.9979	99.9942	
   693	-0.2841	 3.1457	 2.8617	 0.3191	 3.2583	 3.5774	 0.4941	 2.9503	 3.4444	56.0299	99.9948	
   694	-0.3111	 3.1854	 2.8743	 0.3215	 3.2962	 3.6177	 0.5523	 2.9975	 3.5498	56.1925	99.9940	
   695	-0.1841	 3.2073	 3.0233	 0.5158	 3.3309	 3.8467	 0.7650	 3.0354	 3.8004	56.4535	99.9947	
   696	-0.1447	 3.2456	 3.1010	 0.5558	 3.3555	 3.9113	 0.7785	 3.0758	 3.8544	56.3669	99.9947	
   697	-0.1486	 3.2995	 3.1510	 0.5397	 3.4064	 3.9461	 0.7538	 3.1241	 3.8779	56.2769	99.9947	
   698	-0.1322	 3.3236	 3.1915	 0.5530	 3.4146	 3.9676	 0.7812	 3.1201	 3.9013	56.4022	99.9944	
   699	-0.1399	 3.3189	 3.1790	 0.5397	 3.4064	 3.9461	 0.7467	 3.0984	 3.8451	56.3861	99.9949	
   700	-0.2236	 3.2814	 3.0579	 0.4214	 3.3578	 3.7792	 0.5882	 3.0414	 3.6295	56.2147	99.9951	
   701	-0.3430	 3.2642	 2.9214	 0.3054	 3.3471	 3.6525	 0.4662	 3.0393	 3.5055	56.0787	99.9953	
   702	-0.4171	 3.2608	 2.8439	 0.2737	 3.3518	 3.6255	 0.4899	 3.0648	 3.5547	56.2024	99.9946	
   703	-0.3093	 3.3272	 3.0179	 0.4395	 3.4418	 3.8813	 0.6894	 3.1582	 3.8476	56.3862	99.9950	
   704	-0.1737	 3.3685	 3.1949	 0.5645	 3.4945	 4.0590	 0.7886	 3.2418	 4.0304	56.1911	99.9949	
   705	-0.1093	 3.4503	 3.3412	 0.6601	 3.5899	 4.2500	 0.9612	 3.3503	 4.3116	56.3767	99.9939	
   706	 0.0581	 3.5252	 3.5835	 0.8811	 3.6410	 4.5220	 1.1580	 3.3995	 4.5575	56.6082	99.9948	
   707	 0.0399	 3.4718	 3.5118	 0.7827	 3.6047	 4.3874	 1.0564	 3.3676	 4.4240	56.3290	99.9938	
   708	-0.0207	 3.4486	 3.4279	 0.6993	 3.6019	 4.3011	 0.9944	 3.3499	 4.3443	56.2813	99.9937	
   709	-0.0419	 3.4637	 3.4219	 0.6617	 3.6152	 4.2768	 0.9351	 3.3765	 4.3116	56.1027	99.9936	
   710	-0.0179	 3.4925	 3.4748	 0.7408	 3.6518	 4.3926	 1.0936	 3.4335	 4.5271	56.3737	99.9925	
   711	 0.1197	 3.5631	 3.6829	 0.9685	 3.7070	 4.6754	 1.3466	 3.4967	 4.8433	56.7607	99.9930	
   712	 0.2332	 3.6049	 3.8382	 1.0410	 3.7395	 4.7804	 1.3537	 3.5224	 4.8762	56.5662	99.9936	
   713	 0.2178	 3.5954	 3.8133	 0.9818	 3.7152	 4.6970	 1.2189	 3.4910	 4.7099	56.3070	99.9944	
   714	 0.1283	 3.5825	 3.7110	 0.8725	 3.7086	 4.5811	 1.1122	 3.4665	 4.5787	56.2464	99.9945	
   715	 0.0687	 3.5739	 3.6427	 0.7832	 3.7143	 4.4975	 1.0343	 3.4601	 4.4944	56.1506	99.9943	
   716	 0.0542	 3.5791	 3.6335	 0.7706	 3.7187	 4.4894	 1.0018	 3.4716	 4.4734	56.0613	99.9945	
   717	 0.0475	 3.5890	 3.6366	 0.7456	 3.7276	 4.4732	 0.9476	 3.4908	 4.4384	55.8789	99.9946	
   718	 0.0561	 3.6084	 3.6647	 0.8423	 3.7386	 4.5809	 1.1820	 3.5210	 4.7029	56.4685	99.9927	
   719	 0.1456	 3.6213	 3.7670	 0.9317	 3.7329	 4.6645	 1.2362	 3.5018	 4.7380	56.5382	99.9934	
   720	 0.1004	 3.6075	 3.7080	 0.8541	 3.7215	 4.5756	 1.1129	 3.4776	 4.5905	56.3354	99.9941	
   721	 0.0417	 3.6136	 3.6554	 0.7773	 3.7228	 4.5001	 1.0248	 3.4861	 4.5109	56.1953	99.9939	
   722	 0.0253	 3.5895	 3.6149	 0.7432	 3.6897	 4.4329	 0.9774	 3.4350	 4.4125	56.2139	99.9941	
   723	-0.0891	 3.5331	 3.4440	 0.6006	 3.6626	 4.2632	 0.8650	 3.4069	 4.2719	56.0829	99.9936	
   724	-0.0872	 3.5624	 3.4752	 0.6163	 3.7087	 4.3250	 0.8728	 3.4437	 4.3165	56.0481	99.9943	
   725	-0.1613	 3.5590	 3.3977	 0.5387	 3.6973	 4.2361	 0.8013	 3.4520	 4.2533	55.9618	99.9937	
   726	-0.1527	 3.5784	 3.4258	 0.6237	 3.7254	 4.3492	 0.9584	 3.4869	 4.4454	56.3166	99.9934	
   727	-0.1354	 3.6171	 3.4818	 0.6136	 3.7678	 4.3813	 0.9157	 3.5133	 4.4291	56.1702	99.9940	
   728	-0.1162	 3.6852	 3.5691	 0.6669	 3.8006	 4.4675	 0.9248	 3.5723	 4.4971	56.1289	99.9943	
   729	-0.0855	 3.7042	 3.6188	 0.6810	 3.8214	 4.5024	 0.9594	 3.5940	 4.5533	56.1354	99.9937	
   730	-0.0248	 3.7274	 3.7027	 0.7527	 3.8413	 4.5940	 1.0647	 3.5963	 4.6610	56.3610	99.9935	
   731	-0.0556	 3.7085	 3.6530	 0.7194	 3.8208	 4.5402	 0.9990	 3.6082	 4.6072	56.1452	99.9934	
   732	-0.0316	 3.7374	 3.7059	 0.7727	 3.8536	 4.6263	 1.0616	 3.6369	 4.6986	56.2470	99.9938	
   733	-0.0027	 3.7270	 3.7244	 0.8228	 3.8359	 4.6587	 1.1568	 3.6542	 4.8110	56.3643	99.9923	
   734	 0.0993	 3.7054	 3.8048	 0.9654	 3.8630	 4.8284	 1.3465	 3.6776	 5.0241	56.5401	99.9929	
   735	 0.1753	 3.7381	 3.9136	 1.0254	 3.9000	 4.9253	 1.3939	 3.7286	 5.1225	56.4209	99.9926	
   736	 0.2677	 3.7950	 4.0627	 1.1179	 3.9448	 5.0626	 1.4514	 3.7648	 5.2162	56.4146	99.9933	
   737	 0.2831	 3.8044	 4.0876	 1.1253	 3.9615	 5.0868	 1.4623	 3.7610	 5.2233	56.4523	99.9937	
   738	 0.2369	 3.7760	 4.0130	 1.0728	 3.9413	 5.0141	 1.4176	 3.7542	 5.1717	56.3707	99.9933	
   739	 0.2754	 3.7997	 4.0752	 1.0928	 3.9536	 5.0464	 1.4016	 3.7654	 5.1671	56.2700	99.9936	
   740	 0.1868	 3.8015	 3.9884	 1.0094	 3.9508	 4.9602	 1.3237	 3.7591	 5.0828	56.2637	99.9935	
   741	 0.1926	 3.7769	 3.9696	 1.0869	 3.9622	 5.0491	 1.5256	 3.8008	 5.3264	56.5984	99.9920	
   742	 0.3504	 3.8178	 4.1683	 1.2295	 3.9893	 5.2188	 1.6144	 3.8033	 5.4177	56.6207	99.9932	
   743	 0.3024	 3.7600	 4.0625	 1.1179	 3.9448	 5.0626	 1.4616	 3.7499	 5.2115	56.3299	99.9934	
   744	 0.2446	 3.7807	 4.0254	 1.0803	 3.9581	 5.0383	 1.4189	 3.7763	 5.1952	56.2923	99.9935	
   745	 0.2985	 3.8139	 4.1125	 1.1328	 3.9783	 5.1110	 1.4751	 3.7903	 5.2655	56.3770	99.9933	
   746	 0.2148	 3.7764	 3.9913	 1.0270	 3.9252	 4.9522	 1.3614	 3.7401	 5.1015	56.3109	99.9928	
   747	 0.1330	 3.7683	 3.9014	 0.9627	 3.9221	 4.8848	 1.3109	 3.7297	 5.0406	56.3549	99.9931	
   748	 0.1561	 3.7825	 3.9387	 1.0403	 3.9334	 4.9737	 1.4514	 3.7648	 5.2162	56.6115	99.9920	
   749	 0.1994	 3.7670	 3.9664	 1.0846	 3.9243	 5.0088	 1.5114	 3.7493	 5.2607	56.7019	99.9919	
   750	 0.1984	 3.7523	 3.9508	 1.0387	 3.9082	 4.9469	 1.4200	 3.7025	 5.1224	56.5778	99.9929	
   751	 0.0744	 3.6619	 3.7363	 0.8447	 3.7765	 4.6212	 1.1386	 3.5363	 4.6749	56.3990	99.9936	
   752	-0.1844	 3.5448	 3.3604	 0.5070	 3.7021	 4.2091	 0.7773	 3.3305	 4.1079	56.3445	99.9957	
   753	-0.4634	 3.3449	 2.8817	 0.4492	 3.2898	 3.7390	-0.1171	 4.0139	 3.8967	51.3370	99.9768	
   754	 0.0049	 3.8442	 3.8492	 0.8801	 3.9319	 4.8120	 0.9713	 3.5163	 4.4876	56.6454	99.9989	
   755	-0.0401	 3.6055	 3.5654	 0.7221	 3.7617	 4.4838	 1.0529	 3.4931	 4.5460	56.3990	99.9940	
   756	-0.0334	 3.5955	 3.5623	 0.7762	 3.8072	 4.5834	 1.1504	 3.6395	 4.7899	56.1065	99.9927	
   757	 0.1667	 3.7187	 3.8855	 0.9243	 3.9227	 4.8471	 1.1984	 3.7016	 4.9001	55.9345	99.9947	
   758	-0.0131	 3.5658	 3.5528	 0.7370	 3.7952	 4.5322	 0.9967	 3.4791	 4.4758	56.1256	99.9964	
   759	-0.1295	 3.4801	 3.3507	 0.6163	 3.7087	 4.3250	 0.8799	 3.4695	 4.3493	55.8399	99.9954	
   760	-0.1305	 3.4654	 3.3351	 0.5955	 3.6837	 4.2792	 0.8396	 3.4442	 4.2837	55.7783	99.9954	
   761	-0.1824	 3.4616	 3.2793	 0.5571	 3.6844	 4.2415	 0.7962	 3.4595	 4.2557	55.6990	99.9955	
   762	-0.1959	 3.4814	 3.2856	 0.5254	 3.6891	 4.2145	 0.7579	 3.4674	 4.2253	55.6439	99.9951	
   763	-0.1574	 3.5051	 3.3478	 0.5720	 3.7179	 4.2899	 0.8422	 3.4884	 4.3307	55.7918	99.9948	
   764	-0.0584	 3.5520	 3.4938	 0.6962	 3.7579	 4.4542	 0.9611	 3.5312	 4.4923	55.8945	99.9950	
   765	-0.0266	 3.5856	 3.5591	 0.7029	 3.7620	 4.4649	 0.9337	 3.5352	 4.4689	55.8264	99.9949	
   766	-0.0555	 3.5960	 3.5406	 0.6602	 3.7965	 4.4567	 0.8865	 3.5801	 4.4667	55.6197	99.9949	
   767	-0.0718	 3.5719	 3.5001	 0.6136	 3.7678	 4.3813	 0.8385	 3.5180	 4.3565	55.6750	99.9950	
   768	-0.1152	 3.5874	 3.4723	 0.5885	 3.7766	 4.3651	 0.8175	 3.5367	 4.3542	55.6819	99.9950	
   769	-0.0902	 3.6309	 3.5408	 0.6167	 3.8183	 4.4350	 0.8418	 3.5733	 4.4152	55.6853	99.9952	
   770	-0.0806	 3.6650	 3.5845	 0.6250	 3.8477	 4.4727	 0.8496	 3.6101	 4.4597	55.6473	99.9950	
   771	-0.0305	 3.6395	 3.6091	 0.6810	 3.8214	 4.5024	 0.9089	 3.5835	 4.4924	55.7369	99.9950	
   772	 0.0012	 3.6731	 3.6744	 0.7268	 3.8375	 4.5644	 0.9326	 3.6091	 4.5417	55.7369	99.9952	
   773	-0.0046	 3.6977	 3.6932	 0.6900	 3.8635	 4.5535	 0.9058	 3.6242	 4.5300	55.6853	99.9948	
   774	-0.0181	 3.7175	 3.6995	 0.6716	 3.8764	 4.5480	 0.8733	 3.6357	 4.5090	55.6335	99.9949	
   775	-0.0248	 3.7274	 3.7027	 0.6407	 3.8938	 4.5345	 0.8459	 3.6397	 4.4856	55.5817	99.9948	
   776	-0.0451	 3.7572	 3.7122	 0.6415	 3.9064	 4.5479	 0.8516	 3.6433	 4.4950	55.7096	99.9949	
   777	-0.0653	 3.7869	 3.7217	 0.6313	 3.9488	 4.5801	 0.8204	 3.6770	 4.4974	55.6232	99.9957	
   778	-0.0441	 3.7718	 3.7278	 0.6489	 3.9232	 4.5721	 0.8600	 3.6912	 4.5513	55.5990	99.9945	
   779	 0.0463	 3.7994	 3.8458	 0.7465	 3.9468	 4.6933	 0.9712	 3.6972	 4.6683	55.7783	99.9946	
   780	 0.1002	 3.8325	 3.9328	 0.7755	 4.0012	 4.7767	 0.9853	 3.7487	 4.7340	55.6094	99.9948	
   781	 0.0636	 3.8382	 3.9019	 0.7422	 3.9806	 4.7228	 0.9495	 3.7048	 4.6543	55.7579	99.9950	
   782	 0.0569	 3.8481	 3.9050	 0.7179	 4.0021	 4.7200	 0.9291	 3.7346	 4.6637	55.6335	99.9947	
   783	 0.0424	 3.8533	 3.8958	 0.7163	 3.9769	 4.6932	 0.8844	 3.7278	 4.6122	55.5748	99.9949	
   784	 0.0203	 3.8537	 3.8741	 0.6795	 4.0028	 4.6823	 0.8627	 3.7355	 4.5982	55.5333	99.9951	
   785	-0.0009	 3.8688	 3.8680	 0.6552	 4.0243	 4.6795	 0.8475	 3.7578	 4.6053	55.4953	99.9950	
   786	 0.0443	 3.8826	 3.9270	 0.7203	 4.0400	 4.7603	 0.9752	 3.7636	 4.7387	55.7817	99.9943	
   787	 0.1492	 3.9049	 4.0542	 0.8296	 4.0466	 4.8762	 1.0378	 3.7923	 4.8301	55.6955	99.9946	
   788	 0.1501	 3.9196	 4.0698	 0.8304	 4.0593	 4.8896	 1.0053	 3.8038	 4.8091	55.5990	99.9952	
   789	 0.1203	 3.9153	 4.0357	 0.7853	 4.0558	 4.8411	 0.9606	 3.7970	 4.7575	55.5472	99.9950	
   790	 0.1232	 3.9592	 4.0825	 0.7752	 4.0982	 4.8733	 0.9728	 3.8153	 4.7880	55.6301	99.9949	
   791	 0.1155	 3.9545	 4.0701	 0.7685	 4.0940	 4.8625	 0.9402	 3.8268	 4.7670	55.4987	99.9951	
   792	 0.0866	 3.9649	 4.0515	 0.7493	 4.0944	 4.8437	 0.9019	 3.8346	 4.7366	55.4502	99.9953	
   793	 0.0654	 3.9800	 4.0455	 0.7242	 4.1032	 4.8275	 0.8969	 3.8421	 4.7389	55.4953	99.9948	
   794	 0.1549	 3.9929	 4.1478	 0.8285	 4.1310	 4.9594	 1.0584	 3.8585	 4.9169	55.7437	99.9944	
   795	 0.2222	 4.0062	 4.2285	 0.8935	 4.1468	 5.0402	 1.1147	 3.8725	 4.9871	55.7471	99.9945	
   796	 0.2309	 4.0256	 4.2566	 0.8817	 4.1638	 5.0456	 1.0821	 3.8840	 4.9661	55.6473	99.9947	
   797	 0.2174	 4.0454	 4.2629	 0.8692	 4.1682	 5.0375	 1.0547	 3.8880	 4.9427	55.6370	99.9948	
   798	 0.2029	 4.0506	 4.2536	 0.8441	 4.1771	 5.0213	 1.0489	 3.8844	 4.9333	55.6784	99.9946	
   799	 0.1953	 4.0458	 4.2412	 0.8434	 4.1645	 5.0078	 1.0208	 3.8774	 4.8982	55.6266	99.9949	
   800	 0.1664	 4.0562	 4.2227	 0.8242	 4.1648	 4.9890	 0.9991	 3.8851	 4.8842	55.6266	99.9949	
   801	 0.1587	 4.0515	 4.2102	 0.7866	 4.1781	 4.9646	 0.9666	 3.8966	 4.8632	55.4953	99.9946	
   802	 0.1741	 4.0609	 4.2351	 0.8324	 4.1942	 5.0266	 1.0669	 3.9063	 4.9732	55.7403	99.9943	
   803	 0.2722	 4.0932	 4.3655	 0.9492	 4.2175	 5.1667	 1.1793	 3.9344	 5.1137	55.8399	99.9944	
   804	 0.3107	 4.1169	 4.4277	 0.9691	 4.2298	 5.1990	 1.1915	 3.9527	 5.1442	55.7918	99.9940	
   805	 0.3107	 4.1169	 4.4277	 0.9500	 4.2301	 5.1801	 1.1410	 3.9423	 5.0833	55.6853	99.9945	
   806	 0.2895	 4.1320	 4.4216	 0.9500	 4.2301	 5.1801	 1.1302	 3.9461	 5.0763	55.7267	99.9947	
   807	 0.2895	 4.1320	 4.4216	 0.9315	 4.2431	 5.1746	 1.1193	 3.9500	 5.0693	55.6819	99.9947	
   808	 0.2597	 4.1277	 4.3875	 0.8998	 4.2478	 5.1477	 1.0702	 3.9617	 5.0319	55.5507	99.9950	
   809	 0.2375	 4.1281	 4.3658	 0.8740	 4.2441	 5.1180	 1.0472	 3.9472	 4.9944	55.5852	99.9950	
   810	 0.2606	 4.1424	 4.4031	 0.8947	 4.2690	 5.1638	 1.1098	 3.9759	 5.0857	55.6508	99.9943	
   811	 0.3424	 4.1505	 4.4930	 1.0224	 4.2626	 5.2851	 1.2216	 3.9929	 5.2145	55.7573	99.9946	
   812	 0.3799	 4.1595	 4.5396	 1.0299	 4.2794	 5.3093	 1.2274	 3.9965	 5.2239	55.7058	99.9945	
   813	 0.3674	 4.1940	 4.5615	 1.0248	 4.3006	 5.3254	 1.2382	 3.9927	 5.2309	55.8711	99.9946	
   814	 0.3511	 4.1699	 4.5211	 0.9856	 4.2886	 5.2742	 1.1769	 3.9861	 5.1630	55.6887	99.9947	
   815	 0.3511	 4.1699	 4.5211	 0.9872	 4.3138	 5.3011	 1.1789	 4.0193	 5.1982	55.5749	99.9949	
   816	 0.4800	 4.2211	 4.7012	 1.0456	 4.3255	 5.3711	 1.2365	 4.0555	 5.2920	55.4748	99.9928	
   817	 0.4588	 4.2362	 4.6951	 1.0989	 4.3583	 5.4572	 1.2920	 4.0585	 5.3505	55.7092	99.9948	
   818	 0.4828	 4.2651	 4.7480	 1.0879	 4.3880	 5.4760	 1.2500	 4.0959	 5.3459	55.4818	99.9947	
   819	 0.5183	 4.3573	 4.8757	 1.2153	 4.4787	 5.6940	 1.4800	 4.1446	 5.6246	56.1366	99.9948	
   820	 0.6098	 4.2870	 4.8969	 1.2082	 4.3649	 5.5731	 1.5576	 4.0550	 5.6126	56.2946	99.9902	
   821	 0.5415	 4.2590	 4.8007	 1.2007	 4.3482	 5.5489	 1.4631	 4.0489	 5.5120	56.1171	99.9932	
   822	 0.4146	 4.1246	 4.5393	 0.9660	 4.1793	 5.1452	 1.0462	 3.8402	 4.8864	55.5814	99.9953	
   823	 0.0469	 4.1515	 4.1986	 0.7654	 4.2501	 5.0156	 1.2508	 3.9261	 5.1769	56.7015	99.9900	
   824	 0.3656	 4.0522	 4.4179	 0.8410	 4.1266	 4.9675	 1.0239	 3.8368	 4.8606	55.4354	99.9914	
   825	 0.2616	 4.1570	 4.4187	 0.9366	 4.2219	 5.1586	 1.1499	 3.9053	 5.0551	56.0580	99.9945	
   826	 0.2597	 4.1277	 4.3875	 0.8951	 4.1720	 5.0671	 1.0744	 3.8472	 4.9215	55.9766	99.9944	
   827	 0.1895	 4.0704	 4.2600	 0.8151	 4.1228	 4.9379	 1.0219	 3.8036	 4.8254	55.9766	99.9937	
   828	 0.2106	 4.0553	 4.2661	 0.8860	 4.1300	 5.0161	 1.1445	 3.8167	 4.9612	56.1920	99.9937	
   829	 0.2694	 4.0493	 4.3187	 0.9370	 4.1249	 5.0619	 1.1719	 3.8127	 4.9846	56.1441	99.9940	
   830	 0.2598	 4.0152	 4.2751	 0.9103	 4.1085	 5.0188	 1.1215	 3.8023	 4.9238	55.9652	99.9943	
   831	 0.2761	 4.0393	 4.3155	 0.8994	 4.1382	 5.0376	 1.0998	 3.8099	 4.9097	55.9069	99.9946	
   832	 0.3136	 4.0484	 4.3621	 0.9546	 4.0993	 5.0539	 1.1507	 3.7355	 4.8861	56.2678	99.9949	
   833	 0.0436	 3.6429	 3.6866	 0.4524	 3.5470	 3.9994	 0.4133	 3.0805	 3.4939	55.9955	99.9958	
   834	-1.2993	 2.8725	 1.5733	-1.0617	 2.8937	 1.8320	-0.9765	 2.6223	 1.6458	54.3484	99.9881	
   835	-1.8591	 2.5560	 0.6970	-1.5096	 2.5934	 1.0838	-1.3181	 2.3757	 1.0575	54.6014	99.9864	
   836	-2.2371	 2.3092	 0.0722	-1.8905	 2.4439	 0.5533	-1.6504	 2.2840	 0.6336	54.0903	99.9856	
   837	-1.6727	 2.8115	 1.1389	-1.0413	 3.0156	 1.9744	-0.5827	 2.8165	 2.2338	55.4624	99.9884	
   838	-0.5257	 3.1799	 2.6542	-0.0515	 3.2730	 3.2215	 0.0906	 2.9629	 3.0535	55.4251	99.9933	
   839	-0.3911	 3.3190	 2.9280	 0.1331	 3.4596	 3.5927	 0.3293	 3.1554	 3.4847	55.5110	99.9935	
   840	-0.1901	 3.4568	 3.2668	 0.3388	 3.5742	 3.9131	 0.5294	 3.2599	 3.7893	55.6583	99.9935	
   841	-0.0141	 3.5511	 3.5372	 0.4987	 3.6727	 4.1715	 0.6452	 3.3433	 3.9885	55.5707	99.9944	
   842	-0.0121	 3.4680	 3.4560	 0.4383	 3.5262	 3.9645	 0.4919	 3.0980	 3.5899	55.7899	99.9959	
   843	-0.7519	 3.1110	 2.3593	-0.5123	 3.0742	 2.5618	-0.5290	 2.6054	 2.0764	55.2156	99.9940	
   844	-1.6186	 2.6197	 1.0012	-1.4243	 2.5245	 1.1003	-1.4290	 2.0080	 0.5790	55.2933	99.9933	
   845	-2.3662	 2.3705	 0.0044	-2.1586	 2.2544	 0.0958	-2.0667	 1.8095	-0.2572	55.0765	99.9895	
   846	-2.6194	 2.4538	-0.1655	-2.5033	 2.2729	-0.2304	-2.4420	 1.8291	-0.6129	54.6586	99.9868	
   847	-2.8110	 2.5750	-0.2359	-2.7097	 2.3523	-0.3575	-2.6697	 1.9095	-0.7602	54.4326	99.9861	
   848	-2.7006	 2.7978	 0.0973	-2.5764	 2.6410	 0.0646	-2.5291	 2.2215	-0.3076	54.0636	99.9873	
   849	-2.7332	 2.7495	 0.0164	-2.7335	 2.6900	-0.0434	-2.5920	 2.0968	-0.4952	54.2818	99.9887	
   850	-2.7303	 2.6810	-0.0492	-2.6752	 2.4951	-0.1801	-2.6340	 2.1342	-0.4998	53.7954	99.9829	
   851	-2.6223	 2.5223	-0.0999	-2.4962	 2.3866	-0.1096	-2.3609	 2.0717	-0.2893	54.1853	99.9813	
   852	-2.5894	 2.3456	-0.2437	-2.3924	 2.3048	-0.0877	-2.2109	 2.0808	-0.1301	54.0340	99.9809	
   853	-2.2893	 2.5304	 0.2411	-1.9559	 2.5251	 0.5692	-1.7608	 2.2891	 0.5283	54.4778	99.9855	
   854	-1.9286	 2.7384	 0.8099	-1.6521	 2.7730	 1.1208	-1.4832	 2.4849	 1.0017	54.3634	99.9876	
   855	-1.7814	 2.8430	 1.0617	-1.5373	 2.8680	 1.3307	-1.4216	 2.5874	 1.1658	54.1291	99.9879	
   856	-1.6179	 2.9718	 1.3540	-1.3089	 2.9358	 1.6269	-1.2530	 2.6295	 1.3766	54.4819	99.9902	
   857	-1.6592	 2.7917	 1.1326	-1.4441	 2.7188	 1.2747	-1.4310	 2.4325	 1.0015	54.2563	99.9879	
   858	-1.8100	 2.5159	 0.7060	-1.6535	 2.4441	 0.7906	-1.5843	 2.1872	 0.6029	54.2670	99.9838	
   859	-1.8349	 2.3599	 0.5251	-1.6097	 2.3253	 0.7156	-1.4982	 2.1455	 0.6473	54.3018	99.9823	
   860	-1.5683	 2.3692	 0.8010	-1.2735	 2.3744	 1.1009	-1.1429	 2.2516	 1.1087	54.4121	99.9824	
   861	-1.3749	 2.5023	 1.1275	-1.0305	 2.5727	 1.5422	-0.8761	 2.4512	 1.5751	54.4184	99.9848	
   862	-1.2452	 2.6807	 1.4356	-0.8534	 2.7426	 1.8892	-0.7296	 2.5859	 1.8563	54.5711	99.9877	
   863	-1.2270	 2.7341	 1.5073	-0.8384	 2.7761	 1.9376	-0.7360	 2.5712	 1.8352	54.7155	99.9893	
   864	-1.2750	 2.6764	 1.4015	-0.9192	 2.7142	 1.7950	-0.8440	 2.5246	 1.6806	54.5076	99.9888	
   865	-1.2837	 2.6570	 1.3734	-0.9325	 2.7060	 1.7735	-0.8593	 2.5469	 1.6877	54.3431	99.9880	
   866	-1.2375	 2.6854	 1.4480	-0.8792	 2.7388	 1.8596	-0.8068	 2.5906	 1.7838	54.3162	99.9880	
   867	-1.1731	 2.7673	 1.5943	-0.7510	 2.8421	 2.0910	-0.6131	 2.6804	 2.0673	54.6532	99.9885	
   868	-1.0211	 2.8327	 1.8117	-0.5661	 2.9317	 2.3656	-0.4187	 2.7812	 2.3625	54.7076	99.9891	
   869	-0.9297	 2.8749	 1.9453	-0.5077	 2.9434	 2.4357	-0.4187	 2.7812	 2.3625	54.6222	99.9896	
   870	-0.9441	 2.8801	 1.9361	-0.5195	 2.9604	 2.4410	-0.4289	 2.7961	 2.3672	54.5834	99.9899	
   871	-0.9518	 2.8753	 1.9236	-0.5245	 2.9816	 2.4571	-0.4110	 2.8180	 2.4070	54.5603	99.9900	
   872	-0.8970	 2.9232	 2.0263	-0.4830	 3.0315	 2.5485	-0.3483	 2.8467	 2.4984	54.6534	99.9898	
   873	-0.8961	 2.9378	 2.0419	-0.4555	 3.0606	 2.6050	-0.3385	 2.9167	 2.5782	54.4641	99.9899	
   874	-0.8172	 3.0145	 2.1974	-0.3548	 3.1348	 2.7799	-0.2133	 2.9742	 2.7609	54.6652	99.9901	
   875	-0.7364	 3.0080	 2.2717	-0.2204	 3.1325	 2.9120	-0.0524	 2.9795	 2.9271	54.9263	99.9903	
   876	-0.5420	 3.0432	 2.5014	-0.0136	 3.1627	 3.1491	 0.1431	 3.0065	 3.1496	55.0752	99.9908	
   877	-0.4399	 3.0216	 2.5818	 0.0675	 3.1276	 3.1951	 0.1960	 2.9652	 3.1612	55.0989	99.9909	
   878	-0.3937	 2.9376	 2.5440	 0.1254	 3.0297	 3.1551	 0.2519	 2.8833	 3.1352	55.2292	99.9904	
   879	-0.2598	 2.8371	 2.5774	 0.2660	 2.9219	 3.1879	 0.3648	 2.8265	 3.1912	55.1980	99.9896	
   880	-0.2182	 2.6797	 2.4616	 0.2542	 2.7323	 2.9865	 0.3341	 2.5943	 2.9284	55.4323	99.9895	
   881	-0.4933	 2.4260	 1.9328	-0.1781	 2.4782	 2.3001	-0.0631	 2.3447	 2.2817	55.0735	99.9848	
   882	-0.3451	 2.5453	 2.2003	 0.0245	 2.5422	 2.5667	 0.2025	 2.3413	 2.5438	55.8830	99.9850	
   883	-0.0680	 2.6034	 2.5354	 0.3089	 2.5838	 2.8927	 0.4694	 2.3600	 2.8295	56.1561	99.9860	
   884	 0.0907	 2.6589	 2.7497	 0.4582	 2.6150	 3.0732	 0.5914	 2.3622	 2.9535	56.3167	99.9869	
   885	 0.2313	 2.6610	 2.8923	 0.6177	 2.6039	 3.2215	 0.7547	 2.3158	 3.0704	56.6679	99.9879	
   886	 0.5210	 2.5720	 3.0932	 0.9196	 2.4132	 3.3328	 1.0764	 2.0495	 3.1259	57.7238	99.9874	
   887	 0.2248	 2.3334	 2.5583	 0.3722	 2.1611	 2.5332	 0.2574	 1.8755	 2.1329	55.9369	99.9867	
   888	-1.2142	 2.4746	 1.2605	-0.3661	 2.5446	 2.1785	 0.2516	 2.3296	 2.5813	57.7164	99.9858	
   889	-1.0737	 2.4767	 1.4031	-0.4375	 2.4277	 1.9903	-0.1767	 2.1137	 1.9370	57.0123	99.9911	
   890	-1.4389	 1.9705	 0.5316	-0.7304	 1.9436	 1.2132	-0.4054	 1.6294	 1.2240	57.5158	99.9915	
   891	-1.2260	 1.7216	 0.4958	-0.6945	 1.6984	 1.0039	-0.5816	 1.3696	 0.7879	56.8126	99.9935	
   892	-1.1287	 1.6268	 0.4982	-0.6859	 1.6308	 0.9449	-0.4794	 1.4125	 0.9332	56.4651	99.9869	
   893	-0.4082	 2.0281	 1.6201	 0.1449	 2.0089	 2.1538	 0.4326	 1.7515	 2.1841	57.4286	99.9875	
   894	-0.3350	 2.0169	 1.6820	 0.1122	 1.7944	 1.9066	 0.3634	 1.4312	 1.7946	58.2566	99.9842	
   895	-0.4126	 1.6174	 1.2049	-0.2167	 1.3488	 1.1321	-0.1636	 0.8659	 0.7023	57.9061	99.9871	
   896	-0.8146	 1.3417	 0.5272	-0.7524	 1.0795	 0.3271	-0.7380	 0.7072	-0.0308	56.8803	99.9811	
   897	-0.9686	 1.3595	 0.3909	-0.7269	 1.1803	 0.4534	-0.5974	 0.7423	 0.1448	57.5631	99.9869	
   898	-0.7645	 1.3163	 0.5518	-0.5596	 1.0889	 0.5293	-0.5008	 0.6008	 0.1000	57.8268	99.9885	
   899	-0.6528	 1.2162	 0.5635	-0.5644	 1.0131	 0.4487	-0.5391	 0.6086	 0.0695	57.1331	99.9845	
   900	-0.4970	 1.3403	 0.8434	-0.3253	 1.1482	 0.8229	-0.2354	 0.7782	 0.5429	57.4011	99.9835	
   901	-0.6154	 1.3377	 0.7224	-0.3672	 1.1953	 0.8281	-0.1267	 0.8359	 0.7092	57.7513	99.9816	
   902	-0.7231	 1.2714	 0.5484	-0.4021	 1.1495	 0.7474	-0.1331	 0.8212	 0.6881	57.8294	99.9820	
   903	-0.8117	 1.2732	 0.4616	-0.4197	 1.1751	 0.7554	-0.0711	 0.8388	 0.7677	58.1377	99.9823	
   904	-0.7308	 1.2667	 0.5360	-0.2987	 1.1646	 0.8659	 0.0732	 0.8444	 0.9176	58.3403	99.9818	
   905	-0.5364	 1.3019	 0.7656	-0.0550	 1.1689	 1.1139	 0.3235	 0.8633	 1.1868	58.6730	99.9813	
   906	-0.2525	 1.3500	 1.0976	 0.2263	 1.1600	 1.3862	 0.5698	 0.8158	 1.3856	59.0962	99.9821	
   907	-0.1091	 1.2836	 1.1746	 0.3175	 1.0825	 1.4000	 0.5983	 0.7379	 1.3363	58.9810	99.9824	
   908	-0.1138	 1.2103	 1.0966	 0.2619	 1.0118	 1.2736	 0.5157	 0.6541	 1.1698	58.8650	99.9826	
   909	-0.1041	 1.1319	 1.0279	 0.2129	 0.9451	 1.1580	 0.4613	 0.5773	 1.0385	58.7555	99.9819	
   910	-0.0925	 1.0827	 0.9903	 0.2156	 0.8860	 1.1016	 0.4694	 0.5292	 0.9986	58.7965	99.9807	
   911	 0.0009	 1.0417	 1.0427	 0.2590	 0.8642	 1.1233	 0.4809	 0.5364	 1.0174	58.4809	99.9798	
   912	 0.1192	 1.1568	 1.2760	 0.3512	 1.0060	 1.3572	 0.5255	 0.7241	 1.2496	57.9658	99.9797	
   913	-0.0378	 1.2430	 1.2053	 0.1797	 1.1312	 1.3109	 0.3689	 0.8812	 1.2501	57.4956	99.9788	
   914	-0.0148	 1.3697	 1.3550	 0.3419	 1.2676	 1.6096	 0.6323	 1.0254	 1.6577	58.0251	99.9791	
   915	 0.1391	 1.4645	 1.6037	 0.5002	 1.3409	 1.8411	 0.8437	 1.0411	 1.8848	58.5163	99.9789	
   916	 0.3113	 1.5002	 1.8116	 0.7514	 1.3619	 2.1133	 1.1323	 1.0522	 2.1845	59.0315	99.9797	
   917	 0.7848	 1.5103	 2.2952	 1.2313	 1.3538	 2.5851	 1.6046	 0.9871	 2.5916	59.6465	99.9817	
   918	 1.3750	 1.3811	 2.7562	 1.8305	 1.1033	 2.9339	 2.1553	 0.6625	 2.8178	60.8289	99.9825	
   919	 1.6294	 0.9750	 2.6045	 1.8957	 0.6089	 2.5046	 2.1021	 0.1501	 2.2522	60.9624	99.9791	
   920	 2.1023	 0.6329	 2.7354	 2.4228	 0.2289	 2.6517	 2.6251	-0.2663	 2.3588	62.0580	99.9809	
   921	 2.0649	 0.5114	 2.5764	 2.2003	 0.1525	 2.3528	 2.2763	-0.3578	 1.9185	61.1698	99.9822	
   922	 1.6195	 0.3638	 1.9833	 1.7180	 0.1227	 1.8407	 1.7796	-0.3293	 1.4504	60.1435	99.9832	
   923	 1.0459	 0.2921	 1.3381	 1.2357	 0.0929	 1.3286	 1.3417	-0.3384	 1.0033	59.9298	99.9848	
   924	 0.3973	 0.2023	 0.5997	 0.6492	 0.0354	 0.6846	 0.8590	-0.3543	 0.5046	59.7210	99.9826	
   925	-0.0271	 0.1521	 0.1251	 0.2288	-0.0292	 0.1996	 0.4515	-0.4081	 0.0433	59.5183	99.9816	
   926	-0.2889	 0.1036	-0.1852	-0.0506	-0.0919	-0.1425	 0.1890	-0.4454	-0.2564	59.3233	99.9790	
   927	-0.4082	 0.0864	-0.3217	-0.2132	-0.1314	-0.3445	-0.0078	-0.4945	-0.5023	59.1521	99.9787	
   928	-0.6997	-0.0790	-0.7785	-0.5913	-0.3400	-0.9314	-0.4118	-0.6738	-1.0856	58.8167	99.9741	
   929	-1.0854	-0.3305	-1.4158	-0.9527	-0.5869	-1.5396	-0.7846	-0.8868	-1.6714	58.6505	99.9740	
   930	-1.7934	-0.6538	-2.4472	-1.8582	-0.8288	-2.6870	-1.8824	-1.0019	-2.8843	56.3793	99.9725	
   931	-2.8161	-0.1296	-2.9456	-2.3435	 0.0143	-2.3293	-1.6843	-0.0152	-1.6995	56.9805	99.9678	
   932	-0.1220	 0.7409	 0.6190	 0.5198	 0.5267	 1.0465	 0.7715	 0.1230	 0.8945	60.2895	99.9900	
   933	 1.1321	 0.7110	 1.8432	 1.4948	 0.4470	 1.9418	 1.6655	 0.1631	 1.8286	59.9415	99.9793	
   934	 1.5639	 1.1034	 2.6674	 1.9421	 0.9412	 2.8833	 2.1579	 0.7068	 2.8647	59.4717	99.9794	
   935	 1.5808	 1.4797	 3.0606	 1.8912	 0.9463	 2.8375	 2.1077	 0.3346	 2.4424	61.8591	99.9809	
   936	 2.1303	 0.6079	 2.7383	 2.6178	 0.0696	 2.6874	 3.0584	-0.3347	 2.7237	63.3567	99.9666	
   937	 2.4427	 0.9832	 3.4260	 2.5648	 0.4500	 3.0147	 2.6514	-0.0157	 2.6357	61.4930	99.9729	
   938	 2.0472	 0.9226	 2.9699	 2.1158	 0.4407	 2.5565	 2.2483	-0.0880	 2.1603	61.2934	99.9746	
   939	 1.3458	 0.7018	 2.0477	 1.5739	 0.2770	 1.8509	 1.8388	-0.1750	 1.6638	61.2839	99.9731	
   940	 1.0879	 0.5994	 1.6874	 1.3470	 0.2344	 1.5815	 1.6505	-0.1763	 1.4742	60.9903	99.9730	
   941	 0.9582	 0.4210	 1.3793	 0.9924	-0.0084	 0.9840	 1.0809	-0.4384	 0.6425	60.1556	99.9729	
   942	 0.1836	 0.2115	 0.3952	 0.3118	-0.1360	 0.1758	 0.5508	-0.5054	 0.0454	59.9183	99.9701	
   943	 0.0027	 0.1564	 0.1592	 0.1825	-0.1549	 0.0276	 0.4326	-0.5371	-0.1045	59.9248	99.9737	
   944	-0.4762	-0.2791	-0.7552	-0.4391	-0.6715	-1.1106	-0.4224	-1.0318	-1.4541	59.1241	99.9744	
   945	-1.8890	-0.3047	-2.1936	-1.6757	-0.2669	-1.9426	-1.3657	-0.2408	-1.6064	56.2357	99.9660	
   946	 0.0204	 0.7723	 0.7928	 0.5421	 0.5769	 1.1191	 0.6499	 0.2168	 0.8667	59.3749	99.9904	
   947	 0.9914	 0.9339	 1.9254	 1.2662	 0.6828	 1.9489	 1.3336	 0.4442	 1.7779	58.8600	99.9790	
   948	 1.2123	 1.3795	 2.5919	 1.4481	 0.9285	 2.3766	 1.4653	 0.5164	 1.9817	59.8044	99.9804	
   949	 1.7103	 0.9685	 2.6788	 2.3089	 0.3531	 2.6620	 2.7185	-0.1863	 2.5322	63.7743	99.9759	
   950	 2.7112	 1.0218	 3.7331	 3.0513	 0.4460	 3.4973	 3.0349	-0.0834	 2.9515	62.3864	99.9845	
   951	 2.0955	 0.7553	 2.8509	 2.0000	 0.1264	 2.1265	 1.8356	-0.4112	 1.4244	60.8124	99.9760	
   952	 0.9487	 0.2745	 1.2233	 0.9029	-0.2093	 0.6937	 0.9015	-0.6575	 0.2440	60.0925	99.9726	
   953	 0.2290	 0.0003	 0.2294	 0.3426	-0.3600	-0.0174	 0.5120	-0.6894	-0.1775	59.8055	99.9699	
   954	 0.1510	 0.0507	 0.2019	 0.4081	-0.2346	 0.1735	 0.6989	-0.5294	 0.1694	60.0240	99.9711	
   955	-0.2414	-0.1909	-0.4322	-0.0355	-0.5687	-0.6042	 0.0575	-0.8792	-0.8217	59.6804	99.9748	
   956	-1.7626	-0.6349	-2.3974	-1.7759	-0.7417	-2.5175	-1.6220	-0.8170	-2.4390	56.4393	99.9637	
   957	-1.5815	 0.1098	-1.4715	-0.6984	 0.2015	-0.4969	-0.1044	 0.1047	 0.0003	59.1042	99.9838	
   958	 0.7575	 0.9728	 1.7304	 1.1867	 0.7431	 1.9298	 1.2557	 0.4379	 1.6936	59.2723	99.9866	
   959	 1.2287	 1.2911	 2.5199	 1.5355	 0.9945	 2.5299	 1.5818	 0.6108	 2.1926	59.4688	99.9851	
   960	 1.3658	 0.8971	 2.2630	 1.7376	 0.2320	 1.9697	 1.9859	-0.3061	 1.6798	62.7622	99.9732	
   961	 2.2281	 0.9777	 3.2059	 2.7994	 0.4123	 3.2117	 2.8811	-0.0629	 2.8181	62.7251	99.9854	
   962	 2.2088	 1.0221	 3.2310	 2.4739	 0.4304	 2.9043	 2.5336	-0.1323	 2.4013	62.2310	99.9809	
   963	 1.7211	 0.7922	 2.5133	 1.8019	 0.2352	 2.0370	 1.8199	-0.3040	 1.5160	61.2402	99.9774	
   964	 1.1678	 0.5782	 1.7462	 1.2549	 0.0926	 1.3475	 1.3180	-0.3639	 0.9540	60.5687	99.9747	
   965	 0.7792	 0.3952	 1.1745	 0.9324	-0.0453	 0.8871	 1.0413	-0.4526	 0.5886	60.4026	99.9745	
   966	 0.0461	 0.0284	 0.0746	 0.2051	-0.4083	-0.2032	 0.2767	-0.8267	-0.5500	60.1545	99.9771	
   967	-1.2054	-0.5873	-1.7927	-1.2285	-0.6961	-1.9247	-1.1221	-0.7902	-1.9123	56.7407	99.9664	
   968	-1.3642	 0.3843	-0.9799	-0.6188	 0.3478	-0.2710	-0.0201	 0.1258	 0.1057	59.5995	99.9808	
   969	 0.5613	 0.7958	 1.3571	 1.0996	 0.5802	 1.6798	 1.2809	 0.3047	 1.5855	59.7512	99.9851	
   970	 1.0748	 1.1964	 2.2713	 1.3681	 0.8792	 2.2474	 1.3850	 0.5617	 1.9467	59.1453	99.9825	
   971	 0.7650	 1.0901	 1.8552	 1.1199	 0.4955	 1.6154	 1.3557	-0.1060	 1.2497	62.0376	99.9793	
   972	 1.5479	 0.7418	 2.2898	 2.0013	 0.2487	 2.2500	 2.2701	-0.2765	 1.9936	62.5783	99.9808	
   973	 1.5277	 0.6591	 2.1869	 1.4724	 0.1901	 1.6625	 1.6566	-0.2576	 1.3991	60.5918	99.9641	
   974	 1.4506	 0.8367	 2.2874	 1.6797	 0.3300	 2.0097	 1.8446	-0.1714	 1.6732	61.4757	99.9765	
   975	 1.4284	 0.8371	 2.2657	 1.6864	 0.3341	 2.0205	 1.8402	-0.1529	 1.6873	61.4366	99.9773	
   976	 1.2755	 0.7570	 2.0326	 1.5096	 0.2738	 1.7835	 1.6542	-0.2058	 1.4484	61.2037	99.9773	
   977	 0.7926	 0.4879	 1.2806	 0.9846	 0.0719	 1.0564	 1.1496	-0.3101	 0.8395	60.3938	99.9731	
   978	 0.5183	 0.4738	 0.9922	 0.8334	 0.1124	 0.9457	 1.1031	-0.2541	 0.8490	60.5739	99.9744	
   979	 0.4509	 0.4605	 0.9115	 0.7883	 0.1089	 0.8972	 1.0648	-0.2462	 0.8186	60.5358	99.9747	
   980	 0.1670	 0.4124	 0.5795	 0.4772	 0.0509	 0.5282	 0.7837	-0.3164	 0.4673	60.4710	99.9729	
   981	 0.0641	 0.4193	 0.4835	 0.3895	 0.0819	 0.4714	 0.7251	-0.2788	 0.4463	60.3930	99.9729	
   982	 0.3112	 0.5856	 0.8969	 0.7143	 0.2578	 0.9721	 1.0525	-0.0837	 0.9689	60.5245	99.9747	
   983	 0.7442	 0.7677	 1.5119	 1.2370	 0.4218	 1.6589	 1.5764	 0.0646	 1.6411	61.0451	99.9774	
   984	 0.8462	 0.7461	 1.5924	 1.2398	 0.3627	 1.6025	 1.4759	-0.0411	 1.4348	60.9085	99.9790	
   985	 0.5980	 0.6777	 1.2757	 0.9596	 0.2874	 1.2470	 1.1514	-0.0960	 1.0554	60.5282	99.9786	
   986	 0.3516	 0.6386	 0.9903	 0.6568	 0.2587	 0.9155	 0.8730	-0.1220	 0.7511	60.2436	99.9763	
   987	 0.1775	 0.5736	 0.7511	 0.4800	 0.1985	 0.6785	 0.7426	-0.1720	 0.5707	60.2436	99.9741	
   988	 0.0765	 0.4973	 0.5739	 0.3409	 0.1249	 0.4658	 0.5886	-0.2475	 0.3411	60.0891	99.9737	
   989	-0.0601	 0.4414	 0.3813	 0.1901	 0.0684	 0.2585	 0.4307	-0.2934	 0.1373	59.9419	99.9730	
   990	-0.1795	 0.4242	 0.2448	 0.0741	 0.0578	 0.1318	 0.3356	-0.3107	 0.0249	59.9398	99.9729	
   991	-0.2391	 0.4156	 0.1766	 0.0157	 0.0461	 0.0618	 0.2692	-0.3098	-0.0407	59.8470	99.9725	
   992	-0.2536	 0.4208	 0.1673	-0.0152	 0.0635	 0.0482	 0.2366	-0.2983	-0.0617	59.7541	99.9728	
   993	-0.2671	 0.4406	 0.1736	-0.0078	 0.0802	 0.0724	 0.2488	-0.2800	-0.0312	59.8049	99.9732	
   994	-0.1834	 0.4781	 0.2948	 0.1031	 0.1121	 0.2152	 0.3511	-0.2370	 0.1140	59.8622	99.9736	
   995	-0.1141	 0.5207	 0.4067	 0.1521	 0.1787	 0.3308	 0.4164	-0.1641	 0.2523	59.7408	99.9729	
   996	 0.0811	 0.6831	 0.7643	 0.3935	 0.3517	 0.7453	 0.6754	-0.0013	 0.6741	59.9093	99.9746	
   997	 0.3784	 0.8239	 1.2024	 0.7027	 0.4814	 1.1842	 0.9426	 0.1134	 1.0560	60.0094	99.9768	
   998	 0.5304	 0.8893	 1.4198	 0.8352	 0.5509	 1.3861	 1.0737	 0.1744	 1.2481	60.0157	99.9768	
   999	 0.6150	 0.9414	 1.5566	 0.8943	 0.5752	 1.4695	 1.0852	 0.1817	 1.2669	59.9969	99.9776	
  1000	 0.6006	 0.9466	 1.5473	 0.9218	 0.6042	 1.5260	 1.1600	 0.2287	 1.3887	60.0696	99.9771	
  1001	 0.6910	 0.9741	 1.6653	 1.0319	 0.6235	 1.6553	 1.2826	 0.2419	 1.5245	60.2559	99.9771	
  1002	 0.6535	 0.9651	 1.6187	 0.9735	 0.6118	 1.5853	 1.1722	 0.2470	 1.4192	59.9762	99.9777	
  1003	 0.5659	 0.9815	 1.5475	 0.8783	 0.6261	 1.5044	 1.0899	 0.2591	 1.3490	59.9284	99.9770	
  1004	 0.5303	 1.0018	 1.5322	 0.8289	 0.6564	 1.4854	 1.0638	 0.2853	 1.3491	59.8868	99.9762	
  1005	 0.5100	 1.0316	 1.5417	 0.8172	 0.6735	 1.4907	 1.0543	 0.3113	 1.3655	59.8890	99.9755	
  1006	 0.4965	 1.0514	 1.5480	 0.7929	 0.6950	 1.4879	 1.0275	 0.3264	 1.3539	59.8411	99.9756	
  1007	 0.5052	 1.0708	 1.5761	 0.8262	 0.7155	 1.5417	 1.0959	 0.3587	 1.4546	59.9473	99.9745	
  1008	 0.5437	 1.0945	 1.6382	 0.8595	 0.7360	 1.5956	 1.0915	 0.3772	 1.4687	59.8517	99.9758	
  1009	 0.5071	 1.1001	 1.6073	 0.8020	 0.7370	 1.5390	 1.0193	 0.3745	 1.3938	59.7516	99.9757	
  1010	 0.4773	 1.0958	 1.5732	 0.7518	 0.7547	 1.5065	 0.9810	 0.3823	 1.3634	59.6621	99.9760	
  1011	 0.4416	 1.1161	 1.5578	 0.7201	 0.7595	 1.4796	 0.9377	 0.3977	 1.3353	59.6140	99.9754	
  1012	 0.4127	 1.1264	 1.5393	 0.6892	 0.7768	 1.4660	 0.9109	 0.4128	 1.3237	59.5703	99.9756	
  1013	 0.3992	 1.1463	 1.5456	 0.6774	 0.7939	 1.4713	 0.9071	 0.4424	 1.3495	59.5311	99.9746	
  1014	 0.4522	 1.1648	 1.6170	 0.7558	 0.8179	 1.5737	 1.0304	 0.4666	 1.4970	59.7297	99.9738	
  1015	 0.5118	 1.1734	 1.6853	 0.8326	 0.8166	 1.6492	 1.0694	 0.4698	 1.5392	59.7276	99.9753	
  1016	 0.4983	 1.1932	 1.6916	 0.8083	 0.8381	 1.6464	 1.0318	 0.4887	 1.5205	59.6339	99.9757	
  1017	 0.4839	 1.1984	 1.6824	 0.7707	 0.8514	 1.6221	 0.9877	 0.4930	 1.4807	59.5378	99.9759	
  1018	 0.4415	 1.2286	 1.6702	 0.7523	 0.8643	 1.6166	 0.9501	 0.5119	 1.4621	59.5356	99.9765	
  1019	 0.4348	 1.2385	 1.6734	 0.7405	 0.8814	 1.6219	 0.9515	 0.5341	 1.4855	59.4965	99.9759	
  1020	 0.4809	 1.2669	 1.7479	 0.7938	 0.9142	 1.7081	 1.0192	 0.5553	 1.5745	59.5926	99.9763	
  1021	 0.5127	 1.3005	 1.8133	 0.8522	 0.9259	 1.7781	 1.0646	 0.5732	 1.6378	59.6841	99.9765	
  1022	 0.4376	 1.2825	 1.7202	 0.7488	 0.9108	 1.6595	 0.9636	 0.5524	 1.5160	59.5837	99.9759	
  1023	 0.3491	 1.2842	 1.6334	 0.6653	 0.9080	 1.5733	 0.8647	 0.5647	 1.4294	59.4460	99.9758	
  1024	 0.3134	 1.3045	 1.6180	 0.6469	 0.9209	 1.5678	 0.8488	 0.5760	 1.4248	59.4919	99.9760	
  1025	 0.2922	 1.3196	 1.6119	 0.6160	 0.9383	 1.5543	 0.8163	 0.5875	 1.4037	59.4437	99.9762	
  1026	 0.2634	 1.3300	 1.5934	 0.5784	 0.9516	 1.5300	 0.7786	 0.6064	 1.3851	59.3541	99.9758	
  1027	 0.2576	 1.3545	 1.6122	 0.5741	 0.9854	 1.5595	 0.8023	 0.6320	 1.4343	59.4070	99.9755	
  1028	 0.2739	 1.3787	 1.6526	 0.6266	 1.0056	 1.6322	 0.8318	 0.6611	 1.4929	59.4138	99.9769	
  1029	 0.2595	 1.3838	 1.6434	 0.5949	 1.0104	 1.6052	 0.8043	 0.6652	 1.4695	59.3657	99.9762	
  1030	 0.2161	 1.3994	 1.6156	 0.5514	 1.0322	 1.5836	 0.7501	 0.6843	 1.4344	59.2738	99.9771	
  1031	 0.1728	 1.4149	 1.5878	 0.5197	 1.0369	 1.5566	 0.7118	 0.6922	 1.4040	59.2714	99.9771	
  1032	 0.1362	 1.4205	 1.5569	 0.4695	 1.0546	 1.5242	 0.6793	 0.7037	 1.3830	59.2278	99.9768	
  1033	 0.0929	 1.4361	 1.5291	 0.4194	 1.0724	 1.4917	 0.6302	 0.7154	 1.3456	59.1794	99.9769	
  1034	 0.0794	 1.4559	 1.5354	 0.4143	 1.0935	 1.5078	 0.6373	 0.7411	 1.3784	59.1865	99.9766	
  1035	 0.0794	 1.4559	 1.5354	 0.4260	 1.0765	 1.5025	 0.6200	 0.7303	 1.3503	59.1794	99.9771	
  1036	-0.0101	 1.4430	 1.4330	 0.3234	 1.0740	 1.3974	 0.5255	 0.7241	 1.2496	59.0848	99.9770	
  1037	-0.0996	 1.4301	 1.3306	 0.2266	 1.0630	 1.2896	 0.4202	 0.7218	 1.1419	58.9439	99.9768	
  1038	-0.1285	 1.4405	 1.3121	 0.1832	 1.0848	 1.2679	 0.3934	 0.7369	 1.1303	58.9001	99.9765	
  1039	-0.1410	 1.4750	 1.3341	 0.1722	 1.1145	 1.2867	 0.3788	 0.7703	 1.1491	58.8563	99.9763	
  1040	-0.1545	 1.4948	 1.3404	 0.1597	 1.1189	 1.2786	 0.3514	 0.7743	 1.1257	58.8488	99.9763	
  1041	-0.1757	 1.5099	 1.3343	 0.1479	 1.1360	 1.2839	 0.3469	 0.7929	 1.1398	58.8538	99.9764	
  1042	-0.1671	 1.5293	 1.3623	 0.1554	 1.1527	 1.3081	 0.3310	 0.8041	 1.1351	58.8025	99.9774	
  1043	-0.1892	 1.5297	 1.3406	 0.0853	 1.1581	 1.2434	 0.2531	 0.7978	 1.0509	58.6504	99.9770	
  1044	-0.2719	 1.5069	 1.2351	-0.0382	 1.1307	 1.0925	 0.1126	 0.7627	 0.8752	58.4896	99.9766	
  1045	-0.4480	 1.4126	 0.9648	-0.2925	 1.0591	 0.7666	-0.1526	 0.6812	 0.5285	58.1337	99.9760	
  1046	-0.6904	 1.3197	 0.6293	-0.5268	 0.9998	 0.4730	-0.3545	 0.6395	 0.2850	57.9562	99.9755	
  1047	-0.7713	 1.3262	 0.5550	-0.5844	 1.0008	 0.4164	-0.4317	 0.6442	 0.2124	57.9061	99.9767	
  1048	-0.8531	 1.3180	 0.4650	-0.6561	 0.9809	 0.3248	-0.4995	 0.6229	 0.1234	57.9448	99.9765	
  1049	-0.9445	 1.2758	 0.3314	-0.7787	 0.9661	 0.1874	-0.6112	 0.6059	-0.0054	57.7554	99.9762	
  1050	-1.0253	 1.2823	 0.2571	-0.8363	 0.9671	 0.1308	-0.6502	 0.6027	-0.0475	57.8501	99.9762	
  1051	-1.0629	 1.2733	 0.2105	-0.8813	 0.9636	 0.0823	-0.7159	 0.6146	-0.1013	57.6634	99.9763	
  1052	-1.1831	 1.2415	 0.0584	-1.0122	 0.9194	-0.0928	-0.8571	 0.5684	-0.2887	57.5950	99.9761	
  1053	-1.4534	 1.0610	-0.3923	-1.3770	 0.7190	-0.6581	-1.2757	 0.4225	-0.8532	56.9725	99.9716	
  1054	-1.9883	 0.7880	-1.2002	-1.9527	 0.4251	-1.5276	-1.8571	 0.0572	-1.7999	57.0391	99.9735	
  1055	-2.6734	 0.5914	-2.0819	-2.8072	 0.3847	-2.4224	-2.8932	 0.3215	-2.5716	53.7214	99.9657	
  1056	-2.3415	 1.7244	-0.6170	-2.1194	 1.5496	-0.5698	-1.9986	 1.2882	-0.7104	55.3555	99.9808	
  1057	-1.4072	 2.0041	 0.5970	-1.3045	 1.6750	 0.3705	-1.3817	 1.3245	-0.0572	55.7989	99.9827	
  1058	-1.1264	 2.2332	 1.1070	-0.9407	 1.9598	 1.0190	-0.8783	 1.6835	 0.8052	55.9836	99.9786	
  1059	-0.7995	 2.6033	 1.8039	-0.5531	 2.3201	 1.7670	-0.4452	 1.9769	 1.5316	56.5063	99.9812	
  1060	-0.3589	 2.7901	 2.4314	-0.0167	 2.3953	 2.3786	 0.1337	 1.9362	 2.0699	57.9518	99.9833	
  1061	 0.1362	 2.4477	 2.5839	 0.4833	 1.8893	 2.3726	 0.6683	 1.3461	 2.0144	59.7254	99.9801	
  1062	 0.9766	 2.3037	 3.2804	 1.3357	 1.7948	 3.1305	 1.4620	 1.3765	 2.8385	59.6625	99.9783	
  1063	 1.1391	 2.4178	 3.5570	 1.2770	 1.8801	 3.1571	 1.2480	 1.3165	 2.5644	59.2791	99.9830	
  1064	 0.7407	 2.3133	 3.0541	 0.8033	 1.7827	 2.5860	 0.7402	 1.2529	 1.9931	58.5981	99.9811	
  1065	 0.2087	 2.0843	 2.2931	 0.1340	 1.5284	 1.6624	-0.0228	 0.9969	 0.9742	57.8261	99.9799	
  1066	-0.4877	 1.7118	 1.2241	-0.6152	 1.2248	 0.6096	-0.7181	 0.7623	 0.0442	57.0913	99.9757	
  1067	-0.9062	 1.5245	 0.6184	-0.9028	 1.1326	 0.2299	-0.8695	 0.7310	-0.1384	57.1398	99.9753	
  1068	-1.0072	 1.4483	 0.4412	-0.9244	 1.0951	 0.1707	-0.8484	 0.7123	-0.1362	57.2774	99.9767	
  1069	-1.2631	 1.2626	-0.0003	-1.1791	 0.9138	-0.2653	-1.1298	 0.5461	-0.5837	57.1011	99.9774	
  1070	-1.7989	 0.9750	-0.8238	-1.7873	 0.6121	-1.1752	-1.8149	 0.2966	-1.5184	56.3410	99.9752	
  1071	-2.5751	 0.5112	-2.0639	-2.6412	 0.1711	-2.4701	-2.7435	-0.0421	-2.7857	55.1744	99.9715	
  1072	-3.8380	 0.6342	-3.2037	-3.7954	 0.6629	-3.1326	-3.5465	 0.6880	-2.8586	53.1118	99.9631	
  1073	-2.4417	 1.8878	-0.5538	-1.8791	 1.8069	-0.0722	-1.6448	 1.5531	-0.0917	56.1169	99.9883	
  1074	-1.2457	 2.2160	 0.9704	-1.1108	 1.9036	 0.7928	-1.2904	 1.5522	 0.2617	55.4467	99.9873	
  1075	-1.1447	 2.2923	 1.1477	-1.0152	 1.9990	 0.9838	-1.0633	 1.7375	 0.6742	55.4228	99.9797	
  1076	-1.0824	 2.5698	 1.4875	-0.9559	 2.2299	 1.2740	-0.9526	 1.8284	 0.8758	56.0829	99.9822	
  1077	-0.8561	 2.4137	 1.5577	-0.5690	 1.8607	 1.2917	-0.3398	 1.3406	 1.0009	58.8615	99.9761	
  1078	 0.4924	 2.3574	 2.8499	 0.7724	 1.8001	 2.5725	 0.7361	 1.3674	 2.1034	58.8060	99.9811	
  1079	 0.2970	 2.3075	 2.6046	 0.3805	 1.6802	 2.0608	 0.2305	 1.1561	 1.3866	58.4308	99.9813	
  1080	-0.2465	 2.0151	 1.7687	-0.2738	 1.4594	 1.1855	-0.4008	 0.9723	 0.5715	57.5934	99.9783	
  1081	-0.7255	 1.6921	 0.9667	-0.8029	 1.1942	 0.3914	-0.9027	 0.7314	-0.1712	57.1304	99.9769	
  1082	-1.1814	 1.3833	 0.2020	-1.1912	 1.0279	-0.1633	-1.1729	 0.6574	-0.5155	56.7037	99.9755	
  1083	-1.3257	 1.3226	-0.0030	-1.2504	 1.0036	-0.2468	-1.1672	 0.6610	-0.5061	56.8540	99.9757	
  1084	-1.3940	 1.2946	-0.0993	-1.2672	 1.0418	-0.2254	-1.1229	 0.7527	-0.3701	56.6998	99.9749	
  1085	-1.5430	 1.1606	-0.3823	-1.4373	 0.7790	-0.6583	-1.4864	 0.4178	-1.0686	56.8480	99.9804	
  1086	-2.7368	 0.5242	-2.2125	-2.9228	 0.2771	-2.6457	-3.0712	 0.1245	-2.9467	53.8712	99.9701	
  1087	-3.7171	 1.0182	-2.6988	-3.4697	 1.0580	-2.4117	-3.1336	 1.1071	-2.0264	53.6506	99.9660	
  1088	-1.9213	 2.1660	 0.2448	-1.5691	 1.9493	 0.3802	-1.5608	 1.6590	 0.0982	55.6008	99.9875	
  1089	-1.1217	 2.4190	 1.2973	-0.9881	 2.1250	 1.1370	-1.0789	 1.8448	 0.7658	55.2779	99.9821	
  1090	-0.9200	 2.7965	 1.8766	-0.7814	 2.4589	 1.6774	-0.8732	 2.1337	 1.2605	55.4379	99.9827	
  1091	-0.9018	 2.8499	 1.9482	-0.7360	 2.3653	 1.6293	-0.7487	 1.9033	 1.1546	56.8303	99.9816	
  1092	-0.2584	 2.4017	 2.1434	 0.0954	 1.8326	 1.9280	 0.2591	 1.3550	 1.6142	59.2195	99.9778	
  1093	 0.4125	 2.3785	 2.7911	 0.4481	 1.9405	 2.3886	 0.5040	 1.4663	 1.9703	57.9733	99.9767	
  1094	 0.2922	 2.3467	 2.6390	 0.3042	 1.7911	 2.0953	 0.1965	 1.3263	 1.5228	57.7798	99.9775	
  1095	-0.1118	 2.1543	 2.0425	-0.0618	 1.6750	 1.6133	-0.0981	 1.2157	 1.1175	57.6573	99.9787	
  1096	-0.4110	 1.9842	 1.5732	-0.4458	 1.4749	 1.0291	-0.5685	 1.0372	 0.4687	57.1011	99.9774	
  1097	-0.7785	 1.7861	 1.0077	-0.7675	 1.3496	 0.5821	-0.7565	 0.9510	 0.1946	57.1076	99.9745	
  1098	-0.8900	 1.6611	 0.7712	-0.8256	 1.2410	 0.4154	-0.7784	 0.8627	 0.0843	57.2679	99.9744	
  1099	-1.0678	 1.4250	 0.3573	-1.0376	 1.0253	-0.0123	-0.9781	 0.6734	-0.3048	57.1044	99.9722	
  1100	-1.2985	 1.0579	-0.2404	-1.4108	 0.5888	-0.8220	-1.5151	 0.2189	-1.2962	56.6801	99.9724	
  1101	-2.1395	 0.8497	-1.2896	-2.2602	 0.5273	-1.7329	-2.2019	 0.0321	-2.1698	56.6027	99.9777	
  1102	-2.2501	 1.7666	-0.4834	-2.2322	 1.5894	-0.6428	-2.2216	 1.4461	-0.7755	53.9566	99.9729	
  1103	-1.1565	 2.5664	 1.4100	-0.9511	 2.3057	 1.3546	-0.9544	 2.0720	 1.1176	55.2962	99.9802	
  1104	-0.5023	 2.8566	 2.3544	-0.1350	 2.5534	 2.4184	-0.0979	 2.2271	 2.1292	56.6596	99.9853	
  1105	-0.0729	 2.6426	 2.5698	 0.4099	 2.3544	 2.7643	 0.4571	 2.0649	 2.5220	57.3534	99.9866	
  1106	 0.0505	 2.4934	 2.5440	 0.3934	 2.2956	 2.6890	 0.4605	 2.1202	 2.5807	56.4583	99.9807	
  1107	 0.1196	 2.6485	 2.7682	 0.4111	 2.4767	 2.8878	 0.5030	 2.2747	 2.7777	56.2929	99.9804	
  1108	 0.5171	 2.6259	 3.1431	 0.8620	 2.4142	 3.2762	 0.9062	 2.1662	 3.0724	56.9536	99.9839	
  1109	 0.8232	 2.6736	 3.4969	 1.1955	 2.5224	 3.7179	 1.2022	 2.2989	 3.5011	56.7896	99.9865	
  1110	 0.4389	 2.9014	 3.3404	 0.5256	 2.6687	 3.1943	 0.1798	 2.4228	 2.6026	54.7678	99.9889	
  1111	-0.6277	 3.0890	 2.4614	-0.4439	 2.8369	 2.3930	-0.6238	 2.5033	 1.8795	54.9684	99.9892	
  1112	-0.7633	 3.0477	 2.2844	-0.5572	 2.7671	 2.2099	-0.7223	 2.4308	 1.7084	55.1333	99.9887	
  1113	-0.7538	 3.0817	 2.3280	-0.5156	 2.8170	 2.3014	-0.6238	 2.5033	 1.8795	55.2348	99.9874	
  1114	-0.6115	 3.2256	 2.6142	-0.2374	 2.9641	 2.7267	-0.2269	 2.6569	 2.4300	55.9448	99.9869	
  1115	-0.4585	 3.3057	 2.8473	-0.0473	 3.0326	 2.9852	-0.0403	 2.7210	 2.6806	56.1491	99.9876	
  1116	-0.4296	 3.2953	 2.8658	 0.0103	 3.0316	 3.0419	 0.0146	 2.7129	 2.7274	56.2492	99.9888	
  1117	-0.5220	 3.2385	 2.7166	-0.1872	 2.9464	 2.7591	-0.3197	 2.5880	 2.2683	55.7653	99.9908	
  1118	-0.7615	 3.0770	 2.3156	-0.3879	 2.8106	 2.4227	-0.4029	 2.4931	 2.0901	55.9461	99.9879	
  1119	-0.7134	 3.1347	 2.4214	-0.3072	 2.8725	 2.5654	-0.3485	 2.5699	 2.2214	55.8767	99.9889	
  1120	-0.7143	 3.1200	 2.4058	-0.3346	 2.8435	 2.5089	-0.3901	 2.5224	 2.1324	55.8920	99.9890	
  1121	-0.7577	 3.1356	 2.3780	-0.3847	 2.8612	 2.4764	-0.4430	 2.5637	 2.1208	55.7176	99.9882	
  1122	-0.7250	 3.1838	 2.4590	-0.3549	 2.9281	 2.5732	-0.3790	 2.6146	 2.2356	55.7826	99.9882	
  1123	-0.6942	 3.2028	 2.5087	-0.3091	 2.9442	 2.6351	-0.3228	 2.6286	 2.3059	55.8838	99.9882	
  1124	-0.7010	 3.2127	 2.5119	-0.3150	 2.9528	 2.6378	-0.3214	 2.6508	 2.3293	55.8474	99.9875	
  1125	-0.6249	 3.2454	 2.6206	-0.2099	 2.9932	 2.7832	-0.1809	 2.6859	 2.5050	56.0592	99.9875	
  1126	-0.5788	 3.2739	 2.6952	-0.1441	 3.0216	 2.8775	-0.1067	 2.7218	 2.6151	56.1231	99.9875	
  1127	-0.5547	 3.3027	 2.7481	-0.1233	 3.0465	 2.9232	-0.0888	 2.7437	 2.6550	56.1231	99.9875	
  1128	-0.5403	 3.2975	 2.7573	-0.0916	 3.0418	 2.9502	-0.0281	 2.7393	 2.7111	56.2728	99.9870	
  1129	-0.4643	 3.3303	 2.8661	 0.0142	 3.0948	 3.1090	 0.1209	 2.8222	 2.9431	56.3263	99.9859	
  1130	-0.3181	 3.4203	 3.1023	 0.2007	 3.2097	 3.4104	 0.3274	 2.9414	 3.2688	56.4218	99.9867	
  1131	-0.1892	 3.4715	 3.2824	 0.3375	 3.2453	 3.5828	 0.4405	 2.9805	 3.4211	56.4709	99.9870	
  1132	-0.1363	 3.4900	 3.3538	 0.4276	 3.2523	 3.6799	 0.5567	 2.9790	 3.5357	56.7517	99.9870	
  1133	-0.1661	 3.4857	 3.3197	 0.3449	 3.2621	 3.6070	 0.5249	 3.0016	 3.5264	56.6274	99.9842	
  1134	-0.1248	 3.5534	 3.4287	 0.3740	 3.3164	 3.6904	 0.5435	 3.0346	 3.5780	56.6604	99.9846	
  1135	-0.1970	 3.5793	 3.3824	 0.2956	 3.2924	 3.5880	 0.4310	 3.0065	 3.4375	56.6679	99.9842	
  1136	-0.2326	 3.5995	 3.3670	 0.2878	 3.3727	 3.6605	 0.4665	 3.1352	 3.6017	56.4250	99.9835	
  1137	-0.1162	 3.6852	 3.5691	 0.4277	 3.4589	 3.8866	 0.6128	 3.1739	 3.7867	56.6952	99.9857	
  1138	-0.1894	 3.6965	 3.5072	 0.3760	 3.4513	 3.8273	 0.5816	 3.2076	 3.7892	56.6687	99.9834	
  1139	-0.1548	 3.7740	 3.6193	 0.4908	 3.5464	 4.0372	 0.7262	 3.3091	 4.0352	56.8513	99.9848	
  1140	-0.1000	 3.8219	 3.7220	 0.5575	 3.5874	 4.1448	 0.7837	 3.3452	 4.1290	56.8994	99.9853	
  1141	-0.2155	 3.8633	 3.6479	 0.4055	 3.6153	 4.0207	 0.6157	 3.3142	 3.9299	56.8955	99.9867	
  1142	-0.4869	 3.7807	 3.2939	 0.0912	 3.5067	 3.5979	 0.3255	 3.1850	 3.5106	56.8884	99.9851	
  1143	-0.6697	 3.6963	 3.0267	-0.1529	 3.3928	 3.2399	 0.0397	 3.0374	 3.0771	56.7675	99.9854	
  1144	-0.9034	 3.5102	 2.6070	-0.4978	 3.2046	 2.7069	-0.3592	 2.8506	 2.4914	56.2789	99.9843	
  1145	-1.0139	 3.3999	 2.3861	-0.6710	 3.0979	 2.4269	-0.6142	 2.7542	 2.1400	55.8119	99.9851	
  1146	-0.9753	 3.3111	 2.3359	-0.7040	 2.9804	 2.2765	-0.7110	 2.6189	 1.9079	55.6926	99.9851	
  1147	-0.9213	 3.1193	 2.1981	-0.7507	 2.7451	 1.9944	-0.8202	 2.3693	 1.5491	55.6377	99.9837	
  1148	-0.7748	 2.9843	 2.2096	-0.6591	 2.5706	 1.9115	-0.7818	 2.1805	 1.3988	55.7566	99.9833	
  1149	-0.5563	 2.9359	 2.3797	-0.4762	 2.5254	 2.0492	-0.6191	 2.1231	 1.5039	55.8384	99.9836	
  1150	-0.3398	 2.9707	 2.6310	-0.2709	 2.5303	 2.2594	-0.4328	 2.0911	 1.6583	56.1437	99.9843	
  1151	-0.1300	 3.0154	 2.8855	-0.0640	 2.5606	 2.4965	-0.2489	 2.1109	 1.8620	56.2847	99.9849	
  1152	-0.0761	 3.0486	 2.9726	-0.0006	 2.5511	 2.5505	-0.2387	 2.0960	 1.8573	56.3497	99.9857	
  1153	-0.1617	 2.9818	 2.8202	-0.1315	 2.5069	 2.3755	-0.3531	 2.0347	 1.6816	56.2356	99.9855	
  1154	-0.2589	 2.9642	 2.7054	-0.1757	 2.5161	 2.3404	-0.3474	 2.0384	 1.6910	56.4082	99.9862	
  1155	-0.2878	 2.9746	 2.6869	-0.1757	 2.5161	 2.3404	-0.3423	 2.0309	 1.6886	56.5491	99.9867	
  1156	-0.2157	 3.0612	 2.8456	-0.0483	 2.6067	 2.5584	-0.1747	 2.1469	 1.9722	56.6985	99.9860	
  1157	 0.0681	 3.2218	 3.2900	 0.2608	 2.7364	 2.9972	 0.1416	 2.2498	 2.3914	57.0885	99.9864	
  1158	 0.2576	 3.2963	 3.5540	 0.4258	 2.8137	 3.2395	 0.3289	 2.3249	 2.6538	57.1547	99.9852	
  1159	 0.3096	 3.3001	 3.6098	 0.4775	 2.8213	 3.2988	 0.3851	 2.3390	 2.7241	57.1641	99.9849	
  1160	 0.3240	 3.2949	 3.6190	 0.4959	 2.8083	 3.3043	 0.4068	 2.3313	 2.7381	57.2112	99.9844	
  1161	 0.2817	 3.2126	 3.4945	 0.4602	 2.7499	 3.2102	 0.4163	 2.3054	 2.7216	57.1921	99.9826	
  1162	 0.2433	 3.1890	 3.4323	 0.4720	 2.7328	 3.2048	 0.4329	 2.3051	 2.7380	57.2576	99.9832	
  1163	 0.1355	 3.1226	 3.2583	 0.3670	 2.6925	 3.0594	 0.3441	 2.3026	 2.6467	57.0479	99.9821	
  1164	 0.0980	 3.1136	 3.2117	 0.3419	 2.7013	 3.0432	 0.3384	 2.2990	 2.6374	57.1011	99.9829	
  1165	 0.0441	 3.0804	 3.1247	 0.3078	 2.6682	 2.9760	 0.2872	 2.2775	 2.5647	57.0542	99.9835	
  1166	-0.0030	 3.0374	 3.0345	 0.2345	 2.6230	 2.8575	 0.2124	 2.2305	 2.4429	56.9915	99.9829	
  1167	-0.1203	 2.9370	 2.8168	 0.0946	 2.5368	 2.6314	 0.0654	 2.1807	 2.2461	56.7123	99.9815	
  1168	-0.0779	 2.9068	 2.8290	 0.1440	 2.5065	 2.6504	 0.1413	 2.1539	 2.2952	56.8601	99.9806	
  1169	 0.0116	 2.9197	 2.9313	 0.2407	 2.5175	 2.7582	 0.2308	 2.1675	 2.3982	56.9135	99.9808	
  1170	 0.0577	 2.9481	 3.0059	 0.2948	 2.5630	 2.8578	 0.3049	 2.2034	 2.5083	56.9762	99.9813	
  1171	 0.1030	 2.9619	 3.0649	 0.3348	 2.5876	 2.9224	 0.3415	 2.2583	 2.5998	56.8144	99.9803	
  1172	 0.1482	 2.9756	 3.1239	 0.3630	 2.6293	 2.9923	 0.3652	 2.2839	 2.6490	56.7272	99.9817	
  1173	 0.1694	 2.9606	 3.1300	 0.3681	 2.6081	 2.9762	 0.3740	 2.2468	 2.6208	56.8048	99.9816	
  1174	 0.1598	 2.9265	 3.0864	 0.3665	 2.5828	 2.9493	 0.3906	 2.2466	 2.6372	56.7772	99.9804	
  1175	 0.2541	 2.9002	 3.1544	 0.4742	 2.5641	 3.0384	 0.5176	 2.2413	 2.7589	56.8899	99.9797	
  1176	 0.3436	 2.9130	 3.2568	 0.5718	 2.5878	 3.1596	 0.6192	 2.2732	 2.8924	56.9089	99.9797	
  1177	 0.3821	 2.9367	 3.3189	 0.6243	 2.6080	 3.2323	 0.6876	 2.3055	 2.9932	56.9711	99.9789	
  1178	 0.4879	 2.9737	 3.4618	 0.7677	 2.6477	 3.4155	 0.8288	 2.3517	 3.1806	57.0855	99.9798	
  1179	 0.6140	 2.9810	 3.5951	 0.8821	 2.6332	 3.5153	 0.9220	 2.3357	 3.2578	57.1657	99.9795	
  1180	 0.6496	 2.9607	 3.6105	 0.9440	 2.5984	 3.5424	 0.9800	 2.2870	 3.2670	57.3846	99.9804	
  1181	 0.7190	 2.8909	 3.6100	 0.9851	 2.5386	 3.5237	 1.0590	 2.2196	 3.2785	57.5200	99.9789	
  1182	 0.8730	 2.8731	 3.7462	 1.1637	 2.5272	 3.6909	 1.2588	 2.2281	 3.4869	57.6839	99.9781	
  1183	 1.0357	 2.8748	 3.9105	 1.3498	 2.5325	 3.8823	 1.4407	 2.2146	 3.6554	57.9155	99.9799	
  1184	 1.1820	 2.8523	 4.0344	 1.4818	 2.4923	 3.9741	 1.5441	 2.1838	 3.7278	57.9529	99.9794	
  1185	 1.2456	 2.8070	 4.0526	 1.5237	 2.4452	 3.9689	 1.5644	 2.1540	 3.7184	57.8587	99.9786	
  1186	 1.3014	 2.7570	 4.0585	 1.6157	 2.3804	 3.9962	 1.6708	 2.0825	 3.7533	58.1730	99.9789	
  1187	 1.3650	 2.7117	 4.0768	 1.6584	 2.3459	 4.0044	 1.7129	 2.0450	 3.7579	58.1703	99.9788	
  1188	 1.4747	 2.6948	 4.1696	 1.8422	 2.3133	 4.1555	 1.9050	 2.0167	 3.9217	58.5444	99.9798	
  1189	 1.7231	 2.6507	 4.3739	 2.1211	 2.2664	 4.3875	 2.2163	 1.9463	 4.1626	59.0434	99.9804	
  1190	 1.9484	 2.5924	 4.5409	 2.3475	 2.1994	 4.5468	 2.4186	 1.9031	 4.3216	59.1379	99.9798	
  1191	 2.0215	 2.5812	 4.6028	 2.4258	 2.2233	 4.6492	 2.4897	 1.9797	 4.4693	58.8619	99.9790	
  1192	 1.8607	 2.7213	 4.5821	 2.3147	 2.4951	 4.8098	 2.4806	 2.3784	 4.8590	58.0737	99.9757	
  1193	 1.8073	 3.1528	 4.9602	 2.4882	 3.0150	 5.5032	 2.7847	 2.9208	 5.7055	58.2292	99.9798	
  1194	 1.6483	 3.3223	 4.9707	 2.5189	 3.3013	 5.8201	 2.9172	 3.2808	 6.1980	58.0718	99.9823	
  1195	 2.0184	 3.7893	 5.8078	 3.0472	 3.7604	 6.8076	 3.4816	 3.7313	 7.2128	58.4977	99.9850	
  1196	 2.3369	 3.9150	 6.2520	 3.3713	 3.9236	 7.2949	 3.7552	 3.8606	 7.6158	58.4746	99.9886	
  1197	 2.4648	 3.9516	 6.4165	 3.4163	 3.9270	 7.3434	 3.7027	 3.8170	 7.5197	58.3372	99.9901	
  1198	 2.3532	 3.9391	 6.2925	 3.2796	 3.8914	 7.1710	 3.6093	 3.7370	 7.3463	58.5606	99.9894	
  1199	 2.2667	 3.8577	 6.1245	 3.2290	 3.7995	 7.0285	 3.5508	 3.5938	 7.1446	58.8676	99.9915	
  1200	 2.2245	 3.6629	 5.8875	 3.1897	 3.5809	 6.7706	 3.4639	 3.3476	 6.8115	59.0756	99.9929	
  1201	 2.1467	 3.4884	 5.6352	 3.1195	 3.3797	 6.4991	 3.3950	 3.1233	 6.5183	59.3796	99.9930	
  1202	 2.1776	 3.3949	 5.5726	 3.1049	 3.2492	 6.3541	 3.3097	 2.9952	 6.3049	59.3003	99.9930	
  1203	 2.0824	 3.2940	 5.3766	 3.0175	 3.1832	 6.2007	 3.2349	 2.9482	 6.1831	59.1825	99.9931	
  1204	 2.0892	 3.2841	 5.3734	 2.9909	 3.1668	 6.1576	 3.1736	 2.9416	 6.1152	59.0015	99.9929	
  1205	 2.0911	 3.3134	 5.4046	 2.9725	 3.1797	 6.1522	 3.1505	 2.9272	 6.0777	59.0697	99.9930	
  1206	 2.0622	 3.3238	 5.3861	 2.9466	 3.1760	 6.1226	 3.1007	 2.9278	 6.0285	59.0197	99.9932	
  1207	 2.0410	 3.3389	 5.3800	 2.9282	 3.1889	 6.1171	 3.0835	 2.9170	 6.0004	59.0971	99.9938	
  1208	 2.0342	 3.3488	 5.3832	 2.9549	 3.2053	 6.1602	 3.1519	 2.9493	 6.1012	59.2034	99.9932	
  1209	 2.0785	 3.3479	 5.4265	 2.9682	 3.2135	 6.1817	 3.1793	 2.9452	 6.1246	59.2012	99.9929	
  1210	 2.0554	 3.3337	 5.3893	 2.9349	 3.1930	 6.1279	 3.1007	 2.9278	 6.0285	59.0606	99.9934	
  1211	 2.0025	 3.3152	 5.3178	 2.8565	 3.1690	 6.0255	 2.9991	 2.8959	 5.8950	58.9581	99.9936	
  1212	 1.9352	 3.3019	 5.2371	 2.7856	 3.1618	 5.9474	 2.9212	 2.8895	 5.8107	58.8690	99.9938	
  1213	 1.7177	 3.2524	 4.9702	 2.5454	 3.1111	 5.6565	 2.6089	 2.8529	 5.4619	58.4545	99.9946	
  1214	 1.4194	 3.2095	 4.6289	 2.1967	 3.0663	 5.2631	 2.2845	 2.7981	 5.0825	58.2534	99.9936	
  1215	 1.4136	 3.2340	 4.6477	 2.2590	 3.1412	 5.4002	 2.4016	 2.9036	 5.3052	58.2682	99.9938	
  1216	 1.5540	 3.3486	 4.9027	 2.4381	 3.2394	 5.6775	 2.5665	 2.9753	 5.5418	58.4892	99.9949	
  1217	 1.5194	 3.2711	 4.7906	 2.3276	 3.1105	 5.4381	 2.3776	 2.7821	 5.1597	58.5368	99.9958	
  1218	 1.1509	 3.1708	 4.3218	 1.9291	 2.9865	 4.9156	 1.9732	 2.6876	 4.6609	58.2436	99.9945	
  1219	 0.9738	 3.1744	 4.1482	 1.7516	 2.9136	 4.6652	 1.8216	 2.5604	 4.3820	58.6719	99.9940	
  1220	 0.8912	 2.9266	 3.8179	 1.4732	 2.5599	 4.0332	 1.3978	 2.1451	 3.5428	58.5137	99.9934	
  1221	 0.5566	 2.6642	 3.2209	 1.0508	 2.3604	 3.4112	 1.0015	 2.0025	 3.0040	57.8765	99.9911	
  1222	 0.4689	 2.7932	 3.2621	 1.0152	 2.5086	 3.5239	 1.1169	 2.1708	 3.2877	58.1250	99.9881	
  1223	 0.7613	 2.9732	 3.7345	 1.4369	 2.6955	 4.1323	 1.5209	 2.3502	 3.8711	58.4905	99.9915	
