OxySoft export of:	C:\Users\TO3 TechSupport\Documents\Train2Adapt\Post_tests\T2A_37_POST_NIRS
Export date:	2022/12/16 04:27:43
Start of measurement:	2022-12-16 03:26:55.666

Datafile sample rate:	10.00	Hz
Datafile duration:	3382.500	s
Datafile total number of samples:	33825

Description:	

Optode-template:	PortaMon TSI Fit Factor
Optode distance (mm):	 35.00
Optode gradients (mm):	 5.00
DPF:	6.56

Device id:	334
# Receivers:	1
# Light sources:	6
# ADC:	2

Light source wavelengths:
device	index	wavelength
1	1	849	nm
1	2	759	nm
1	3	846	nm
1	4	757	nm
1	5	848	nm
1	6	757	nm

Export sample rate:	10.00	Hz
Selected time span:	0	3382.500
Selected time span (sample numbers):	0	33825


Legend:
Column	Trace (Measurement)
1	(Sample number)
2	Rx1-Tx1 O2Hb (T2A_37_POST_NIRS)
3	Rx1-Tx1 HHb (T2A_37_POST_NIRS)
4	Rx1-Tx1 tHb (T2A_37_POST_NIRS)
5	Rx1-Tx2 O2Hb (T2A_37_POST_NIRS)
6	Rx1-Tx2 HHb (T2A_37_POST_NIRS)
7	Rx1-Tx2 tHb (T2A_37_POST_NIRS)
8	Rx1-Tx3 O2Hb (T2A_37_POST_NIRS)
9	Rx1-Tx3 HHb (T2A_37_POST_NIRS)
10	Rx1-Tx3 tHb (T2A_37_POST_NIRS)
11	Rx1-Tx1,Tx2,Tx3 TSI% (T2A_37_POST_NIRS)
12	Rx1-Tx1,Tx2,Tx3 TSI Fit Factor (T2A_37_POST_NIRS)
13	(Event)


1	2	3	4	5	6	7	8	9	10	11	12	13
     0	118.5486	61.6110	180.1595	95.2522	50.2435	145.4956	77.4493	44.4748	121.9241	11.5652	98.7634	
     1	-0.1803	-0.0259	-0.2064	-0.1951	-0.0222	-0.2172	-0.2342	 0.0030	-0.2311	56.1911	99.9930	
     2	-0.1803	-0.0259	-0.2064	-0.2203	-0.0133	-0.2336	-0.2290	-0.0045	-0.2335	56.2327	99.9924	
     3	-0.1803	-0.0259	-0.2064	-0.2144	-0.0219	-0.2362	-0.2232	-0.0008	-0.2241	56.2359	99.9921	
     4	-0.1503	-0.0216	-0.1720	-0.1564	-0.0228	-0.1792	-0.1891	 0.0099	-0.1792	56.2424	99.9927	
     5	-0.1202	-0.0173	-0.1376	-0.1236	-0.0149	-0.1385	-0.1615	 0.0058	-0.1556	56.2840	99.9932	
     6	-0.1202	-0.0173	-0.1376	-0.1362	-0.0104	-0.1467	-0.1615	 0.0058	-0.1556	56.2840	99.9929	
     7	-0.1202	-0.0173	-0.1376	-0.1303	-0.0190	-0.1493	-0.1454	-0.0055	-0.1510	56.3702	99.9927	
     8	-0.1202	-0.0173	-0.1376	-0.1429	-0.0146	-0.1575	-0.1505	 0.0020	-0.1486	56.3287	99.9923	
     9	-0.1202	-0.0173	-0.1376	-0.1370	-0.0232	-0.1602	-0.1563	-0.0017	-0.1580	56.3255	99.9924	
    10	-0.1202	-0.0173	-0.1376	-0.1429	-0.0146	-0.1575	-0.1454	-0.0055	-0.1510	56.3702	99.9924	
    11	-0.0970	-0.0029	-0.1000	-0.1035	-0.0025	-0.1059	-0.1222	 0.0090	-0.1132	56.3734	99.9929	
    12	-0.0601	-0.0086	-0.0688	-0.0715	-0.0073	-0.0788	-0.0997	 0.0125	-0.0872	56.3319	99.9928	
    13	-0.0601	-0.0086	-0.0688	-0.0841	-0.0028	-0.0869	-0.0946	 0.0050	-0.0896	56.3734	99.9926	
    14	-0.0601	-0.0086	-0.0688	-0.0782	-0.0114	-0.0896	-0.1106	 0.0163	-0.0943	56.2872	99.9926	
    15	-0.0601	-0.0086	-0.0688	-0.0782	-0.0114	-0.0896	-0.0836	 0.0011	-0.0825	56.4181	99.9923	
    16	-0.0601	-0.0086	-0.0688	-0.0782	-0.0114	-0.0896	-0.0836	 0.0011	-0.0825	56.4181	99.9923	
    17	-0.0678	-0.0134	-0.0813	-0.0782	-0.0114	-0.0896	-0.0836	 0.0011	-0.0825	56.4213	99.9925	
    18	-0.0446	 0.0009	-0.0438	-0.0269	-0.0165	-0.0434	-0.0386	 0.0080	-0.0306	56.5137	99.9925	
    19	 0.0000	 0.0000	-0.0000	 0.0059	-0.0086	-0.0027	-0.0051	 0.0075	 0.0024	56.5137	99.9926	
    20	 0.0000	 0.0000	-0.0000	-0.0000	 0.0000	-0.0000	-0.0000	 0.0000	 0.0000	56.5552	99.9928	
    21	 0.0000	 0.0000	-0.0000	 0.0059	-0.0086	-0.0027	-0.0000	 0.0000	 0.0000	56.5552	99.9927	
    22	 0.0000	 0.0000	-0.0000	-0.0194	 0.0003	-0.0190	-0.0000	 0.0000	 0.0000	56.5552	99.9921	
    23	 0.0000	 0.0000	-0.0000	-0.0135	-0.0082	-0.0217	 0.0051	-0.0075	-0.0024	56.5966	99.9920	
    24	 0.0000	 0.0000	-0.0000	-0.0202	-0.0124	-0.0326	-0.0167	 0.0002	-0.0165	56.5074	99.9919	
    25	 0.0000	 0.0000	-0.0000	-0.0067	-0.0041	-0.0109	 0.0276	-0.0041	 0.0236	56.6474	99.9919	
    26	 0.0378	 0.0091	 0.0469	 0.0394	 0.0121	 0.0516	 0.0720	-0.0083	 0.0637	56.7333	99.9926	
    27	 0.0669	-0.0013	 0.0655	 0.0521	 0.0076	 0.0597	 0.0720	-0.0083	 0.0637	56.6443	99.9926	
    28	 0.0524	 0.0039	 0.0562	 0.0454	 0.0035	 0.0489	 0.0553	-0.0081	 0.0472	56.6412	99.9927	
    29	 0.0592	-0.0061	 0.0530	 0.0387	-0.0006	 0.0380	 0.0604	-0.0156	 0.0448	56.6412	99.9924	
    30	 0.0446	-0.0009	 0.0437	 0.0379	-0.0134	 0.0245	 0.0495	-0.0118	 0.0377	56.6412	99.9922	
    31	 0.0514	-0.0108	 0.0405	 0.0379	-0.0134	 0.0245	 0.0655	-0.0231	 0.0424	56.6857	99.9922	
    32	 0.0369	-0.0056	 0.0312	 0.0059	-0.0086	-0.0027	 0.0597	-0.0268	 0.0330	56.7271	99.9914	
    33	 0.0446	-0.0009	 0.0437	 0.0513	-0.0051	 0.0462	 0.0990	-0.0236	 0.0754	56.8222	99.9922	
    34	 0.1038	-0.0070	 0.0967	 0.0967	-0.0016	 0.0951	 0.1273	-0.0165	 0.1108	56.7364	99.9924	
    35	 0.1048	 0.0078	 0.1125	 0.1160	-0.0019	 0.1141	 0.1382	-0.0204	 0.1179	56.8191	99.9927	
    36	 0.1116	-0.0022	 0.1093	 0.0967	-0.0016	 0.0951	 0.1485	-0.0354	 0.1131	56.8605	99.9922	
    37	 0.1038	-0.0070	 0.0967	 0.1026	-0.0102	 0.0924	 0.1273	-0.0165	 0.1108	56.7364	99.9923	
    38	 0.1038	-0.0070	 0.0967	 0.0959	-0.0143	 0.0815	 0.1266	-0.0276	 0.0990	56.7747	99.9922	
    39	 0.0960	-0.0117	 0.0842	 0.0765	-0.0140	 0.0625	 0.1150	-0.0349	 0.0801	56.7716	99.9921	
    40	 0.0815	-0.0065	 0.0749	 0.0631	-0.0223	 0.0408	 0.1202	-0.0424	 0.0777	56.8575	99.9914	
    41	 0.0960	-0.0117	 0.0842	 0.0833	-0.0099	 0.0734	 0.1427	-0.0390	 0.1037	56.8635	99.9920	
    42	 0.1261	-0.0074	 0.1186	 0.1219	-0.0105	 0.1114	 0.1703	-0.0431	 0.1273	56.9049	99.9923	
    43	 0.1261	-0.0074	 0.1186	 0.1279	-0.0191	 0.1087	 0.1645	-0.0467	 0.1178	56.9019	99.9924	
    44	 0.1329	-0.0174	 0.1154	 0.1152	-0.0147	 0.1006	 0.1587	-0.0504	 0.1084	56.8575	99.9924	
    45	 0.1397	-0.0274	 0.1122	 0.1211	-0.0233	 0.0979	 0.1587	-0.0504	 0.1084	56.8161	99.9923	
    46	 0.1252	-0.0222	 0.1029	 0.1144	-0.0274	 0.0870	 0.1587	-0.0504	 0.1084	56.8605	99.9921	
    47	 0.1174	-0.0269	 0.0904	 0.1069	-0.0443	 0.0626	 0.1471	-0.0577	 0.0895	56.8575	99.9917	
    48	 0.0951	-0.0265	 0.0685	 0.0876	-0.0439	 0.0436	 0.1465	-0.0688	 0.0777	56.9433	99.9916	
    49	 0.1242	-0.0369	 0.0872	 0.1196	-0.0487	 0.0708	 0.1748	-0.0617	 0.1131	56.9079	99.9916	
    50	 0.1475	-0.0226	 0.1247	 0.1464	-0.0322	 0.1142	 0.1864	-0.0545	 0.1319	56.9049	99.9922	
    51	 0.1620	-0.0278	 0.1341	 0.1405	-0.0236	 0.1169	 0.1697	-0.0542	 0.1154	56.8130	99.9925	
    52	 0.1416	 0.0021	 0.1437	 0.1346	-0.0150	 0.1196	 0.1659	-0.0244	 0.1415	56.8191	99.9919	
    53	 0.1407	-0.0126	 0.1279	 0.1279	-0.0191	 0.1087	 0.1813	-0.0469	 0.1343	56.9049	99.9919	
    54	 0.0631	-0.0604	 0.0027	 0.0651	-0.0946	-0.0295	 0.1045	-0.1166	-0.0121	56.9727	99.9919	
    55	-0.0144	-0.1081	-0.1226	-0.0668	-0.1391	-0.2059	-0.0442	-0.1779	-0.2222	56.8087	99.9918	
    56	-0.0920	-0.1558	-0.2479	-0.1801	-0.1966	-0.3768	-0.2200	-0.2240	-0.4440	56.5116	99.9921	
    57	-0.2063	-0.1979	-0.4043	-0.2994	-0.2456	-0.5450	-0.3906	-0.2776	-0.6682	56.3473	99.9932	
    58	-0.2684	-0.2361	-0.5046	-0.3657	-0.2742	-0.6399	-0.5271	-0.3205	-0.8476	56.1395	99.9949	
    59	-0.3459	-0.2838	-0.6298	-0.4842	-0.3105	-0.7946	-0.7073	-0.3479	-1.0552	55.7538	99.9955	
    60	-0.4060	-0.2925	-0.6986	-0.5296	-0.3139	-0.8435	-0.7305	-0.3625	-1.0930	55.8454	99.9956	
    61	-0.4594	-0.3111	-0.7706	-0.6204	-0.3209	-0.9413	-0.8869	-0.3642	-1.2511	55.4604	99.9962	
    62	-0.5437	-0.3489	-0.8927	-0.7119	-0.3406	-1.0526	-1.0476	-0.3473	-1.3949	55.0056	99.9969	
    63	-0.5427	-0.3341	-0.8769	-0.7044	-0.3237	-1.0282	-0.9852	-0.3295	-1.3146	55.1630	99.9961	
    64	-0.4196	-0.2725	-0.6922	-0.5189	-0.2461	-0.7650	-0.6634	-0.2667	-0.9300	55.7740	99.9951	
    65	-0.2296	-0.2122	-0.4419	-0.2701	-0.1909	-0.4610	-0.3306	-0.2077	-0.5383	56.2737	99.9942	
    66	-0.1162	-0.1849	-0.3012	-0.1264	-0.1635	-0.2900	-0.1903	-0.1947	-0.3850	56.4599	99.9949	
    67	-0.0861	-0.1806	-0.2668	-0.0929	-0.1429	-0.2357	-0.1375	-0.1507	-0.2882	56.3990	99.9944	
    68	-0.0764	-0.1463	-0.2228	-0.0384	-0.0971	-0.1354	 0.0151	-0.1192	-0.1041	56.7869	99.9936	
    69	 0.0612	-0.0899	-0.0288	 0.1760	-0.0752	 0.1008	 0.2783	-0.1040	 0.1743	57.3319	99.9934	
    70	 0.1941	-0.1073	 0.0867	 0.2518	-0.1020	 0.1498	 0.3278	-0.1158	 0.2120	57.1911	99.9925	
    71	 0.2485	-0.1873	 0.0611	 0.2691	-0.2382	 0.0308	 0.3234	-0.2794	 0.0441	57.4401	99.9919	
    72	 0.1187	-0.3522	-0.2337	 0.0475	-0.3747	-0.3271	 0.0542	-0.3949	-0.3407	56.9246	99.9915	
    73	 0.0373	-0.4590	-0.4218	 0.0013	-0.3909	-0.3896	-0.0519	-0.3973	-0.4492	56.5111	99.9945	
    74	 0.1003	-0.4061	-0.3059	 0.1415	-0.3168	-0.1753	 0.0808	-0.3246	-0.2438	56.6350	99.9959	
    75	 0.0945	-0.3813	-0.2870	 0.1087	-0.3247	-0.2160	 0.0293	-0.3463	-0.3170	56.6485	99.9957	
    76	 0.1187	-0.3522	-0.2337	-0.0215	-0.3438	-0.3653	-0.0325	-0.3529	-0.3854	56.5274	99.9909	
    77	 0.0595	-0.3461	-0.2867	-0.1182	-0.3421	-0.4604	 0.0344	-0.3538	-0.3194	56.8595	99.9858	
    78	 0.0140	-0.3600	-0.3461	-0.1258	-0.3590	-0.4848	 0.0440	-0.3799	-0.3360	57.0378	99.9864	
    79	 0.0178	-0.3009	-0.2833	-0.0855	-0.3342	-0.4197	 0.0890	-0.3731	-0.2840	57.2928	99.9868	
    80	-0.0200	-0.3100	-0.3302	-0.1443	-0.3459	-0.4902	 0.0040	-0.3943	-0.3902	57.1864	99.9873	
    81	-0.0656	-0.3239	-0.3896	-0.1652	-0.3711	-0.5363	-0.0977	-0.4153	-0.5129	57.0346	99.9896	
    82	-0.0957	-0.3282	-0.4240	-0.2544	-0.3526	-0.6070	-0.1799	-0.3919	-0.5718	56.7687	99.9886	
    83	-0.1189	-0.3426	-0.4616	-0.2813	-0.3691	-0.6504	-0.1973	-0.4028	-0.6002	56.7687	99.9881	
    84	-0.1354	-0.3669	-0.5024	-0.3283	-0.3981	-0.7264	-0.2632	-0.4764	-0.7395	56.8185	99.9891	
    85	-0.1878	-0.3708	-0.5586	-0.3476	-0.3977	-0.7454	-0.2451	-0.4543	-0.6994	56.8881	99.9883	
    86	-0.1121	-0.3526	-0.4648	-0.2552	-0.3653	-0.6206	-0.1414	-0.3998	-0.5412	56.8737	99.9880	
    87	-0.0365	-0.3344	-0.3710	-0.1443	-0.3459	-0.4902	-0.0332	-0.3640	-0.3972	56.9397	99.9884	
    88	-0.0123	-0.3053	-0.3177	-0.0981	-0.3297	-0.4278	 0.0197	-0.3201	-0.3004	56.9577	99.9875	
    89	 0.0100	-0.3057	-0.2958	-0.0653	-0.3218	-0.3871	 0.0712	-0.2984	-0.2272	56.9757	99.9870	
    90	 0.0178	-0.3009	-0.2833	-0.0586	-0.3177	-0.3763	 0.0937	-0.2950	-0.2013	57.0231	99.9865	
    91	 0.0323	-0.3062	-0.2739	-0.0586	-0.3177	-0.3763	 0.1047	-0.2989	-0.1942	57.0231	99.9861	
    92	 0.0178	-0.3009	-0.2833	 0.0002	-0.3059	-0.3057	 0.1517	-0.2586	-0.1068	57.0527	99.9874	
    93	 0.0149	-0.3452	-0.3304	 0.1431	-0.2913	-0.1482	 0.2695	-0.2489	 0.0206	57.2287	99.9922	
    94	 0.0092	-0.4338	-0.4248	 0.3105	-0.2984	 0.0121	 0.4528	-0.2624	 0.1903	57.5496	99.9957	
    95	 0.0316	-0.5476	-0.5161	 0.4277	-0.3854	 0.0423	 0.5607	-0.3233	 0.2373	57.7067	99.9968	
    96	 0.0927	-0.5242	-0.4316	 0.3219	-0.4261	-0.1042	 0.3410	-0.4507	-0.1097	57.5048	99.9971	
    97	-0.0168	-0.6058	-0.6227	 0.1035	-0.5116	-0.4081	 0.1273	-0.4777	-0.3504	57.0144	99.9949	
    98	-0.1039	-0.8012	-0.9052	 0.1689	-0.7039	-0.5350	 0.5144	-0.5348	-0.0203	57.9223	99.9871	
    99	-0.1019	-0.8850	-0.9870	 0.2680	-0.6673	-0.3993	 0.7734	-0.4042	 0.3692	57.9233	99.9846	
   100	 0.1064	-0.6576	-0.5513	 0.4750	-0.4541	 0.0209	 0.9037	-0.2794	 0.6243	58.0251	99.9890	
   101	-0.1235	-0.6431	-0.7667	 0.2824	-0.4381	-0.1558	 0.5382	-0.3268	 0.2114	57.7117	99.9949	
   102	-0.4154	-0.6668	-1.0823	-0.0808	-0.4660	-0.5468	-0.0386	-0.4532	-0.4918	57.1201	99.9981	
   103	-0.4766	-0.5769	-1.0536	-0.6419	-0.6647	-1.3066	-0.9927	-0.7311	-1.7238	55.7983	99.9969	
   104	-0.9206	-0.6518	-1.5726	-1.4176	-0.7876	-2.2052	-1.8299	-0.8281	-2.6581	54.4291	99.9922	
   105	-0.9953	-0.6553	-1.6507	-1.4705	-0.8079	-2.2784	-1.8449	-0.8912	-2.7361	54.7794	99.9925	
   106	-0.8246	-0.6636	-1.4883	-1.3257	-0.8656	-2.1913	-1.6186	-0.9313	-2.5499	55.2080	99.9883	
   107	-0.6152	-0.6481	-1.2633	-0.9601	-0.7995	-1.7596	-0.9404	-0.8805	-1.8209	56.6060	99.9843	
   108	-0.4173	-0.6964	-1.1137	-0.6743	-0.7704	-1.4447	-0.6206	-0.8511	-1.4717	56.8584	99.9872	
   109	-0.2796	-0.6400	-0.9197	-0.4484	-0.6680	-1.1164	-0.4002	-0.7127	-1.1129	56.8420	99.9892	
   110	-0.0527	-0.5854	-0.6382	-0.1543	-0.6092	-0.7635	-0.0893	-0.6460	-0.7353	57.1510	99.9899	
   111	-0.2549	-1.1777	-1.4326	-0.3429	-1.2518	-1.5948	-0.3100	-1.3424	-1.6524	57.8667	99.9914	
   112	-1.1298	-1.9290	-3.0589	-1.3678	-2.0546	-3.4223	-1.6419	-2.1472	-3.7891	56.7919	99.9949	
   113	-2.1382	-2.2095	-4.3478	-2.4752	-2.3205	-4.7957	-2.7671	-2.3931	-5.1602	55.7932	99.9938	
   114	-2.2497	-2.2073	-4.4571	-2.8013	-2.3745	-5.1758	-3.2582	-2.4871	-5.7454	54.9012	99.9938	
   115	-2.5425	-2.2458	-4.7884	-3.2845	-2.4640	-5.7485	-3.8657	-2.5686	-6.4343	53.8602	99.9922	
   116	-2.9605	-2.2620	-5.2227	-3.7748	-2.4600	-6.2348	-4.3365	-2.5105	-6.8469	53.0602	99.9893	
   117	-3.0597	-1.9545	-5.0143	-3.8097	-2.0898	-5.8995	-4.4623	-2.1927	-6.6550	52.5562	99.9952	
   118	-3.3566	-1.8254	-5.1821	-4.0868	-1.9789	-6.0656	-4.7497	-2.1481	-6.8978	52.5421	99.9965	
   119	-3.5860	-2.2643	-5.8505	-4.3867	-2.5431	-6.9298	-4.8361	-2.6528	-7.4888	53.4994	99.9864	
   120	-3.0068	-2.5174	-5.5243	-3.6746	-2.7166	-6.3913	-4.0721	-2.7519	-6.8240	54.2202	99.9873	
   121	-2.1091	-2.2199	-4.3291	-2.7997	-2.3490	-5.1487	-3.2880	-2.3343	-5.6223	53.8466	99.9893	
   122	-1.3560	-1.7421	-3.0982	-1.9534	-1.7175	-3.6709	-2.3441	-1.5803	-3.9244	53.5668	99.9883	
   123	-0.3538	-1.0968	-1.4508	-0.5366	-0.9427	-1.4793	-0.4643	-0.8494	-1.3137	56.0549	99.9884	
   124	 0.1097	-1.0667	-0.9571	-0.0409	-1.0657	-1.1066	-0.2927	-1.1492	-1.4419	56.7422	99.9966	
   125	-1.3532	-1.5845	-2.9378	-1.8838	-1.4298	-3.3135	-2.4744	-1.2438	-3.7182	52.3453	99.9954	
   126	-2.1023	-1.1950	-3.2974	-2.5870	-1.1162	-3.7032	-3.0044	-0.9655	-3.9698	52.4914	99.9923	
   127	-1.9996	-1.1034	-3.1031	-2.4082	-1.0427	-3.4509	-2.8706	-0.9672	-3.8378	52.9348	99.9957	
   128	-1.8431	-1.4466	-3.2898	-2.3117	-1.4608	-3.7724	-2.7784	-1.3813	-4.1597	53.4342	99.9935	
   129	-1.4502	-1.5875	-3.0378	-1.8112	-1.5075	-3.3186	-2.1951	-1.4222	-3.6173	54.0897	99.9949	
   130	-1.1031	-1.5156	-2.6188	-1.6197	-1.4385	-3.0581	-2.1324	-1.3077	-3.4401	53.2645	99.9939	
   131	-1.5142	-0.6202	-2.1345	-1.8153	-0.3347	-2.1500	-2.0103	-0.2121	-2.2224	53.0493	99.9944	
   132	-0.8754	-0.2979	-1.1734	-1.0022	-0.5439	-1.5461	-1.4289	-0.7478	-2.1767	56.2382	99.9985	
   133	-1.0481	-1.2407	-2.2889	-1.4323	-1.6413	-3.0736	-1.8089	-1.5871	-3.3961	55.9644	99.9833	
   134	-1.3353	-2.1122	-3.4475	-1.7278	-3.6843	-5.4121	-3.4079	-3.5787	-6.9866	56.9733	99.9689	
   135	-4.2788	-4.9167	-9.1956	-4.8088	-5.6802	-10.4889	-5.6596	-5.0151	-10.6748	53.8932	99.9384	
   136	-4.0966	-4.7479	-8.8446	-4.3377	-5.4757	-9.8134	-5.1563	-4.9026	-10.0589	55.1737	99.9586	
   137	-4.0016	-4.7744	-8.7761	-4.3543	-5.5349	-9.8892	-5.1967	-5.1103	-10.3071	55.5772	99.9646	
   138	-4.2993	-4.7734	-9.0728	-4.7419	-5.3329	-10.0747	-5.3748	-4.8254	-10.2002	54.5615	99.9581	
   139	-4.1411	-3.9387	-8.0799	-4.4803	-4.1434	-8.6237	-4.7526	-3.8552	-8.6078	54.8442	99.9782	
   140	-3.5213	-2.9901	-6.5115	-3.9741	-3.1704	-7.1446	-4.3278	-3.1057	-7.4335	54.6082	99.9882	
   141	-2.8704	-2.1357	-5.0063	-3.4297	-2.3086	-5.7383	-3.7683	-2.2500	-6.0183	54.0393	99.9854	
   142	-2.4921	-1.2365	-3.7287	-2.8805	-1.3704	-4.2509	-2.9408	-1.4833	-4.4241	55.4031	99.9878	
   143	-2.0545	-1.4916	-3.5462	-2.0319	-1.6312	-3.6631	-1.7153	-1.6999	-3.4152	58.1199	99.9844	
   144	-0.5796	-1.3634	-1.9430	-0.2892	-1.2188	-1.5080	-0.0006	-1.1158	-1.1163	58.0424	99.9918	
   145	 0.0855	-1.0958	-1.0104	 0.1009	-0.9662	-0.8653	-0.0990	-0.8988	-0.9978	56.3475	99.9970	
   146	 0.2008	-1.0389	-0.8382	 0.0891	-0.9490	-0.8599	-0.1806	-0.8643	-1.0449	55.9003	99.9959	
   147	 0.1776	-1.0532	-0.8758	 0.1017	-0.9534	-0.8517	 0.0167	-0.9226	-0.9059	56.6851	99.9942	
   148	 0.0274	-1.1882	-1.1610	-0.1029	-1.1284	-1.2313	-0.3580	-1.0293	-1.3873	55.9505	99.9948	
   149	-0.9557	-0.5033	-1.4591	-0.8896	-0.2909	-1.1804	-0.9689	-0.2441	-1.2130	55.3281	99.9971	
   150	-0.7066	-0.3358	-1.0425	-0.7125	-0.6593	-1.3718	-1.0715	-0.8342	-1.9057	57.1348	99.9977	
   151	-1.2072	-1.1685	-2.3758	-1.4737	-1.5811	-3.0548	-1.9677	-1.5367	-3.5044	55.8583	99.9895	
   152	-1.1858	-3.2536	-4.4395	-2.6696	-4.9133	-7.5829	-4.4105	-4.8415	-9.2520	54.8640	99.9287	
   153	-4.8242	-5.5219	-10.3462	-5.0465	-6.6959	-11.7424	-6.1396	-5.4776	-11.6171	53.6591	99.8690	
   154	-3.7706	-4.8874	-8.6582	-3.8186	-6.2577	-10.0764	-5.1644	-5.0364	-10.2007	54.4640	99.8747	
   155	-3.0145	-4.5921	-7.6067	-3.0827	-6.0492	-9.1319	-4.7135	-5.0533	-9.7668	55.0842	99.9075	
   156	-3.1411	-5.0528	-8.1940	-3.5252	-6.7258	-10.2510	-5.4335	-5.7954	-11.2288	54.6036	99.8929	
   157	-4.3758	-5.8413	-10.2172	-4.9411	-7.2797	-12.2208	-6.4824	-6.1649	-12.6474	53.1626	99.8615	
   158	-4.8641	-5.3338	-10.1980	-5.2590	-6.0677	-11.3267	-6.0196	-5.1555	-11.1752	53.4360	99.9178	
   159	-4.1393	-3.7958	-7.9352	-4.5359	-4.1042	-8.6401	-4.9932	-3.8670	-8.8602	54.5436	99.9816	
   160	-3.7299	-2.8775	-6.6075	-4.2879	-3.1312	-7.4191	-4.6730	-3.0008	-7.6738	53.9231	99.9817	
   161	-3.5882	-2.0672	-5.6554	-3.7793	-2.1200	-5.8994	-3.7872	-2.1010	-5.8882	55.2636	99.9890	
   162	-3.0600	-1.7278	-4.7879	-2.8756	-1.8081	-4.6837	-2.6879	-1.9143	-4.6022	57.6124	99.9937	
   163	-2.2913	-2.2754	-4.5669	-1.7902	-2.2046	-3.9948	-1.4231	-2.1277	-3.5508	58.8007	99.9934	
   164	-1.7374	-2.4590	-4.1965	-1.4919	-2.3881	-3.8800	-1.7210	-2.3470	-4.0680	57.1161	99.9993	
   165	-2.2909	-2.7288	-5.0198	-2.2827	-2.5447	-4.8274	-2.5258	-2.3701	-4.8959	55.2885	99.9972	
   166	-2.3238	-2.7775	-5.1014	-2.3802	-2.5558	-4.9360	-2.5630	-2.3399	-4.9029	55.0015	99.9953	
   167	-2.4334	-2.7457	-5.1792	-2.4839	-2.4606	-4.9445	-2.6597	-2.1862	-4.8459	54.4773	99.9951	
   168	-2.5279	-2.3643	-4.8923	-2.3072	-2.0089	-4.3162	-2.3103	-1.6662	-3.9765	54.8751	99.9954	
   169	-2.5783	-1.4171	-3.9954	-2.2294	-1.1775	-3.4069	-2.3637	-0.9812	-3.3449	54.9441	99.9991	
   170	-1.8725	-1.2094	-3.0820	-1.5388	-1.4866	-3.0253	-1.9739	-1.4548	-3.4287	56.8761	99.9989	
   171	-1.8658	-2.0276	-3.8936	-1.9992	-2.5537	-4.5530	-2.5369	-2.6452	-5.1821	57.3934	99.9944	
   172	-2.9455	-3.7556	-6.7012	-3.0643	-4.8259	-7.8902	-4.1598	-4.2013	-8.3611	55.8327	99.9485	
   173	-3.3924	-4.9098	-8.3023	-3.4269	-6.7020	-10.1289	-5.0575	-5.4841	-10.5416	55.6685	99.8441	
   174	-3.7438	-5.5089	-9.2529	-3.4273	-7.5347	-10.9621	-5.4871	-5.6682	-11.1554	53.9711	99.7636	
   175	-2.9965	-5.1198	-8.1164	-2.4979	-7.1213	-9.6192	-4.6065	-5.2221	-9.8286	54.4462	99.7792	
   176	-2.8054	-5.1581	-7.9636	-2.3614	-7.4168	-9.7782	-4.8188	-5.6880	-10.5068	55.0685	99.7854	
   177	-3.6146	-5.8122	-9.4268	-3.5054	-8.0603	-11.5657	-5.9546	-6.2945	-12.2491	53.6759	99.7573	
   178	-4.3631	-5.9894	-10.3526	-4.4570	-7.8997	-12.3568	-6.4548	-6.1690	-12.6238	52.7694	99.7683	
   179	-4.6103	-5.0924	-9.7028	-4.8862	-5.8870	-10.7733	-5.8331	-4.9311	-10.7642	53.2612	99.9252	
   180	-4.2984	-3.7237	-8.0222	-4.8277	-4.1248	-8.9524	-5.5465	-3.8822	-9.4287	53.3943	99.9831	
   181	-3.8980	-2.5982	-6.4962	-4.2557	-2.7196	-6.9753	-4.3780	-2.6438	-7.0218	54.6914	99.9848	
   182	-3.4662	-1.7936	-5.2599	-3.4176	-1.9094	-5.3271	-3.3650	-2.0395	-5.4045	56.8080	99.9943	
   183	-2.7754	-2.1623	-4.9377	-2.2327	-2.1589	-4.3916	-1.8453	-2.1892	-4.0345	59.1730	99.9948	
   184	-1.6040	-2.0082	-3.6123	-0.8699	-1.8335	-2.7034	-0.6172	-1.7178	-2.3350	58.8406	99.9983	
   185	-1.4158	-2.0909	-3.5067	-1.1048	-1.9783	-3.0831	-1.3189	-1.8798	-3.1987	56.8832	99.9993	
   186	-1.7541	-2.2566	-4.0108	-1.5340	-2.1325	-3.6665	-1.7496	-1.9896	-3.7392	56.3105	99.9985	
   187	-1.9983	-2.4636	-4.4620	-1.8294	-2.3144	-4.1438	-2.0690	-2.1045	-4.1735	55.7549	99.9978	
   188	-2.3621	-2.3331	-4.6953	-2.1407	-2.0287	-4.1694	-2.2628	-1.7115	-3.9743	54.9029	99.9970	
   189	-2.7315	-1.3697	-4.1013	-2.3470	-0.9928	-3.3398	-2.2521	-0.8896	-3.1418	55.3946	99.9985	
   190	-2.4398	-1.2326	-3.6724	-1.7693	-1.4572	-3.2265	-1.8981	-1.4930	-3.3911	58.3686	99.9996	
   191	-2.1581	-2.6329	-4.7911	-2.2405	-4.2450	-6.4855	-3.7356	-4.1063	-7.8419	58.4656	99.9664	
   192	-4.6560	-5.9146	-10.5707	-4.6838	-8.2231	-12.9069	-6.9831	-6.2329	-13.2160	52.1558	99.6835	
   193	-4.9743	-6.6918	-11.6662	-4.7196	-9.5184	-14.2380	-7.4559	-6.6694	-14.1253	50.6287	99.4489	
   194	-4.6935	-6.2637	-10.9573	-3.9828	-9.0889	-13.0717	-6.7626	-6.2766	-13.0392	52.1248	99.5145	
   195	-4.0333	-6.0699	-10.1033	-3.4961	-9.2544	-12.7505	-6.7763	-6.5963	-13.3727	52.2688	99.4939	
   196	-4.9655	-6.7856	-11.7512	-4.8500	-9.7456	-14.5956	-7.9061	-7.1025	-15.0086	50.4379	99.4803	
   197	-5.5770	-6.2264	-11.8035	-5.5245	-8.0432	-13.5677	-7.3944	-5.8371	-13.2314	50.5160	99.7002	
   198	-4.6986	-4.0409	-8.7396	-4.9412	-4.5987	-9.5399	-5.7840	-3.9349	-9.7189	52.8496	99.9637	
   199	-4.2856	-2.9502	-7.2358	-4.8328	-3.3811	-8.2139	-5.4825	-3.1019	-8.5845	52.8029	99.9773	
   200	-4.5346	-2.1961	-6.7308	-4.7817	-2.3580	-7.1397	-4.8967	-2.2726	-7.1694	54.2920	99.9860	
   201	-4.1268	-1.6473	-5.7743	-3.8387	-1.7281	-5.5669	-3.7014	-1.7896	-5.4911	56.7340	99.9955	
   202	-3.2847	-1.9796	-5.2644	-2.6222	-1.8846	-4.5068	-2.2303	-1.8198	-4.0500	58.3026	99.9960	
   203	-2.5156	-2.0590	-4.5747	-1.8501	-1.9232	-3.7733	-1.8367	-1.8620	-3.6987	57.7474	99.9997	
   204	-3.1854	-2.4005	-5.5859	-2.8912	-2.1605	-5.0517	-3.0483	-1.9691	-5.0175	55.1462	99.9990	
   205	-3.2358	-2.3748	-5.6108	-3.0601	-2.1789	-5.2390	-3.2651	-1.9552	-5.2203	54.6334	99.9980	
   206	-3.3299	-2.3335	-5.6636	-3.1359	-2.1521	-5.2880	-3.3621	-1.8982	-5.2602	54.4574	99.9978	
   207	-3.3475	-2.2592	-5.6068	-3.1840	-2.0961	-5.2801	-3.4147	-1.8454	-5.2601	54.3512	99.9974	
   208	-3.3427	-2.1854	-5.5282	-3.1481	-2.0372	-5.1853	-3.4035	-1.7526	-5.1560	54.2382	99.9973	
   209	-3.3020	-2.1320	-5.4341	-3.1559	-1.9564	-5.1123	-3.3885	-1.6895	-5.0780	54.1092	99.9972	
   210	-3.3214	-2.0873	-5.4088	-3.1788	-1.9092	-5.0880	-3.4295	-1.6295	-5.0590	53.9330	99.9972	
   211	-3.3632	-2.0421	-5.4054	-3.2202	-1.8491	-5.0693	-3.4589	-1.5622	-5.0211	53.8166	99.9971	
   212	-3.4117	-1.9869	-5.3987	-3.2743	-1.7844	-5.0587	-3.4890	-1.5060	-4.9950	53.7821	99.9970	
   213	-3.4147	-1.9178	-5.3327	-3.2569	-1.7125	-4.9693	-3.4836	-1.4168	-4.9004	53.6704	99.9971	
   214	-3.3954	-1.8492	-5.2447	-3.2394	-1.6405	-4.8800	-3.4628	-1.3501	-4.8129	53.6360	99.9972	
   215	-3.3916	-1.7902	-5.1818	-3.2363	-1.5896	-4.8259	-3.4601	-1.3055	-4.7656	53.6360	99.9972	
   216	-3.4178	-1.7354	-5.1533	-3.2591	-1.5425	-4.8016	-3.4793	-1.2532	-4.7325	53.5975	99.9970	
   217	-3.4518	-1.6855	-5.1374	-3.2887	-1.4995	-4.7882	-3.5210	-1.2043	-4.7253	53.5075	99.9970	
   218	-3.4703	-1.6260	-5.0963	-3.2914	-1.4400	-4.7314	-3.5118	-1.1449	-4.6567	53.5248	99.9970	
   219	-3.4228	-1.5826	-5.0055	-3.2622	-1.3852	-4.6474	-3.4917	-1.0894	-4.5811	53.3965	99.9971	
   220	-3.4267	-1.5283	-4.9551	-3.2657	-1.3384	-4.6042	-3.4948	-1.0484	-4.5432	53.3965	99.9971	
   221	-3.4607	-1.4783	-4.9391	-3.3012	-1.2868	-4.5881	-3.5197	-0.9998	-4.5195	53.3581	99.9970	
   222	-3.4879	-1.4383	-4.9264	-3.3249	-1.2524	-4.5773	-3.5723	-0.9470	-4.5194	53.1783	99.9971	
   223	-3.5219	-1.3884	-4.9104	-3.3722	-1.1837	-4.5559	-3.5915	-0.8947	-4.4862	53.1444	99.9971	
   224	-3.4958	-1.3298	-4.8256	-3.3489	-1.1203	-4.4692	-3.5707	-0.8280	-4.3987	53.0678	99.9971	
   225	-3.4852	-1.2807	-4.7659	-3.3331	-1.0739	-4.4069	-3.5622	-0.7798	-4.3420	53.0296	99.9972	
   226	-3.5036	-1.2212	-4.7249	-3.3611	-1.0054	-4.3665	-3.5974	-0.7161	-4.3135	52.8971	99.9974	
   227	-3.5299	-1.1664	-4.6964	-3.3966	-0.9538	-4.3504	-3.6333	-0.6636	-4.2969	52.8071	99.9972	
   228	-3.5775	-1.0965	-4.6741	-3.4127	-0.9026	-4.3153	-3.6576	-0.6037	-4.2613	52.8162	99.9973	
   229	-3.5436	-1.0331	-4.5768	-3.3886	-0.8265	-4.2151	-3.6259	-0.5409	-4.1668	52.7827	99.9974	
   230	-3.5388	-0.9593	-4.4982	-3.3898	-0.7415	-4.1312	-3.6212	-0.4629	-4.0840	52.7065	99.9976	
   231	-3.5495	-0.8950	-4.4446	-3.3992	-0.6861	-4.0853	-3.6448	-0.3919	-4.0367	52.5787	99.9974	
   232	-3.5748	-0.8255	-4.4004	-3.4390	-0.6004	-4.0395	-3.6793	-0.3171	-3.9964	52.4510	99.9976	
   233	-3.6001	-0.7560	-4.3562	-3.4729	-0.5234	-3.9963	-3.7132	-0.2311	-3.9442	52.2854	99.9974	
   234	-3.5944	-0.6674	-4.2619	-3.4354	-0.4390	-3.8744	-3.6859	-0.1496	-3.8355	52.3042	99.9978	
   235	-3.5518	-0.5845	-4.1364	-3.4046	-0.3588	-3.7634	-3.6638	-0.0606	-3.7244	52.1814	99.9977	
   236	-3.5625	-0.5202	-4.0828	-3.4258	-0.2863	-3.7121	-3.6823	 0.0028	-3.6794	52.0965	99.9978	
   237	-3.5956	-0.4555	-4.0511	-3.4605	-0.2219	-3.6825	-3.7226	 0.0740	-3.6486	51.9690	99.9977	
   238	-3.6431	-0.3855	-4.0287	-3.5138	-0.1446	-3.6583	-3.7636	 0.1341	-3.6295	51.9266	99.9979	
   239	-3.6597	-0.2965	-3.9563	-3.5090	-0.0682	-3.5772	-3.7640	 0.2196	-3.5444	51.8986	99.9979	
   240	-3.6181	-0.2283	-3.8465	-3.4975	 0.0124	-3.4851	-3.7542	 0.2901	-3.4640	51.7665	99.9979	
   241	-3.6366	-0.1688	-3.8055	-3.5078	 0.0550	-3.4527	-3.7952	 0.3502	-3.4450	51.6294	99.9979	
   242	-3.6706	-0.1188	-3.7895	-3.5677	 0.1283	-3.4394	-3.8368	 0.3991	-3.4378	51.5395	99.9980	
   243	-3.7269	-0.0684	-3.7954	-3.6107	 0.1630	-3.4477	-3.8894	 0.4518	-3.4376	51.4546	99.9978	
   244	-3.7676	-0.0085	-3.7762	-3.6707	 0.2362	-3.4345	-3.9304	 0.5119	-3.4186	51.3697	99.9978	
   245	-3.7716	 0.0458	-3.7259	-3.6667	 0.2999	-3.3668	-3.9213	 0.5712	-3.3500	51.3424	99.9979	
   246	-3.7823	 0.1101	-3.6723	-3.6813	 0.3766	-3.3046	-3.9551	 0.6572	-3.2979	51.1304	99.9981	
   247	-3.7998	 0.1844	-3.6156	-3.7026	 0.4492	-3.2533	-3.9729	 0.7318	-3.2411	51.0508	99.9980	
   248	-3.8397	 0.2591	-3.5807	-3.7432	 0.5221	-3.2210	-3.9972	 0.7917	-3.2055	51.0559	99.9980	
   249	-3.8727	 0.3238	-3.5490	-3.7830	 0.6078	-3.1752	-4.0253	 0.8813	-3.1440	50.9020	99.9980	
   250	-3.8670	 0.4124	-3.4547	-3.7530	 0.6753	-3.0777	-4.0154	 0.9518	-3.0636	50.9072	99.9981	
   251	-3.8632	 0.4715	-3.3918	-3.7557	 0.7348	-3.0209	-4.0288	 1.0078	-3.0210	50.8174	99.9983	
   252	-3.9117	 0.5267	-3.3851	-3.8173	 0.7826	-3.0347	-4.0872	 1.0569	-3.0303	50.7224	99.9980	
   253	-3.9680	 0.5771	-3.3910	-3.8906	 0.8475	-3.0431	-4.1404	 1.0985	-3.0420	50.6748	99.9981	
   254	-4.0088	 0.6370	-3.3719	-3.9135	 0.8947	-3.0188	-4.1866	 1.1660	-3.0205	50.5478	99.9981	
   255	-3.9594	 0.7100	-3.2495	-3.8625	 0.9873	-2.8753	-4.1252	 1.2582	-2.8670	50.4951	99.9982	
   256	-3.9391	 0.7934	-3.1459	-3.8013	 1.0372	-2.7641	-4.1044	 1.3249	-2.7795	50.5004	99.9985	
   257	-3.9052	 0.8567	-3.0486	-3.7855	 1.0837	-2.7018	-4.0799	 1.3618	-2.7181	50.5373	99.9982	
   258	-3.9557	 0.8824	-3.0734	-3.8325	 1.0548	-2.7777	-4.1270	 1.3215	-2.8055	50.7171	99.9978	
   259	-4.0992	 0.8508	-3.2485	-3.9837	 1.0106	-2.9731	-4.2314	 1.2559	-2.9755	50.8709	99.9973	
   260	-4.2126	 0.8235	-3.3893	-4.0248	 0.9730	-3.0518	-4.2610	 1.2265	-3.0345	51.0712	99.9977	
   261	-4.2824	 0.7805	-3.5020	-4.0994	 0.9148	-3.1846	-4.3487	 1.1607	-3.1880	51.0778	99.9977	
   262	-4.3891	 0.7432	-3.6460	-4.2254	 0.8617	-3.3637	-4.5193	 1.1071	-3.4122	50.8832	99.9979	
   263	-4.4637	 0.7398	-3.7241	-4.3414	 0.8637	-3.4778	-4.6036	 1.0970	-3.5066	50.8196	99.9974	
   264	-4.5006	 0.7454	-3.7553	-4.3809	 0.8516	-3.5293	-4.6480	 1.1013	-3.5467	50.7665	99.9970	
   265	-4.4860	 0.7402	-3.7459	-4.3505	 0.8213	-3.5292	-4.6108	 1.0711	-3.5397	50.9424	99.9967	
   266	-4.4947	 0.7207	-3.7742	-4.3790	 0.7793	-3.5997	-4.6869	 1.0125	-3.6743	50.8798	99.9971	
   267	-4.5577	 0.6677	-3.8901	-4.5361	 0.7437	-3.7924	-4.8575	 0.9590	-3.8985	50.5370	99.9969	
   268	-4.6188	 0.6443	-3.9746	-4.6640	 0.7629	-3.9011	-5.0015	 0.9757	-4.0258	50.0996	99.9970	
   269	-4.7439	 0.6665	-4.0775	-4.7595	 0.8877	-3.8718	-5.0539	 1.1251	-3.9287	49.7588	99.9976	
   270	-4.8402	 0.9050	-3.9353	-4.7767	 1.2322	-3.5445	-5.0572	 1.5306	-3.5266	49.1874	99.9984	
   271	-4.7941	 1.3870	-3.4071	-4.5506	 1.7510	-2.7996	-4.7238	 2.0619	-2.6619	49.5554	99.9988	
   272	-4.5587	 1.6879	-2.8709	-4.2161	 2.0427	-2.1734	-4.3571	 2.3138	-2.0433	50.0661	99.9994	
   273	-4.4279	 1.7543	-2.6737	-4.0463	 2.0738	-1.9725	-4.2554	 2.3348	-1.9206	50.1798	99.9998	
   274	-4.3736	 1.7877	-2.5860	-3.9942	 2.0815	-1.9127	-4.2045	 2.3453	-1.8592	50.2627	99.9997	
   275	-4.2407	 1.7703	-2.4706	-3.8849	 2.0754	-1.8095	-4.0990	 2.3365	-1.7625	50.2680	99.9996	
   276	-4.1369	 1.7633	-2.3738	-3.8075	 2.0741	-1.7334	-4.0315	 2.3468	-1.6847	50.1851	99.9995	
   277	-4.0855	 1.7524	-2.3333	-3.7503	 2.0603	-1.6899	-3.9987	 2.3352	-1.6635	50.1798	99.9997	
   278	-4.0942	 1.7328	-2.3615	-3.7728	 2.0097	-1.7630	-4.0355	 2.2799	-1.7556	50.2257	99.9996	
   279	-4.0903	 1.6785	-2.4119	-3.7827	 1.9547	-1.8280	-4.0665	 2.2282	-1.8383	50.1574	99.9996	
   280	-4.0330	 1.6429	-2.3902	-3.7211	 1.9069	-1.8142	-4.0364	 2.1720	-1.8644	50.2194	99.9998	
   281	-3.9835	 1.6025	-2.3812	-3.7042	 1.8684	-1.8358	-4.0436	 2.1461	-1.8975	50.0674	99.9997	
   282	-3.9244	 1.5964	-2.3281	-3.6588	 1.8718	-1.7869	-3.9876	 2.1491	-1.8385	50.0782	99.9996	
   283	-3.8788	 1.6102	-2.2687	-3.5999	 1.8836	-1.7164	-3.9631	 2.1860	-1.7771	49.9584	99.9997	
   284	-3.7858	 1.6675	-2.1183	-3.4791	 1.9580	-1.5211	-3.8129	 2.2696	-1.5434	50.0701	99.9997	
   285	-3.5977	 1.6983	-1.8995	-3.2959	 1.9974	-1.2985	-3.6430	 2.3120	-1.3310	50.0969	99.9997	
   286	-3.4542	 1.7299	-1.7244	-3.1684	 2.0760	-1.0924	-3.4929	 2.3956	-1.0972	50.0261	99.9997	
   287	-3.3534	 1.7920	-1.5615	-3.0543	 2.1463	-0.9080	-3.3608	 2.4572	-0.9037	50.1512	99.9997	
   288	-3.2768	 1.8249	-1.4520	-2.9998	 2.1921	-0.8076	-3.3022	 2.5048	-0.7974	50.0794	99.9997	
   289	-3.1469	 1.8765	-1.2704	-2.8545	 2.2449	-0.6096	-3.1592	 2.5624	-0.5968	50.1575	99.9997	
   290	-2.9966	 1.8982	-1.0985	-2.6922	 2.2592	-0.4331	-3.0350	 2.5869	-0.4481	50.1681	99.9998	
   291	-2.8928	 1.8912	-1.0017	-2.6200	 2.2792	-0.3408	-2.9623	 2.5896	-0.3726	50.1270	99.9999	
   292	-2.8647	 1.8660	-0.9988	-2.5979	 2.2193	-0.3786	-2.9598	 2.5375	-0.4223	50.1828	99.9998	
   293	-2.8365	 1.8408	-0.9958	-2.5718	 2.2231	-0.3487	-2.9038	 2.5405	-0.3633	50.2144	99.9998	
   294	-2.7017	 1.8529	-0.8490	-2.3894	 2.2498	-0.1397	-2.7062	 2.5789	-0.1273	50.4101	99.9998	
   295	-2.5320	 1.8298	-0.7023	-2.2221	 2.2427	 0.0206	-2.5455	 2.5620	 0.0165	50.5123	99.9999	
   296	-2.4320	 1.7637	-0.6684	-2.1613	 2.1822	 0.0209	-2.4884	 2.4906	 0.0021	50.5327	99.9998	
   297	-2.3999	 1.6842	-0.7158	-2.1483	 2.0800	-0.0683	-2.5054	 2.3941	-0.1113	50.5326	99.9998	
   298	-2.3979	 1.6004	-0.7976	-2.1531	 2.0036	-0.1495	-2.4934	 2.3158	-0.1776	50.6146	99.9998	
   299	-2.2999	 1.5048	-0.7952	-2.0628	 1.9001	-0.1627	-2.4384	 2.2110	-0.2274	50.6712	99.9999	
   300	-2.2436	 1.4544	-0.7893	-1.9961	 1.8310	-0.1651	-2.4185	 2.1698	-0.2488	50.6148	99.9999	
   301	-2.1892	 1.3744	-0.8149	-2.0301	 1.6999	-0.3303	-2.5310	 1.9704	-0.5606	50.6258	100.0000	
   302	-2.3199	 1.1947	-1.1253	-2.2245	 1.4822	-0.7422	-2.7555	 1.7650	-0.9905	50.4747	99.9999	
   303	-2.3247	 1.1209	-1.2040	-2.2024	 1.4224	-0.7800	-2.7073	 1.7309	-0.9764	50.5583	99.9998	
   304	-2.1792	 1.0687	-1.1106	-2.0248	 1.3726	-0.6522	-2.5428	 1.6842	-0.8586	50.7561	99.9999	
   305	-2.0821	 0.9583	-1.1239	-1.9025	 1.2643	-0.6381	-2.4253	 1.5971	-0.8282	50.9064	99.9999	
   306	-2.0491	 0.8936	-1.1556	-1.8460	 1.2379	-0.6081	-2.3249	 1.5958	-0.7291	50.9721	99.9998	
   307	-1.9880	 0.9170	-1.0711	-1.7303	 1.3336	-0.3967	-2.1083	 1.7641	-0.3442	50.9725	99.9994	
   308	-1.7448	 1.1093	-0.6356	-1.2935	 1.7129	 0.4194	-1.3875	 2.3350	 0.9475	51.1371	99.9976	
   309	-0.9248	 1.5857	 0.6609	-0.4753	 2.2047	 1.7294	-0.3839	 2.6011	 2.2172	52.5731	99.9981	
   310	-0.4172	 1.2602	 0.8428	-0.1653	 1.7958	 1.6306	-0.1985	 2.1598	 1.9613	52.6789	99.9975	
   311	-0.1542	 1.0676	 0.9133	 0.1634	 1.5821	 1.7455	 0.1501	 1.9284	 2.0785	53.3986	99.9978	
   312	 0.0341	 0.8717	 0.9057	 0.3334	 1.3073	 1.6407	 0.2374	 1.6186	 1.8560	53.7961	99.9983	
   313	-0.1432	 0.6633	 0.5200	 0.1759	 1.1612	 1.3371	 0.1910	 1.5894	 1.7804	53.6005	99.9962	
   314	 0.0410	 0.7483	 0.7892	 0.4858	 1.2665	 1.7523	 0.5333	 1.6222	 2.1555	54.2769	99.9981	
   315	-0.1979	 1.0833	 0.8853	 0.1273	 1.8291	 1.9564	 0.0259	 2.3652	 2.3911	51.7282	99.9986	
   316	-0.5434	 2.3026	 1.7591	-0.0827	 2.7037	 2.6210	-0.1772	 2.8811	 2.7038	53.2320	99.9995	
   317	-0.5376	 2.3912	 1.8534	 0.0021	 2.5110	 2.5131	 0.0014	 2.7895	 2.7909	54.2531	99.9965	
   318	-0.3239	 2.0123	 1.6883	 0.0116	 1.7334	 1.7449	-0.3268	 2.0685	 1.7416	54.3766	99.9902	
   319	-0.8245	 1.1796	 0.3550	-0.3716	 0.4567	 0.0850	-0.8251	 1.0260	 0.2010	55.4742	99.9680	
   320	-1.4804	-0.4435	-1.9240	-0.6571	-2.5594	-3.2165	-2.2428	-1.4737	-3.7165	57.5252	99.8750	
   321	-2.5495	-1.0875	-3.6371	-1.4664	-2.7030	-4.1694	-2.4987	-0.7228	-3.2215	54.4541	99.7993	
   322	-0.3376	 1.1107	 0.7731	 0.7808	 0.8238	 1.6047	 0.7147	 1.3930	 2.1077	57.2356	99.9884	
   323	 0.1414	 1.2638	 1.4051	 0.3929	 1.1236	 1.5165	 0.2332	 1.2727	 1.5060	55.7863	99.9938	
   324	-0.3513	 1.2441	 0.8927	-0.0914	 1.1190	 1.0276	-0.0736	 1.2730	 1.1993	55.8978	99.9905	
   325	-0.5073	 1.1338	 0.6264	-0.1996	 1.0401	 0.8405	-0.0951	 1.1952	 1.1001	56.1399	99.9901	
   326	-0.8428	 1.0124	 0.1696	-0.5490	 0.9228	 0.3738	-0.3797	 1.1021	 0.7224	56.0459	99.9876	
   327	-1.2014	 0.8766	-0.3249	-0.8901	 0.8351	-0.0551	-0.7383	 0.9840	 0.2457	55.8438	99.9906	
   328	-1.5098	 0.8286	-0.6813	-1.1641	 0.7887	-0.3754	-1.0274	 0.9096	-0.1178	55.8105	99.9925	
   329	-1.7444	 0.7692	-0.9753	-1.4010	 0.7163	-0.6848	-1.2830	 0.8348	-0.4482	55.6881	99.9927	
   330	-1.9413	 0.7189	-1.2224	-1.6178	 0.6562	-0.9616	-1.5089	 0.7894	-0.7196	55.4893	99.9920	
   331	-2.0537	 0.7064	-1.3474	-1.8069	 0.6254	-1.1815	-1.7226	 0.7624	-0.9602	55.1814	99.9908	
   332	-2.0760	 0.7068	-1.3693	-1.8657	 0.6136	-1.2521	-1.8700	 0.7233	-1.1466	54.9459	99.9926	
   333	-2.1439	 0.6934	-1.4506	-1.9825	 0.6029	-1.3797	-2.0451	 0.6884	-1.3567	54.6732	99.9937	
   334	-2.1594	 0.6839	-1.4757	-2.0271	 0.6121	-1.4150	-2.1481	 0.6451	-1.5030	54.5353	99.9958	
   335	-2.2884	 0.6470	-1.6415	-2.2581	 0.5310	-1.7271	-2.5993	 0.5654	-2.0339	53.6658	99.9974	
   336	-2.3630	 0.6436	-1.7196	-2.4180	 0.5550	-1.8630	-2.7840	 0.5566	-2.2274	53.2968	99.9977	
   337	-2.3097	 0.6622	-1.6476	-2.3970	 0.5801	-1.8169	-2.7806	 0.6123	-2.1682	53.0346	99.9972	
   338	-2.2506	 0.6561	-1.5945	-2.3374	 0.6046	-1.7328	-2.7072	 0.6263	-2.0809	53.0570	99.9975	
   339	-2.3368	 0.5888	-1.7481	-2.4231	 0.5763	-1.8468	-2.7509	 0.6417	-2.1092	52.8790	99.9967	
   340	-2.3504	 0.6088	-1.7417	-2.4014	 0.6142	-1.7872	-2.7032	 0.6932	-2.0100	52.9241	99.9967	
   341	-2.3417	 0.6284	-1.7134	-2.3856	 0.6607	-1.7249	-2.6663	 0.7485	-1.9179	52.8705	99.9967	
   342	-2.3931	 0.6393	-1.7539	-2.4033	 0.6865	-1.7169	-2.6373	 0.7667	-1.8706	53.0379	99.9967	
   343	-2.3621	 0.6583	-1.7038	-2.3437	 0.7109	-1.6327	-2.5947	 0.8257	-1.7690	52.9376	99.9968	
   344	-2.2719	 0.6713	-1.6007	-2.2395	 0.7262	-1.5133	-2.5213	 0.8396	-1.6817	52.9421	99.9974	
   345	-2.2933	 0.6865	-1.6068	-2.2580	 0.7392	-1.5188	-2.5606	 0.8364	-1.7242	52.9242	99.9979	
   346	-2.4057	 0.6740	-1.7318	-2.4562	 0.6661	-1.7901	-2.9277	 0.6700	-2.2577	52.6250	99.9993	
   347	-2.4038	 0.7035	-1.7004	-2.4941	 0.6795	-1.8146	-2.9786	 0.6595	-2.3191	52.5831	99.9993	
   348	-2.3166	 0.7856	-1.5312	-2.3674	 0.7453	-1.6220	-2.8001	 0.7502	-2.0499	52.8290	99.9988	
   349	-2.2362	 0.8776	-1.3587	-2.2449	 0.8452	-1.3997	-2.5501	 0.9181	-1.6320	53.0538	99.9968	
   350	-2.0414	 1.0117	-1.0298	-2.0202	 1.0326	-0.9876	-2.1621	 1.1511	-1.0110	53.3124	99.9944	
   351	-1.8931	 1.1172	-0.7761	-1.8148	 1.2204	-0.5945	-1.8735	 1.3110	-0.5625	53.5557	99.9954	
   352	-2.0105	 1.1442	-0.8665	-1.7496	 1.3340	-0.4157	-1.6538	 1.4384	-0.2154	54.0712	99.9961	
   353	-2.2404	 1.1586	-1.0819	-1.8641	 1.3614	-0.5027	-1.6422	 1.4457	-0.1965	54.6036	99.9960	
   354	-2.3946	 1.1913	-1.2035	-2.0113	 1.3809	-0.6305	-1.8409	 1.4817	-0.3591	54.3256	99.9965	
   355	-2.4887	 1.2326	-1.2563	-2.1309	 1.4296	-0.7013	-2.0112	 1.5248	-0.4864	53.9973	99.9971	
   356	-2.4732	 1.2421	-1.2312	-2.1041	 1.4462	-0.6579	-1.9501	 1.5203	-0.4298	54.1802	99.9970	
   357	-2.4441	 1.2317	-1.2125	-2.0930	 1.4163	-0.6768	-1.9515	 1.4980	-0.4534	54.1646	99.9967	
   358	-2.4819	 1.2226	-1.2595	-2.1645	 1.4090	-0.7555	-2.0320	 1.4581	-0.5738	54.1295	99.9969	
   359	-2.5411	 1.2287	-1.3125	-2.2553	 1.4020	-0.8533	-2.1671	 1.4376	-0.7296	53.9550	99.9972	
   360	-2.5993	 1.2496	-1.3498	-2.3453	 1.4078	-0.9375	-2.3009	 1.4393	-0.8616	53.7417	99.9974	
   361	-2.6963	 1.2466	-1.4498	-2.4748	 1.4015	-1.0733	-2.4078	 1.4258	-0.9820	53.6799	99.9969	
   362	-2.7845	 1.2631	-1.5215	-2.5513	 1.4155	-1.1358	-2.4958	 1.4455	-1.0503	53.5889	99.9971	
   363	-2.7885	 1.3174	-1.4712	-2.5541	 1.4750	-1.0790	-2.4706	 1.4935	-0.9771	53.6468	99.9969	
   364	-2.7633	 1.3613	-1.4021	-2.5315	 1.5256	-1.0059	-2.4293	 1.5302	-0.8991	53.7004	99.9968	
   365	-2.8206	 1.3969	-1.4238	-2.5872	 1.5648	-1.0224	-2.4987	 1.5832	-0.9155	53.5311	99.9969	
   366	-2.8235	 1.4660	-1.3577	-2.6404	 1.6422	-0.9982	-2.6298	 1.6295	-1.0003	53.1737	99.9977	
   367	-2.8730	 1.5064	-1.3668	-2.7608	 1.6782	-1.0826	-2.7957	 1.6539	-1.1417	52.8126	99.9977	
   368	-2.9216	 1.5616	-1.3601	-2.8097	 1.7215	-1.0882	-2.8664	 1.6846	-1.1817	52.7486	99.9980	
   369	-2.9565	 1.5967	-1.3599	-2.8922	 1.7442	-1.1481	-2.9718	 1.6934	-1.2784	52.5734	99.9979	
   370	-2.9769	 1.6267	-1.3503	-2.9167	 1.7658	-1.1509	-2.9975	 1.7309	-1.2665	52.4896	99.9977	
   371	-2.9294	 1.6701	-1.2594	-2.8740	 1.8288	-1.0452	-2.9272	 1.7858	-1.1414	52.5169	99.9975	
   372	-2.9198	 1.7044	-1.2154	-2.9044	 1.8591	-1.0453	-2.9811	 1.8163	-1.1649	52.3173	99.9974	
   373	-3.0003	 1.7258	-1.2746	-2.9600	 1.8983	-1.0618	-3.0119	 1.8613	-1.1506	52.3031	99.9974	
   374	-3.0197	 1.7705	-1.2493	-2.9837	 1.9327	-1.0510	-3.0426	 1.9063	-1.1363	52.2148	99.9973	
   375	-3.0760	 1.8209	-1.2552	-3.0520	 1.9763	-1.0757	-3.1082	 1.9295	-1.1787	52.1961	99.9973	
   376	-3.1643	 1.8375	-1.3269	-3.1546	 1.9865	-1.1681	-3.2085	 1.9308	-1.2778	52.1308	99.9972	
   377	-3.2215	 1.8731	-1.3485	-3.2446	 1.9923	-1.2523	-3.3482	 1.9289	-1.4193	51.9381	99.9974	
   378	-3.2264	 1.9126	-1.3139	-3.2841	 1.9802	-1.3039	-3.3932	 1.9220	-1.4712	51.9420	99.9967	
   379	-3.1877	 1.9365	-1.2513	-3.3086	 2.0019	-1.3067	-3.4376	 1.9263	-1.5113	51.7665	99.9964	
   380	-3.1421	 1.9504	-1.1918	-3.3078	 2.0146	-1.2931	-3.4478	 1.9413	-1.5065	51.6146	99.9960	
   381	-3.1169	 1.9942	-1.1228	-3.3078	 2.0146	-1.2931	-3.5154	 1.9310	-1.5844	51.5024	99.9965	
   382	-3.1674	 2.0199	-1.1476	-3.3970	 2.0331	-1.3638	-3.6144	 1.9546	-1.6598	51.2961	99.9960	
   383	-3.2421	 2.0164	-1.2257	-3.4676	 2.0386	-1.4291	-3.6748	 1.9703	-1.7046	51.2157	99.9959	
   384	-3.3468	 2.0087	-1.3382	-3.5375	 2.0567	-1.4807	-3.7230	 2.0044	-1.7186	51.1661	99.9961	
   385	-3.4195	 2.0348	-1.3849	-3.5990	 2.1045	-1.4945	-3.7558	 2.0159	-1.7398	51.2615	99.9964	
   386	-3.4923	 2.0609	-1.4315	-3.6168	 2.1303	-1.4865	-3.7742	 2.0794	-1.6948	51.2170	99.9966	
   387	-3.4603	 2.0947	-1.3657	-3.5524	 2.2312	-1.3212	-3.6620	 2.1821	-1.4799	51.2184	99.9968	
   388	-3.4497	 2.1438	-1.3060	-3.5030	 2.2983	-1.2047	-3.6368	 2.2301	-1.4067	51.2335	99.9977	
   389	-3.4779	 2.1690	-1.3090	-3.6056	 2.3086	-1.2971	-3.7757	 2.2393	-1.5364	50.9030	99.9974	
   390	-3.5933	 2.2255	-1.3679	-3.7126	 2.3529	-1.3597	-3.8618	 2.2925	-1.5692	50.8658	99.9971	
   391	-3.5536	 2.2641	-1.2896	-3.6917	 2.3780	-1.3136	-3.8604	 2.3148	-1.5456	50.8025	99.9971	
   392	-3.6400	 2.3102	-1.3298	-3.8792	 2.3727	-1.5065	-4.1004	 2.3142	-1.7862	50.3766	99.9963	
   393	-3.6817	 2.3554	-1.3264	-3.9593	 2.4335	-1.5258	-4.1458	 2.3929	-1.7529	50.1737	99.9952	
   394	-3.7331	 2.3663	-1.3669	-3.9940	 2.4978	-1.4961	-4.1483	 2.4450	-1.7033	50.1321	99.9957	
   395	-3.5605	 2.3875	-1.1731	-3.8392	 2.4952	-1.3440	-4.0575	 2.4699	-1.5876	49.9822	99.9958	
   396	-3.3598	 2.3835	-0.9764	-3.6971	 2.4971	-1.2001	-3.9629	 2.4649	-1.4980	49.8150	99.9960	
   397	-3.2240	 2.4103	-0.8138	-3.5921	 2.5250	-1.0671	-3.9005	 2.4827	-1.4178	49.7013	99.9964	
   398	-3.0979	 2.4029	-0.6951	-3.5088	 2.5151	-0.9937	-3.8581	 2.4450	-1.4132	49.6502	99.9967	
   399	-3.0310	 2.4016	-0.6296	-3.4524	 2.4887	-0.9637	-3.8434	 2.4113	-1.4321	49.6534	99.9971	
   400	-2.9224	 2.3550	-0.5674	-3.3438	 2.4699	-0.8740	-3.7342	 2.3727	-1.3615	49.7565	99.9974	
   401	-2.8796	 2.3246	-0.5551	-3.3178	 2.4737	-0.8441	-3.7001	 2.3834	-1.3166	49.6445	99.9973	
   402	-2.8942	 2.3298	-0.5645	-3.2976	 2.4861	-0.8116	-3.6775	 2.3869	-1.2907	49.7531	99.9976	
   403	-2.8398	 2.2499	-0.5900	-3.2243	 2.4211	-0.8032	-3.6532	 2.3270	-1.3262	49.6989	99.9982	
   404	-2.7447	 2.2233	-0.5215	-3.1023	 2.4105	-0.6917	-3.5252	 2.3217	-1.2036	49.8298	99.9983	
   405	-2.6943	 2.1977	-0.4967	-3.0391	 2.3882	-0.6509	-3.4597	 2.2985	-1.1612	49.9322	99.9984	
   406	-2.6661	 2.1725	-0.4938	-3.0289	 2.3456	-0.6833	-3.4566	 2.2576	-1.1990	49.9528	99.9983	
   407	-2.6894	 2.1582	-0.5313	-3.0356	 2.3414	-0.6942	-3.4662	 2.2837	-1.1825	49.8466	99.9984	
   408	-2.6565	 2.2068	-0.4498	-3.0458	 2.3841	-0.6617	-3.4481	 2.3058	-1.1423	49.8782	99.9979	
   409	-2.6623	 2.2316	-0.4309	-3.0332	 2.3796	-0.6536	-3.4720	 2.2801	-1.1919	49.9734	99.9983	
   410	-2.7177	 2.2967	-0.4210	-3.0932	 2.4529	-0.6403	-3.5123	 2.3513	-1.1610	49.8987	99.9981	
   411	-2.6401	 2.3445	-0.2958	-3.0462	 2.4818	-0.5644	-3.4710	 2.3879	-1.0831	49.8446	99.9979	
   412	-2.5451	 2.3179	-0.2272	-2.9191	 2.4499	-0.4692	-3.3669	 2.3568	-1.0101	49.9901	99.9983	
   413	-2.5498	 2.2441	-0.3058	-2.9081	 2.4200	-0.4881	-3.3232	 2.3414	-0.9818	49.9972	99.9982	
   414	-2.5111	 2.2680	-0.2432	-2.8871	 2.4451	-0.4420	-3.3109	 2.3598	-0.9511	49.9433	99.9982	
   415	-2.5324	 2.2832	-0.2493	-2.9132	 2.4413	-0.4718	-3.3546	 2.3753	-0.9794	49.8410	99.9982	
   416	-2.4849	 2.3266	-0.1585	-2.8772	 2.5002	-0.3770	-3.2785	 2.4338	-0.8448	49.8801	99.9977	
   417	-2.3191	 2.3578	 0.0385	-2.6905	 2.4928	-0.1977	-3.0915	 2.3905	-0.7010	50.3182	99.9979	
   418	-2.2065	 2.2569	 0.0503	-2.6010	 2.3766	-0.2244	-3.0422	 2.2820	-0.7603	50.3230	99.9980	
   419	-2.2521	 2.2431	-0.0091	-2.6420	 2.3390	-0.3030	-3.0951	 2.2380	-0.8571	50.3816	99.9981	
   420	-2.2472	 2.2035	-0.0438	-2.6689	 2.3225	-0.3464	-3.1060	 2.2419	-0.8642	50.2155	99.9977	
   421	-2.2395	 2.2083	-0.0312	-2.6866	 2.3483	-0.3384	-3.1060	 2.2419	-0.8642	50.2100	99.9975	
   422	-2.2104	 2.1979	-0.0126	-2.6294	 2.3346	-0.2948	-3.0391	 2.2410	-0.7981	50.3284	99.9976	
   423	-2.0843	 2.1904	 0.1061	-2.4881	 2.3237	-0.1644	-2.9156	 2.2543	-0.6613	50.3555	99.9977	
   424	-1.9495	 2.2025	 0.2529	-2.3468	 2.3128	-0.0340	-2.7992	 2.2416	-0.5575	50.4837	99.9979	
   425	-1.8535	 2.1908	 0.3372	-2.2820	 2.3160	 0.0339	-2.7258	 2.2556	-0.4702	50.4090	99.9975	
   426	-1.8495	 2.1365	 0.2868	-2.2643	 2.2902	 0.0259	-2.7053	 2.2256	-0.4797	50.4252	99.9978	
   427	-1.8108	 2.1603	 0.3495	-2.2315	 2.2981	 0.0666	-2.6712	 2.2363	-0.4349	50.4678	99.9976	
   428	-1.7885	 2.1599	 0.3713	-2.2063	 2.2892	 0.0829	-2.6538	 2.2472	-0.4066	50.4305	99.9975	
   429	-1.6828	 2.1824	 0.4995	-2.1004	 2.3299	 0.2294	-2.5077	 2.2639	-0.2438	50.6435	99.9973	
   430	-1.5703	 2.1950	 0.6246	-2.0037	 2.3282	 0.3245	-2.4575	 2.2633	-0.1942	50.5744	99.9976	
   431	-1.5421	 2.1697	 0.6275	-1.9607	 2.2935	 0.3328	-2.4210	 2.2219	-0.1991	50.7023	99.9978	
   432	-1.5353	 2.1598	 0.6243	-1.9623	 2.2681	 0.3058	-2.4281	 2.1960	-0.2322	50.7291	99.9977	
   433	-1.5237	 2.1102	 0.5865	-1.9840	 2.2302	 0.2461	-2.4578	 2.1666	-0.2912	50.5798	99.9975	
   434	-1.5110	 2.0755	 0.5644	-1.9545	 2.1872	 0.2327	-2.4277	 2.1104	-0.3173	50.7507	99.9977	
   435	-1.4383	 2.0494	 0.6110	-1.8518	 2.1770	 0.3251	-2.3164	 2.1053	-0.2112	50.8779	99.9979	
   436	-1.3141	 2.0124	 0.6982	-1.7583	 2.1244	 0.3661	-2.2478	 2.0411	-0.2067	50.9320	99.9979	
   437	-1.3121	 1.9286	 0.6164	-1.7126	 2.0302	 0.3176	-2.2197	 1.9515	-0.2682	51.1080	99.9983	
   438	-1.2781	 1.8786	 0.6005	-1.7031	 1.9748	 0.2716	-2.2013	 1.8880	-0.3132	51.1780	99.9980	
   439	-1.2800	 1.8491	 0.5690	-1.7122	 1.9324	 0.2202	-2.2425	 1.8514	-0.3911	51.1044	99.9982	
   440	-1.2945	 1.8543	 0.5597	-1.7509	 1.9331	 0.1822	-2.2767	 1.8407	-0.4360	51.0837	99.9980	
   441	-1.1762	 1.8421	 0.6658	-1.7020	 1.8898	 0.1878	-2.2241	 1.7879	-0.4361	51.1283	99.9973	
   442	-1.1112	 1.8112	 0.6999	-1.5883	 1.8496	 0.2613	-2.1206	 1.7457	-0.3749	51.3688	99.9978	
   443	-1.0927	 1.7517	 0.6589	-1.5848	 1.8028	 0.2180	-2.0809	 1.6633	-0.4176	51.5837	99.9976	
   444	-1.1926	 1.7044	 0.5118	-1.6417	 1.7188	 0.0771	-2.1205	 1.5634	-0.5570	51.9226	99.9977	
   445	-1.2255	 1.6558	 0.4302	-1.6768	 1.6727	-0.0042	-2.1733	 1.5195	-0.6539	51.8600	99.9978	
   446	-1.2177	 1.6606	 0.4427	-1.6524	 1.6510	-0.0014	-2.1296	 1.5040	-0.6256	52.0468	99.9976	
   447	-1.0956	 1.7074	 0.6117	-1.5860	 1.6796	 0.0936	-2.0440	 1.5364	-0.5076	52.0419	99.9966	
   448	-1.0714	 1.7365	 0.6650	-1.5474	 1.6790	 0.1316	-1.9925	 1.5581	-0.4344	52.1473	99.9960	
   449	-1.0617	 1.7708	 0.7090	-1.5517	 1.7130	 0.1614	-1.9686	 1.5838	-0.3848	52.1999	99.9955	
   450	-1.0627	 1.7560	 0.6933	-1.5667	 1.6793	 0.1126	-1.9931	 1.5469	-0.4462	52.2189	99.9953	
   451	-1.0568	 1.7313	 0.6744	-1.5632	 1.6325	 0.0693	-1.9907	 1.4948	-0.4959	52.3338	99.9951	
   452	-0.9986	 1.7104	 0.7117	-1.5186	 1.6232	 0.1047	-1.9252	 1.4716	-0.4535	52.4295	99.9949	
   453	-0.8890	 1.6786	 0.7896	-1.3856	 1.5828	 0.1972	-1.8204	 1.4517	-0.3687	52.4866	99.9952	
   454	-0.8686	 1.6487	 0.7800	-1.3931	 1.5659	 0.1728	-1.8224	 1.4182	-0.4041	52.4725	99.9952	
   455	-0.8346	 1.5987	 0.7640	-1.3955	 1.5277	 0.1322	-1.8411	 1.3850	-0.4561	52.3195	99.9950	
   456	-0.8152	 1.5540	 0.7387	-1.3659	 1.4847	 0.1188	-1.7885	 1.3323	-0.4563	52.5062	99.9949	
   457	-0.7880	 1.5140	 0.7259	-1.3051	 1.4242	 0.1191	-1.7642	 1.2724	-0.4918	52.6262	99.9957	
   458	-0.7976	 1.4797	 0.6820	-1.3142	 1.3819	 0.0676	-1.7765	 1.2540	-0.5225	52.5831	99.9953	
   459	-0.7016	 1.4679	 0.7662	-1.2108	 1.3844	 0.1736	-1.6594	 1.2525	-0.4069	52.6972	99.9954	
   460	-0.6065	 1.4414	 0.8347	-1.1157	 1.3573	 0.2416	-1.5611	 1.2178	-0.3434	52.8355	99.9954	
   461	-0.5784	 1.4162	 0.8377	-1.0735	 1.3098	 0.2364	-1.5310	 1.1616	-0.3695	52.9986	99.9957	
   462	-0.5958	 1.3771	 0.7812	-1.1449	 1.3025	 0.1576	-1.5928	 1.1549	-0.4379	52.7649	99.9952	
   463	-0.6055	 1.3428	 0.7372	-1.1414	 1.2557	 0.1143	-1.5679	 1.1063	-0.4616	52.9464	99.9949	
   464	-0.6210	 1.3332	 0.7122	-1.1489	 1.2388	 0.0900	-1.5743	 1.0915	-0.4829	52.9896	99.9948	
   465	-0.5909	 1.3376	 0.7465	-1.0849	 1.2293	 0.1443	-1.4573	 1.0900	-0.3673	53.2968	99.9940	
   466	-0.5085	 1.3458	 0.8372	-1.0009	 1.2321	 0.2312	-1.3825	 1.1262	-0.2563	53.2286	99.9934	
   467	-0.4493	 1.3397	 0.8902	-0.9630	 1.2187	 0.2557	-1.3402	 1.0885	-0.2517	53.3441	99.9933	
   468	-0.4289	 1.3097	 0.8807	-0.9519	 1.1888	 0.2369	-1.3248	 1.0659	-0.2589	53.3441	99.9929	
   469	-0.4299	 1.2949	 0.8649	-0.9729	 1.1636	 0.1908	-1.3262	 1.0436	-0.2825	53.3827	99.9919	
   470	-0.4425	 1.3297	 0.8870	-0.9839	 1.1936	 0.2097	-1.2784	 1.0951	-0.1833	53.4647	99.9899	
   471	-0.4047	 1.3388	 0.9340	-0.9630	 1.2187	 0.2557	-1.2334	 1.1020	-0.1314	53.5162	99.9897	
   472	-0.3000	 1.3465	 1.0465	-0.7889	 1.2158	 0.4269	-0.9934	 1.1026	 0.1092	54.0227	99.9891	
   473	-0.2291	 1.2909	 1.0617	-0.6081	 1.2170	 0.6089	-0.7476	 1.1069	 0.3592	54.4276	99.9906	
   474	-0.0942	 1.1897	 1.0953	-0.3614	 1.1363	 0.7749	-0.4970	 1.0069	 0.5099	54.9516	99.9932	
   475	-0.0960	 1.0468	 0.9506	-0.2549	 0.9816	 0.7266	-0.2478	 0.8847	 0.6369	55.7237	99.9910	
   476	-0.1987	 0.9552	 0.7563	-0.2411	 0.8921	 0.6510	-0.0846	 0.8156	 0.7311	56.3990	99.9891	
   477	-0.1812	 0.8809	 0.6996	-0.1626	 0.8058	 0.6432	 0.0728	 0.7429	 0.8158	56.8595	99.9876	
   478	-0.1472	 0.8309	 0.6836	-0.0801	 0.7832	 0.7030	 0.1776	 0.7230	 0.9006	57.0149	99.9886	
   479	-0.0415	 0.8535	 0.8118	 0.0592	 0.8445	 0.9038	 0.3592	 0.7727	 1.1319	57.1808	99.9892	
   480	 0.2464	 0.9315	 1.1778	 0.4284	 1.0720	 1.5004	 0.8355	 1.0827	 1.9182	57.0074	99.9889	
   481	 0.5982	 1.1906	 1.7887	 0.9241	 1.4630	 2.3871	 1.4721	 1.4614	 2.9334	57.3724	99.9906	
   482	 0.7152	 1.5037	 2.2188	 1.1694	 1.7733	 2.9426	 1.7941	 1.8031	 3.5972	57.6261	99.9904	
   483	 0.7840	 1.6452	 2.4291	 1.1935	 1.8493	 3.0428	 1.7439	 1.8037	 3.5476	57.7276	99.9917	
   484	 0.4078	 1.4704	 1.8781	 0.8081	 1.6732	 2.4813	 1.3645	 1.6189	 2.9834	57.6470	99.9917	
   485	 0.1055	 1.2842	 1.3896	 0.4168	 1.5056	 1.9224	 0.8905	 1.4391	 2.3296	57.1239	99.9925	
   486	-0.1786	 1.1519	 0.9732	 0.0954	 1.3198	 1.4152	 0.4179	 1.2815	 1.6994	56.6207	99.9938	
   487	-0.3066	 1.1298	 0.8232	-0.0250	 1.3558	 1.3309	 0.4328	 1.3446	 1.7774	56.6406	99.9916	
   488	-0.3570	 1.1555	 0.7984	 0.1085	 1.4258	 1.5343	 0.6372	 1.4944	 2.1316	56.8369	99.9923	
   489	-0.4947	 1.0991	 0.6043	 0.2594	 1.5677	 1.8271	 0.9189	 1.7251	 2.6441	56.9157	99.9950	
   490	-0.7257	 1.3255	 0.5997	 0.1778	 1.8113	 1.9891	 1.1000	 2.0426	 3.1426	57.3310	99.9913	
   491	-0.6399	 1.8462	 1.2062	 0.4395	 2.4867	 2.9261	 1.8773	 2.8100	 4.6873	57.8810	99.9824	
   492	 1.1220	 3.0726	 4.1945	 2.2117	 3.5784	 5.7901	 3.5694	 3.5729	 7.1423	59.3288	99.9890	
   493	 1.7280	 3.2330	 4.9609	 2.6025	 3.6355	 6.2381	 3.7449	 3.5223	 7.2672	59.2363	99.9902	
   494	 1.4235	 3.1307	 4.5541	 2.2373	 3.4718	 5.7091	 3.3302	 3.4012	 6.7314	58.9257	99.9890	
   495	 1.3701	 3.2254	 4.5954	 2.2808	 3.5475	 5.8283	 3.3555	 3.4492	 6.8047	59.1599	99.9912	
   496	 1.3556	 3.2306	 4.5860	 2.1975	 3.5574	 5.7549	 3.2687	 3.4913	 6.7600	58.8517	99.9897	
   497	 1.2799	 3.2124	 4.4922	 2.0608	 3.4365	 5.4973	 2.9692	 3.3352	 6.3044	58.7274	99.9914	
   498	 0.9948	 3.1786	 4.1734	 1.7865	 3.4879	 5.2744	 2.7930	 3.3747	 6.1677	58.5994	99.9908	
   499	 0.7951	 3.1974	 3.9924	 1.6191	 3.4950	 5.1141	 2.6489	 3.3914	 6.0403	58.6016	99.9907	
   500	 0.9889	 3.3168	 4.3056	 1.7096	 3.5996	 5.3092	 2.6742	 3.4394	 6.1136	58.4493	99.9909	
   501	 0.9530	 3.3372	 4.2901	 1.6188	 3.5927	 5.2115	 2.5499	 3.4150	 5.9649	58.3400	99.9907	
   502	 0.6737	 3.2787	 3.9523	 1.3440	 3.5336	 4.8776	 2.2591	 3.4039	 5.6630	58.0215	99.9905	
   503	 0.5127	 3.3213	 3.8340	 1.2051	 3.5827	 4.7878	 2.1164	 3.4429	 5.5593	57.9411	99.9912	
   504	 0.2189	 3.2681	 3.4869	 0.9110	 3.5239	 4.4349	 1.7908	 3.4099	 5.2007	57.6463	99.9914	
   505	-0.0981	 3.2005	 3.1022	 0.5908	 3.4613	 4.0521	 1.4960	 3.3319	 4.8278	57.5854	99.9912	
   506	-0.2998	 3.1897	 2.8898	 0.4293	 3.4598	 3.8891	 1.3533	 3.3709	 4.7242	57.4462	99.9911	
   507	-0.3426	 3.2202	 2.8775	 0.4005	 3.5155	 3.9161	 1.3502	 3.4119	 4.7620	57.4591	99.9913	
   508	-0.3000	 3.3031	 3.0030	 0.4724	 3.6333	 4.1057	 1.4200	 3.5523	 4.9723	57.2984	99.9918	
   509	-0.2409	 3.4103	 3.1693	 0.5479	 3.7042	 4.2521	 1.3848	 3.6160	 5.0008	57.1558	99.9938	
   510	-0.4727	 3.3952	 2.9225	 0.2945	 3.7808	 4.0753	 1.2964	 3.7212	 5.0176	56.9828	99.9910	
   511	-0.2595	 3.5832	 3.3236	 0.4749	 3.8797	 4.3546	 1.3185	 3.8102	 5.1287	56.8118	99.9927	
   512	-0.1094	 3.8315	 3.7220	 0.6824	 4.2033	 4.8857	 1.6524	 4.0737	 5.7262	57.1278	99.9926	
   513	 0.4800	 4.0810	 4.5608	 1.0906	 4.3324	 5.4230	 1.9214	 4.0926	 6.0140	57.2616	99.9926	
   514	-0.1112	 3.6887	 3.5773	 0.3320	 3.8651	 4.1971	 1.0285	 3.6280	 4.6565	56.6516	99.9921	
   515	-1.3200	 3.0721	 1.7521	-0.8218	 3.1665	 2.3447	-0.1476	 2.9104	 2.7629	56.7715	99.9931	
   516	-2.2799	 1.9282	-0.3518	-2.0785	 2.0618	-0.0166	-1.8456	 1.8649	 0.0193	54.6810	99.9962	
   517	-1.9152	 1.8125	-0.1028	-2.0940	 1.9176	-0.1763	-2.0564	 1.7002	-0.3562	53.5512	99.9948	
   518	-1.7115	 1.8528	 0.1411	-2.1366	 1.8546	-0.2820	-2.2226	 1.6280	-0.5946	52.9667	99.9926	
   519	-1.5283	 1.9231	 0.3946	-1.9851	 1.8011	-0.1840	-2.2054	 1.5422	-0.6632	53.1071	99.9937	
   520	-1.8782	 1.6935	-0.1848	-2.4945	 1.4995	-0.9949	-2.6485	 1.1351	-1.5135	53.4011	99.9906	
   521	-2.4385	 1.4336	-1.0050	-3.2498	 1.0831	-2.1667	-3.6128	 0.6900	-2.9228	52.6027	99.9901	
   522	-3.1171	 1.1860	-1.9312	-3.9132	 0.7969	-3.1162	-4.2686	 0.3637	-3.9049	52.6419	99.9907	
   523	-3.3837	 1.0927	-2.2911	-4.2081	 0.7254	-3.4826	-4.7358	 0.2953	-4.4405	51.7473	99.9944	
   524	-3.2493	 1.4449	-1.8045	-4.0116	 1.2872	-2.7244	-4.3026	 1.0931	-3.2094	50.8424	99.9883	
   525	-1.9311	 2.2564	 0.3252	-2.2902	 2.4945	 0.2043	-2.1465	 2.6089	 0.4624	51.3111	99.9845	
   526	-1.1891	 3.1385	 1.9493	-0.9424	 3.5085	 2.5661	-0.7638	 3.6065	 2.8426	52.6210	99.9963	
   527	-0.8410	 3.2252	 2.3841	-0.6750	 3.7589	 3.0839	-0.3619	 3.7947	 3.4328	52.6176	99.9951	
   528	-0.6731	 3.0592	 2.3860	-0.3361	 3.5025	 3.1664	 0.0653	 3.5697	 3.6350	53.7874	99.9948	
   529	-0.3421	 2.7667	 2.4245	-0.1108	 3.2862	 3.1755	 0.2470	 3.4372	 3.6842	53.3156	99.9939	
   530	-0.3363	 2.7420	 2.4056	-0.0855	 3.2773	 3.1918	 0.2726	 3.3997	 3.6723	53.4365	99.9946	
   531	-0.3664	 2.8510	 2.4845	 0.0025	 3.3438	 3.3464	 0.2833	 3.2991	 3.5824	54.1365	99.9969	
   532	-0.3636	 2.8953	 2.5316	-0.0748	 3.3451	 3.2703	 0.1778	 3.3079	 3.4857	53.9228	99.9967	
   533	-0.2609	 2.9869	 2.7259	 0.0772	 3.4020	 3.4792	 0.3669	 3.2981	 3.6650	54.4992	99.9967	
   534	-0.1930	 3.0003	 2.8072	 0.0898	 3.3976	 3.4874	 0.4184	 3.3197	 3.7381	54.4635	99.9959	
   535	 0.0010	 3.0063	 3.0072	 0.3168	 3.4150	 3.7318	 0.6604	 3.3538	 4.0142	54.6315	99.9959	
   536	 0.0059	 2.9668	 2.9725	 0.3227	 3.4064	 3.7291	 0.7676	 3.2817	 4.0494	55.0534	99.9950	
   537	 0.0263	 2.9368	 2.9630	 0.2965	 3.1944	 3.4909	 0.5367	 3.0616	 3.5983	55.0518	99.9965	
   538	-0.0144	 2.8834	 2.8689	 0.2101	 3.1534	 3.3634	 0.5688	 3.0388	 3.6076	55.1619	99.9944	
   539	 0.0680	 2.8916	 2.9595	 0.3269	 3.1641	 3.4911	 0.7040	 3.0594	 3.7634	55.3142	99.9945	
   540	 0.1408	 2.8655	 3.0062	 0.4110	 3.1670	 3.5780	 0.7876	 3.0583	 3.8459	55.3310	99.9948	
   541	 0.2697	 2.9024	 3.1720	 0.6025	 3.2360	 3.8385	 0.9975	 3.1151	 4.1126	55.5409	99.9954	
   542	 0.3385	 2.9306	 3.2690	 0.7209	 3.2722	 3.9931	 1.1295	 3.1767	 4.3062	55.6223	99.9956	
   543	 0.3676	 2.9201	 3.2877	 0.7470	 3.2760	 4.0230	 1.1514	 3.1689	 4.3203	55.6223	99.9957	
   544	 0.4035	 2.8997	 3.3031	 0.8102	 3.2537	 4.0638	 1.1841	 3.1574	 4.3415	55.6255	99.9963	
   545	 0.4016	 2.8702	 3.2717	 0.7919	 3.1690	 3.9610	 1.1754	 3.0124	 4.1878	56.0196	99.9960	
   546	 0.4027	 2.7716	 3.1742	 0.7520	 3.0465	 3.7985	 1.0683	 2.9022	 3.9705	55.8515	99.9963	
   547	 0.4144	 2.7221	 3.1363	 0.7429	 3.0041	 3.7471	 1.0649	 2.8465	 3.9114	55.8813	99.9962	
   548	 0.4270	 2.6873	 3.1142	 0.7709	 2.9357	 3.7066	 1.0718	 2.7757	 3.8475	56.0260	99.9964	
   549	 0.4387	 2.6378	 3.0764	 0.7586	 2.8424	 3.6010	 1.0104	 2.6835	 3.6939	56.0245	99.9966	
   550	 0.4358	 2.5935	 3.0292	 0.7495	 2.8001	 3.5496	 1.0476	 2.6533	 3.7009	56.1192	99.9960	
   551	 0.4863	 2.5678	 3.0540	 0.8119	 2.7650	 3.5769	 1.0630	 2.6308	 3.6938	56.0703	99.9966	
   552	 0.5678	 2.5613	 3.1290	 0.8908	 2.7892	 3.6800	 1.0773	 2.6827	 3.7600	55.7510	99.9972	
   553	 0.5260	 2.6065	 3.1324	 0.9643	 2.9324	 3.8968	 1.2038	 2.8372	 4.0411	55.7659	99.9976	
   554	 0.5813	 2.6547	 3.2358	 1.0398	 3.0034	 4.0431	 1.2799	 2.8958	 4.1757	55.7851	99.9976	
   555	 0.4716	 2.6864	 3.1579	 0.8882	 3.0569	 3.9451	 1.0846	 2.9875	 4.0721	55.2504	99.9977	
   556	 0.2505	 2.7204	 2.9708	 0.6048	 3.0660	 3.6707	 0.6832	 2.9927	 3.6759	54.6741	99.9981	
   557	 0.1651	 2.7812	 2.9462	 0.5255	 3.1395	 3.6650	 0.7350	 3.1111	 3.8461	54.7455	99.9974	
   558	 0.4443	 2.8397	 3.2840	 0.9719	 3.1575	 4.1294	 1.2303	 3.0898	 4.3201	55.7423	99.9979	
   559	 1.0892	 2.9106	 3.9997	 1.6758	 3.1626	 4.8384	 2.0331	 3.0795	 5.1125	56.8105	99.9974	
   560	 1.3928	 2.8849	 4.2775	 1.9213	 3.1669	 5.0883	 2.3215	 3.1427	 5.4642	56.6964	99.9962	
   561	 1.5121	 2.7740	 4.2861	 2.0117	 3.0634	 5.0751	 2.3820	 2.9448	 5.3268	57.0062	99.9967	
   562	 1.3590	 2.7081	 4.0670	 1.8352	 3.0282	 4.8634	 2.1916	 2.9324	 5.1239	56.6805	99.9967	
   563	 1.3444	 2.7133	 4.0577	 1.7823	 3.0078	 4.7901	 2.1431	 2.8698	 5.0129	56.8066	99.9965	
   564	 1.5937	 2.6541	 4.2478	 1.9065	 2.8273	 4.7338	 1.9863	 2.6747	 4.6609	56.4138	99.9979	
   565	 1.8676	 2.2840	 4.1514	 1.9853	 2.4351	 4.4203	 2.2467	 2.1841	 4.4308	57.2907	99.9946	
   566	 2.2252	 2.5183	 4.7434	 2.2728	 2.6979	 4.9707	 2.4311	 2.5574	 4.9885	56.3986	99.9945	
   567	 2.1414	 2.9488	 5.0900	 2.1203	 3.2528	 5.3731	 2.1460	 3.1933	 5.3393	54.7386	99.9958	
   568	 1.6769	 2.9038	 4.5806	 1.9652	 3.3531	 5.3184	 2.5770	 2.7563	 5.3334	58.1666	99.9893	
   569	 1.3218	 2.0189	 3.3406	 1.7514	 1.9971	 3.7485	 1.6616	 1.8271	 3.4887	57.3562	99.9993	
   570	 1.6166	 2.0869	 3.7034	 2.0085	 2.2902	 4.2987	 2.3598	 2.1157	 4.4754	57.7980	99.9960	
   571	 1.4574	 1.2375	 2.6948	 2.2658	 1.3469	 3.6126	 2.2447	 1.6894	 3.9341	57.0669	99.9977	
   572	 1.2863	 1.6993	 2.9854	 2.5680	 2.4634	 5.0314	 4.1217	 2.5579	 6.6796	60.2485	99.9894	
   573	 1.8431	 1.5600	 3.4030	 2.5417	 2.0433	 4.5849	 3.3626	 2.0916	 5.4542	58.6437	99.9924	
   574	 1.9819	 1.4044	 3.3862	 2.0417	 1.6863	 3.7280	 2.4351	 1.2407	 3.6758	58.5327	99.9926	
   575	 1.6523	 1.2582	 2.9105	 1.9021	 1.2085	 3.1107	 2.0390	 1.0561	 3.0951	58.3954	99.9954	
   576	 1.8422	 1.4319	 3.2740	 2.0451	 1.4313	 3.4765	 2.2730	 1.2353	 3.5083	58.4715	99.9944	
   577	 1.2978	 0.8415	 2.1392	 1.5914	 1.0906	 2.6820	 1.8368	 1.2186	 3.0554	56.8898	99.9934	
   578	 0.5038	 0.5370	 1.0407	 1.0999	 0.9714	 2.0713	 1.4566	 1.2049	 2.6615	56.7032	99.9962	
   579	 0.8623	 0.8995	 1.7617	 1.3014	 1.3037	 2.6050	 1.5260	 1.4309	 2.9569	56.3473	99.9971	
   580	 1.4808	 1.1385	 2.6191	 1.6077	 1.2475	 2.8552	 1.6447	 1.0872	 2.7319	57.2518	99.9968	
   581	 1.2948	 0.9106	 2.2052	 1.4307	 1.1018	 2.5325	 1.5792	 1.1104	 2.6895	56.7617	99.9942	
   582	 0.9868	 0.5224	 1.5091	 1.6968	 1.0208	 2.7176	 2.5413	 1.2430	 3.7843	58.3950	99.9896	
   583	 0.9413	 0.3952	 1.3364	 1.7910	 0.7728	 2.5638	 2.5951	 0.9336	 3.5287	59.3274	99.9922	
   584	 0.7619	 0.3840	 1.1458	 1.4294	 0.7704	 2.1998	 2.1230	 0.9695	 3.0925	58.3316	99.9910	
   585	 0.6610	 0.4353	 1.0962	 1.1976	 0.6766	 1.8742	 1.7307	 0.7551	 2.4857	58.3866	99.9924	
   586	 0.6571	 0.4896	 1.1466	 1.0567	 0.7979	 1.8547	 1.3202	 0.9798	 2.3000	56.6868	99.9946	
   587	 1.0746	 0.9593	 2.0338	 0.8895	 1.0132	 1.9027	 0.4980	 0.9458	 1.4437	54.9117	99.9981	
   588	 0.1631	 0.7952	 0.9582	-0.2593	 0.8074	 0.5481	-0.6669	 0.7822	 0.1154	53.6186	99.9951	
   589	 0.9154	 1.1448	 2.0601	 1.1636	 1.2678	 2.4313	 1.4327	 1.1792	 2.6119	57.5035	99.9944	
   590	 1.5571	 1.3981	 2.9552	 1.7921	 1.4101	 3.2022	 1.9597	 1.2208	 3.1804	58.1649	99.9958	
   591	 1.8027	 1.1665	 2.9692	 1.9490	 1.0293	 2.9783	 1.9133	 0.7304	 2.6437	58.6798	99.9974	
   592	 1.2642	 0.4380	 1.7022	 1.1552	 0.3077	 1.4628	 1.0304	 0.1541	 1.1845	57.4533	99.9943	
   593	 0.8116	 0.1169	 0.9284	 0.8945	 0.0614	 0.9559	 0.9380	 0.0103	 0.9482	57.7649	99.9932	
   594	 0.8998	 0.2137	 1.1134	 0.9798	 0.1874	 1.1672	 1.0328	 0.1020	 1.1348	57.7784	99.9940	
   595	 0.7923	 0.0483	 0.8405	 0.9569	 0.0263	 0.9832	 1.0762	-0.0101	 1.0661	58.0657	99.9932	
   596	 0.7855	 0.0583	 0.8437	 0.9020	 0.0783	 0.9803	 1.0004	 0.0280	 1.0285	57.7643	99.9938	
   597	 0.7692	-0.0794	 0.6897	 0.9532	-0.1351	 0.8182	 1.1504	-0.1673	 0.9831	58.5288	99.9911	
   598	 0.7508	-0.1332	 0.6174	 0.9903	-0.1612	 0.8291	 1.2159	-0.1905	 1.0255	58.6770	99.9919	
   599	 0.8226	-0.1741	 0.6484	 1.0460	-0.2004	 0.8456	 1.2969	-0.2361	 1.0607	58.8033	99.9912	
   600	 0.8139	-0.1936	 0.6201	 1.0250	-0.2255	 0.7995	 1.2453	-0.2578	 0.9876	58.7082	99.9915	
   601	 0.8061	-0.1984	 0.6076	 1.0116	-0.2338	 0.7778	 1.2402	-0.2503	 0.9900	58.6699	99.9907	
   602	 0.7906	-0.2080	 0.5826	 1.0234	-0.2510	 0.7725	 1.2826	-0.2880	 0.9946	58.9227	99.9909	
   603	 0.8023	-0.2575	 0.5447	 1.0084	-0.2847	 0.7237	 1.2471	-0.3210	 0.9261	58.7894	99.9912	
   604	 0.7790	-0.2718	 0.5071	 1.0412	-0.2768	 0.7644	 1.2799	-0.3326	 0.9473	58.9250	99.9929	
   605	 0.7499	-0.2614	 0.4885	 0.9638	-0.2754	 0.6884	 1.1713	-0.2829	 0.8884	58.5433	99.9916	
   606	 0.7946	-0.2622	 0.5322	 0.9579	-0.2668	 0.6910	 1.1822	-0.2867	 0.8955	58.4954	99.9908	
   607	 0.7335	-0.2857	 0.4477	 0.9152	-0.3299	 0.5854	 1.1151	-0.3826	 0.7325	58.7182	99.9917	
   608	 0.6928	-0.3391	 0.3536	 0.9136	-0.3553	 0.5583	 1.1260	-0.3864	 0.7396	58.6964	99.9921	
   609	 0.7354	-0.2561	 0.4791	 0.9141	-0.2449	 0.6692	 1.0607	-0.2666	 0.7941	58.2313	99.9931	
   610	 0.7353	-0.1428	 0.5924	 0.8616	-0.1547	 0.7069	 0.8835	-0.1527	 0.7308	57.6500	99.9939	
   611	 0.7624	-0.0694	 0.6929	 0.7579	-0.0595	 0.6983	 0.6650	-0.0755	 0.5895	56.9139	99.9948	
   612	 0.7671	 0.0044	 0.7715	 0.7299	 0.0089	 0.7388	 0.6072	-0.0152	 0.5920	56.7271	99.9950	
   613	 0.7671	 0.0044	 0.7715	 0.7164	 0.0007	 0.7171	 0.6117	-0.0339	 0.5778	56.8069	99.9945	
   614	 0.7701	-0.0646	 0.7054	 0.7555	-0.0977	 0.6577	 0.7671	-0.1400	 0.6270	57.4271	99.9925	
   615	 0.7749	 0.0092	 0.7840	 0.8056	-0.0178	 0.7878	 0.8920	-0.1045	 0.7875	57.8336	99.9927	
   616	 1.0133	 0.1276	 1.1409	 1.0793	 0.1262	 1.2055	 1.1472	 0.0559	 1.2031	57.7918	99.9936	
   617	 1.2265	 0.3156	 1.5420	 1.3107	 0.3178	 1.6285	 1.3071	 0.2101	 1.5172	57.7536	99.9957	
   618	 1.2730	 0.3442	 1.6172	 1.4015	 0.3247	 1.7263	 1.4614	 0.1783	 1.6398	58.2696	99.9955	
   619	 1.2615	 0.2804	 1.5418	 1.4722	 0.3193	 1.7915	 1.5379	 0.1513	 1.6892	58.4214	99.9970	
   620	 1.4039	 0.4106	 1.8144	 1.6389	 0.5077	 2.1465	 1.7579	 0.3753	 2.1332	58.2783	99.9966	
   621	 1.6753	 0.5777	 2.2529	 1.9643	 0.7571	 2.7214	 2.2017	 0.7936	 2.9953	57.8925	99.9940	
   622	 1.8428	 0.8651	 2.7078	 2.3083	 1.2017	 3.5100	 2.5573	 1.2316	 3.7890	57.7353	99.9972	
   623	 1.5653	 0.9495	 2.5147	 2.1126	 1.3749	 3.4876	 2.4199	 1.5421	 3.9620	57.0751	99.9968	
   624	 1.2189	 1.1191	 2.3379	 1.7376	 1.3643	 3.1019	 1.8275	 1.3415	 3.1690	57.3208	99.9988	
   625	 0.6575	 1.0711	 1.7285	 0.7628	 1.1556	 1.9184	 0.7017	 1.0845	 1.7861	56.1732	99.9971	
   626	-0.2066	 1.0638	 0.8570	 0.1218	 1.2259	 1.3477	 0.1886	 1.1803	 1.3689	56.1719	99.9980	
   627	 0.1530	 1.2143	 1.3672	 0.5348	 1.4313	 1.9662	 0.8454	 1.4322	 2.2777	56.7497	99.9953	
   628	 1.0258	 1.2412	 2.2669	 1.3290	 1.3329	 2.6620	 1.5068	 1.2043	 2.7110	57.6499	99.9965	
   629	 1.1984	 1.2624	 2.4607	 1.5987	 1.4134	 3.0120	 1.8589	 1.3076	 3.1665	57.9371	99.9966	
   630	 1.3158	 1.2354	 2.5511	 1.6578	 1.3274	 2.9852	 1.8419	 1.2111	 3.0530	57.9284	99.9967	
   631	 1.4409	 1.2132	 2.6540	 1.8430	 1.2945	 3.1375	 2.0372	 1.1193	 3.1566	58.4603	99.9974	
   632	 1.6157	 1.0372	 2.6528	 1.9412	 1.1102	 3.0513	 1.9995	 0.9562	 2.9556	58.1248	99.9979	
   633	 1.6370	 1.0220	 2.6589	 1.9814	 1.1350	 3.1164	 2.1056	 0.9585	 3.0641	58.3144	99.9976	
   634	 1.6381	 0.9234	 2.5614	 1.9920	 0.9946	 2.9866	 2.0099	 0.7589	 2.7688	58.5014	99.9983	
   635	 1.5742	 0.8557	 2.4297	 1.9095	 1.0172	 2.9267	 2.0012	 0.8929	 2.8941	57.9503	99.9978	
   636	 1.6670	 1.1397	 2.8066	 2.1035	 1.3326	 3.4361	 2.3259	 1.2793	 3.6052	58.0244	99.9971	
   637	 1.7842	 1.2260	 3.0102	 2.2437	 1.4067	 3.6504	 2.4648	 1.2700	 3.7349	58.4177	99.9976	
   638	 1.8007	 1.2504	 3.0510	 2.2504	 1.4109	 3.6613	 2.4457	 1.3224	 3.7680	58.2186	99.9975	
   639	 1.8521	 1.2395	 3.0915	 2.2472	 1.3599	 3.6071	 2.3631	 1.2490	 3.6121	58.1300	99.9978	
   640	 1.8977	 1.2533	 3.1509	 2.3009	 1.3930	 3.6939	 2.4068	 1.2336	 3.6404	58.2464	99.9981	
   641	 1.8212	 1.1070	 2.9281	 2.0415	 1.2699	 3.3114	 1.8290	 1.1815	 3.0105	56.6499	99.9990	
   642	 1.1900	 1.0161	 2.2060	 1.3527	 1.2986	 2.6512	 1.0291	 1.3332	 2.3623	54.9646	99.9993	
   643	 0.8981	 0.9924	 1.8904	 1.0120	 1.3213	 2.3333	 0.8021	 1.3621	 2.1643	54.7731	99.9988	
   644	 0.8321	 1.0085	 1.8405	 0.9658	 1.3051	 2.2709	 0.6656	 1.3192	 1.9849	54.7181	99.9991	
   645	 0.7883	 1.1375	 1.9258	 0.8517	 1.2348	 2.0865	 0.2931	 1.0637	 1.3568	54.9950	99.9983	
   646	 0.8505	 1.0624	 1.9127	 0.8639	 1.1199	 1.9838	 0.1782	 0.9164	 1.0946	54.8526	99.9975	
   647	 0.7884	 1.0242	 1.8125	 0.7498	 1.0496	 1.7993	-0.0094	 0.7663	 0.7569	54.8772	99.9960	
   648	 0.7071	 0.9174	 1.6244	 0.6545	 0.8685	 1.5230	-0.1971	 0.6163	 0.4192	54.7542	99.9967	
   649	 0.4928	 0.8280	 1.3208	 0.5298	 0.9386	 1.4684	 0.0499	 0.8251	 0.8750	54.9422	99.9992	
   650	 0.5122	 0.8966	 1.4087	 0.7450	 0.9732	 1.7182	 0.3199	 0.7695	 1.0895	56.0580	99.9980	
   651	 1.1308	 1.0223	 2.1529	 1.2826	 0.9003	 2.1829	 0.8734	 0.6025	 1.4758	57.2696	99.9991	
   652	 1.2928	 0.9944	 2.2870	 1.4097	 0.8685	 2.2782	 1.2877	 0.6269	 1.9146	57.9159	99.9979	
   653	 1.4392	 0.9570	 2.3961	 1.5996	 0.9120	 2.5116	 1.6597	 0.6890	 2.3487	58.3021	99.9964	
   654	 1.5915	 1.0081	 2.5995	 1.7398	 0.9861	 2.7259	 1.8259	 0.7613	 2.5872	58.3244	99.9961	
   655	 1.5760	 0.9986	 2.5744	 1.7484	 0.9180	 2.6664	 1.7025	 0.5657	 2.2682	58.7016	99.9979	
   656	 0.8470	 0.6632	 1.5101	 0.6824	 0.5918	 1.2742	 0.1117	 0.3705	 0.4822	55.5525	99.9993	
   657	 0.0993	 0.6141	 0.7133	 0.0647	 0.7255	 0.7902	-0.4193	 0.7233	 0.3039	54.2125	99.9995	
   658	-0.1450	 0.5204	 0.3753	-0.0584	 0.8210	 0.7626	-0.1458	 1.0024	 0.8566	54.2925	99.9965	
   659	 0.1556	 0.5637	 0.7192	 0.4963	 0.9179	 1.4141	 0.6818	 1.1256	 1.8075	55.6624	99.9954	
   660	 0.1253	 0.7861	 0.9113	 0.5497	 1.2569	 1.8066	 0.8543	 1.3949	 2.2493	55.8452	99.9965	
   661	 0.1717	 0.9281	 1.0997	 0.6516	 1.2339	 1.8855	 0.9421	 1.2785	 2.2206	56.7540	99.9969	
   662	 0.1448	 0.7413	 0.8860	 0.4911	 0.9392	 1.4304	 0.7328	 0.9539	 1.6867	56.8817	99.9956	
   663	 0.1709	 0.7999	 0.9707	 0.5381	 0.9682	 1.5063	 0.5850	 1.0004	 1.5854	56.4205	99.9979	
   664	 0.3727	 0.6973	 1.0700	 0.0177	 0.6965	 0.7142	-0.3944	 0.6746	 0.2802	54.0880	99.9958	
   665	-0.4029	 0.4467	 0.0437	-0.5750	 0.4049	-0.1701	-0.9323	 0.1757	-0.7566	55.3281	99.9985	
   666	-0.3241	 0.1692	-0.1550	-0.4489	-0.0561	-0.5050	-0.8708	-0.3756	-1.2464	56.6045	99.9990	
   667	-0.3742	-0.1453	-0.5195	-0.5900	-0.3512	-0.9411	-0.6611	-0.5977	-1.2588	57.2594	99.9927	
   668	-0.2686	-0.0094	-0.2781	-0.3704	-0.1424	-0.5128	-0.5343	-0.3464	-0.8807	56.8460	99.9962	
   669	 0.0086	 0.1329	 0.1415	-0.0103	 0.0427	 0.0324	-0.0873	-0.1513	-0.2386	57.2082	99.9961	
   670	 0.0640	 0.0678	 0.1316	 0.0976	 0.2193	 0.3169	 0.0796	 0.3932	 0.4728	55.4252	99.9925	
   671	-0.6357	 0.5302	-0.1056	-0.9318	 0.4789	-0.4529	-1.5000	 0.2909	-1.2092	53.9564	99.9991	
   672	-1.0440	 0.5482	-0.4959	-1.3250	 0.3836	-0.9414	-1.5603	 0.1243	-1.4360	55.3538	99.9958	
   673	-0.6250	 0.4659	-0.1591	-0.8996	 0.1682	-0.7314	-1.3181	-0.2062	-1.5242	56.1536	99.9982	
   674	-0.6230	 0.3821	-0.2409	-1.0374	 0.1323	-0.9051	-1.5116	-0.1776	-1.6893	55.2214	99.9974	
   675	-0.7346	 0.4977	-0.2370	-1.2962	 0.3278	-0.9684	-1.9146	 0.1697	-1.7449	53.2633	99.9969	
   676	-0.8748	 1.0919	 0.2170	-1.2981	 1.3306	 0.0325	-1.6317	 1.5274	-0.1043	51.1827	99.9930	
   677	-0.2667	 1.9767	 1.7099	-0.4035	 2.1143	 1.7107	-0.5924	 2.1054	 1.5130	53.2632	99.9964	
   678	-0.1444	 1.9102	 1.7657	-0.4151	 1.8255	 1.4104	-0.8056	 1.5316	 0.7260	54.2292	99.9982	
   679	-0.8207	 1.2387	 0.4179	-1.4463	 0.9210	-0.5253	-2.1887	 0.6196	-1.5691	53.0188	99.9982	
   680	-1.0745	 0.9973	-0.0773	-1.6347	 0.6947	-0.9400	-2.1155	 0.3546	-1.7609	54.1495	99.9959	
   681	-1.0541	 0.9673	-0.0869	-1.5909	 0.6727	-0.9182	-2.1008	 0.3209	-1.7799	54.1894	99.9968	
   682	-1.0445	 1.0016	-0.0429	-1.6149	 0.8048	-0.8101	-2.2112	 0.6162	-1.5951	52.8144	99.9966	
   683	-0.8148	 1.2139	 0.3990	-1.2239	 1.2784	 0.0545	-1.7219	 1.2347	-0.4872	52.1335	99.9976	
   684	-0.3341	 1.5099	 1.1757	-0.4914	 1.7418	 1.2505	-0.6677	 1.8757	 1.2081	52.7583	99.9949	
   685	 0.3521	 1.9890	 2.3409	 0.3655	 2.2330	 2.5985	 0.4270	 2.2633	 2.6904	54.3522	99.9946	
   686	 0.6256	 1.9589	 2.5843	 0.7220	 2.2567	 2.9787	 0.8574	 2.2764	 3.1338	54.8623	99.9951	
   687	 0.5946	 1.9398	 2.5342	 0.7736	 2.1539	 2.9275	 0.7019	 2.1036	 2.8055	55.0394	99.9983	
   688	 0.5025	 1.8973	 2.3996	 0.3148	 1.8344	 2.1492	-0.0371	 1.6928	 1.6557	54.4607	99.9976	
   689	-0.4199	 0.9892	 0.5692	-0.9869	 0.8367	-0.1501	-1.6779	 0.3936	-1.2844	53.8274	99.9981	
   690	-0.6603	 0.8412	 0.1808	-1.2886	 0.5529	-0.7357	-1.9331	 0.2332	-1.6999	53.7707	99.9973	
   691	-0.7727	 0.8287	 0.0558	-1.4812	 0.5689	-0.9123	-2.2096	 0.2740	-1.9357	52.9720	99.9976	
   692	-0.8262	 0.9234	 0.0971	-1.5676	 0.7361	-0.8315	-2.2630	 0.4978	-1.7652	52.3565	99.9969	
   693	-0.5238	 1.1095	 0.5856	-1.0997	 0.8896	-0.2101	-1.7365	 0.6249	-1.1115	53.3602	99.9977	
   694	-0.0661	 1.1644	 1.0983	-0.6390	 0.9286	 0.2895	-1.4020	 0.6206	-0.7813	53.5139	99.9990	
   695	 0.1930	 1.0262	 1.2191	-0.2069	 0.7173	 0.5104	-0.9942	 0.3513	-0.6429	54.7956	99.9995	
   696	 0.4299	 0.7751	 1.2048	 0.0796	 0.5510	 0.6306	-0.6381	 0.2426	-0.3956	55.0358	99.9995	
   697	 0.2777	 0.7239	 1.0014	 0.0014	 0.5396	 0.5410	-0.6716	 0.2430	-0.4286	55.1288	99.9994	
   698	 0.1147	 0.7370	 0.8516	 0.0161	 0.6711	 0.6872	-0.3133	 0.4467	 0.1333	55.8238	99.9986	
   699	 0.1923	 0.7847	 0.9769	 0.4145	 0.7451	 1.1595	 0.3673	 0.4453	 0.8126	57.7161	99.9983	
   700	 0.4194	 0.6126	 1.0319	 0.2354	 0.2552	 0.4906	-0.2965	-0.1970	-0.4935	57.2620	99.9992	
   701	-0.0845	 0.1890	 0.1044	-0.4754	-0.1704	-0.6458	-0.9621	-0.5938	-1.5560	56.6959	99.9979	
   702	-0.0728	 0.1395	 0.0665	-0.2788	-0.1227	-0.4015	-0.5513	-0.4429	-0.9942	57.1592	99.9968	
   703	 0.3324	 0.3039	 0.6362	 0.3186	 0.0371	 0.3557	 0.1156	-0.3027	-0.1871	58.1412	99.9978	
   704	 0.1162	 0.1850	 0.3011	-0.0991	-0.0365	-0.1357	-0.3329	-0.3379	-0.6708	57.1191	99.9962	
   705	-0.0496	 0.1538	 0.1041	-0.3763	-0.1338	-0.5101	-0.7346	-0.4294	-1.1640	56.5653	99.9961	
   706	-0.7301	-0.1234	-0.8536	-1.0222	-0.3481	-1.3703	-1.3720	-0.6369	-2.0089	56.1674	99.9970	
   707	-0.8340	-0.0030	-0.8371	-0.8805	-0.2485	-1.1290	-1.2147	-0.5274	-1.7421	56.7867	99.9987	
   708	-0.5556	-0.0726	-0.6283	-0.9121	-0.3415	-1.2536	-1.2717	-0.6382	-1.9099	56.2305	99.9961	
   709	-0.9597	-0.3356	-1.2955	-1.1538	-0.4903	-1.6441	-1.1221	-0.7480	-1.8701	57.2077	99.9920	
   710	-0.9006	-0.3417	-1.2424	-0.9769	-0.5528	-1.5298	-1.0421	-0.9015	-1.9436	57.8699	99.9961	
   711	-0.9151	-0.3365	-1.2518	-1.1115	-0.5378	-1.6493	-1.1893	-0.8438	-2.0331	57.2762	99.9944	
   712	-0.6583	-0.1642	-0.8226	-0.6315	-0.4992	-1.1307	-0.7134	-0.9095	-1.6229	58.8291	99.9970	
   713	-0.5778	-0.1855	-0.7634	-0.4191	-0.4050	-0.8241	-0.3360	-0.7581	-1.0941	59.0806	99.9965	
   714	-0.3335	-0.0919	-0.4255	-0.0350	-0.3520	-0.3870	 0.0066	-0.6286	-0.6220	59.3029	99.9973	
   715	-0.0746	-0.0034	-0.0781	 0.2261	-0.2035	 0.0226	 0.4331	-0.4035	 0.0296	59.3516	99.9942	
   716	 0.1801	 0.3661	 0.5460	 0.3506	 0.2405	 0.5912	 0.3700	 0.0287	 0.3987	58.1108	99.9966	
   717	-0.0672	 0.3414	 0.2741	 0.0687	 0.0668	 0.1355	 0.4690	-0.4561	 0.0129	60.5908	99.9922	
   718	-0.3443	 0.0858	-0.2587	-0.3333	-0.1686	-0.5018	-0.2075	-0.5701	-0.7775	59.0221	99.9942	
   719	-0.8793	-0.2436	-1.1230	-0.7408	-0.4931	-1.2339	-0.6787	-0.7053	-1.3841	58.3918	99.9943	
   720	-1.2972	-0.3732	-1.6705	-0.9446	-0.6553	-1.6000	-0.9968	-0.7980	-1.7947	58.3496	99.9973	
   721	-2.1534	 0.4324	-1.7211	-0.6894	-0.2900	-0.9794	-0.5111	-0.7931	-1.3041	63.5737	99.9991	
   722	-0.9764	 0.7884	-0.1881	-0.2866	-0.0419	-0.3285	 0.1176	-0.2693	-0.1517	61.9993	99.9830	
   723	 0.0779	-0.2923	-0.2145	-0.2847	-0.1141	-0.3988	 0.0245	-0.4243	-0.3998	57.1987	99.9876	
   724	-0.4549	 0.1028	-0.3522	-0.6973	-0.2091	-0.9064	-1.1795	-0.5910	-1.7706	56.6071	99.9988	
   725	-0.8543	-0.0864	-0.9408	-1.3282	-0.3897	-1.7179	-1.7866	-0.7580	-2.5447	55.7670	99.9968	
   726	-1.9665	-0.2465	-2.2131	-2.3036	-0.4029	-2.7066	-2.5111	-0.5590	-3.0701	54.8625	99.9930	
   727	-2.5425	-0.2892	-2.8318	-2.5258	-0.3439	-2.8698	-2.5155	-0.5403	-3.0559	55.9339	99.9961	
   728	-2.3526	-0.1156	-2.4683	-2.3825	-0.2189	-2.6014	-2.4698	-0.5223	-2.9922	56.0765	99.9974	
   729	-1.8854	 0.0870	-1.7985	-2.1219	-0.1808	-2.3027	-2.4128	-0.5937	-3.0065	56.0631	99.9977	
   730	-1.6943	 0.0487	-1.6457	-1.9905	-0.2468	-2.2373	-2.3602	-0.6465	-3.0067	55.8845	99.9978	
   731	-1.7396	-0.1919	-1.9316	-2.1047	-0.5253	-2.6300	-2.3449	-0.9480	-3.2929	56.4902	99.9954	
   732	-1.9422	-0.3308	-2.2730	-2.1509	-0.5415	-2.6924	-2.1599	-1.0247	-3.1846	57.3755	99.9951	
   733	-1.7036	-0.3257	-2.0294	-2.0049	-0.6842	-2.6891	-2.3537	-1.0929	-3.4466	56.5519	99.9973	
   734	-2.3085	-0.5847	-2.8933	-2.7120	-0.7402	-3.4522	-2.8175	-1.1055	-3.9231	55.8034	99.9936	
   735	-2.1272	-0.5439	-2.6712	-2.6955	-0.8892	-3.5847	-3.0800	-1.1096	-4.1896	54.7159	99.9910	
   736	-2.4155	-0.2819	-2.6975	-2.2487	-0.2467	-2.4953	-1.7628	-0.2711	-2.0339	56.8514	99.9859	
   737	-1.8872	-0.0559	-1.9431	-1.8791	-0.1169	-1.9960	-1.5631	-0.1993	-1.7624	56.6695	99.9866	
   738	-1.5489	 0.1098	-1.4391	-1.6039	 0.0526	-1.5513	-1.3222	-0.0908	-1.4131	56.7020	99.9878	
   739	-1.2746	 0.3212	-0.9535	-1.2647	 0.2126	-1.0521	-1.0650	 0.1030	-0.9620	56.7300	99.9893	
   740	-1.0857	 0.4801	-0.6057	-1.0424	 0.3618	-0.6806	-0.8736	 0.2233	-0.6504	56.8737	99.9912	
   741	-0.8491	 0.5690	-0.2802	-0.8335	 0.5027	-0.3308	-0.6662	 0.3322	-0.3340	56.8118	99.9922	
   742	-0.8170	 0.4895	-0.3276	-0.9338	 0.3430	-0.5909	-0.8995	 0.1641	-0.7354	56.4768	99.9918	
   743	-1.1360	 0.3924	-0.7437	-1.1790	 0.2409	-0.9381	-1.0729	 0.0659	-1.0069	56.7486	99.9913	
   744	-1.3221	 0.2778	-1.0444	-1.3780	 0.1550	-1.2230	-1.1933	 0.0117	-1.1816	56.6801	99.9890	
   745	-1.3007	 0.2626	-1.0382	-1.4021	 0.0789	-1.3232	-1.3164	-0.0872	-1.4036	56.6042	99.9900	
   746	-1.4597	 0.2214	-1.2384	-1.4618	 0.0545	-1.4073	-1.2980	-0.1506	-1.4486	57.1125	99.9912	
   747	-1.5518	 0.1789	-1.3730	-1.5518	 0.0602	-1.4915	-1.2785	-0.1062	-1.3848	57.0794	99.9886	
   748	-1.4713	 0.1576	-1.3138	-1.5743	 0.0096	-1.5647	-1.3597	-0.1573	-1.5170	56.8080	99.9873	
   749	-1.5227	 0.1685	-1.3544	-1.5810	 0.0055	-1.5755	-1.3740	-0.2092	-1.5832	57.0975	99.9894	
   750	-1.8155	 0.0166	-1.7990	-1.8531	-0.1131	-1.9662	-1.6460	-0.3693	-2.0153	57.1097	99.9914	
   751	-2.0160	-0.2061	-2.2222	-2.1994	-0.3877	-2.5871	-2.0776	-0.5869	-2.6645	56.4780	99.9885	
   752	-2.0974	-0.3129	-2.4103	-2.4197	-0.4010	-2.8207	-2.1572	-0.5189	-2.6761	55.8691	99.9804	
   753	-2.1557	-0.1787	-2.3344	-2.2440	-0.3785	-2.6225	-2.1373	-0.5601	-2.6974	56.5834	99.9900	
   754	-2.4649	-0.3548	-2.8198	-2.5464	-0.4668	-3.0132	-2.3602	-0.6465	-3.0067	56.4284	99.9899	
   755	-2.6714	-0.4394	-3.1109	-2.7261	-0.5530	-3.2791	-2.5734	-0.7590	-3.3325	56.4351	99.9918	
   756	-2.9167	-0.4345	-3.3513	-3.0681	-0.1393	-3.2075	-2.1248	-0.4450	-2.5698	57.0912	99.9768	
   757	-2.6510	-0.4694	-3.1205	-2.8410	-0.6360	-3.4770	-2.7413	-0.7680	-3.5094	55.8465	99.9876	
   758	-2.9991	-0.4427	-3.4420	-2.8457	-0.5042	-3.3499	-2.5441	-0.6441	-3.1883	56.7862	99.9917	
   759	-2.7985	-0.3334	-3.1320	-2.6945	-0.4601	-3.1545	-2.5390	-0.6516	-3.1906	56.7074	99.9939	
   760	-2.3924	-0.0409	-2.4334	-2.3256	-0.1349	-2.4605	-2.3194	-0.3420	-2.6615	56.1426	99.9965	
   761	-2.0163	 0.1340	-1.8825	-2.3136	 0.0561	-2.2575	-2.6400	-0.2003	-2.8403	54.3183	99.9976	
   762	-2.3792	 0.2792	-2.1001	-2.6752	 0.0537	-2.6215	-2.9113	-0.3493	-3.2606	55.2887	99.9968	
   763	-2.4384	 0.3987	-2.0399	-2.6772	 0.1260	-2.5512	-2.9362	-0.3006	-3.2368	55.5054	99.9975	
   764	-2.4103	 0.3735	-2.0369	-2.6906	 0.1177	-2.5729	-2.9209	-0.3231	-3.2440	55.5017	99.9970	
   765	-2.3977	 0.3387	-2.0590	-2.6796	 0.0878	-2.5918	-2.9178	-0.3641	-3.2818	55.5384	99.9971	
   766	-2.4472	 0.3791	-2.0681	-2.7083	 0.1435	-2.5648	-2.9438	-0.2410	-3.1848	55.2196	99.9970	
   767	-2.3851	 0.4173	-1.9679	-2.6665	 0.1938	-2.4727	-2.7943	-0.1685	-2.9629	55.3678	99.9950	
   768	-2.4995	 0.3753	-2.1244	-2.7529	 0.1528	-2.6002	-2.8537	-0.2273	-3.0810	55.5465	99.9952	
   769	-2.5141	 0.3805	-2.1337	-2.7060	 0.1817	-2.5243	-2.7469	-0.2138	-2.9606	55.8626	99.9953	
   770	-2.4588	 0.4286	-2.0303	-2.7379	 0.1865	-2.5514	-2.8742	-0.1973	-3.0715	55.4330	99.9953	
   771	-2.5499	 0.2875	-2.2624	-2.9323	-0.0312	-2.9634	-3.1477	-0.4764	-3.6241	55.4635	99.9953	
   772	-3.0858	-0.0566	-3.1425	-3.4420	-0.2350	-3.6770	-3.4381	-0.5731	-4.0112	55.1679	99.9916	
   773	-3.2312	-0.1177	-3.3491	-3.5083	-0.2636	-3.7719	-3.4729	-0.5950	-4.0679	55.2977	99.9926	
   774	-3.3834	-0.1689	-3.5525	-3.6536	-0.3164	-3.9700	-3.6545	-0.6447	-4.2992	55.1316	99.9935	
   775	-3.4600	-0.2019	-3.6620	-3.7192	-0.3323	-4.0514	-3.6886	-0.6554	-4.3440	55.1470	99.9931	
   776	-3.4833	-0.2162	-3.6996	-3.7393	-0.3447	-4.0840	-3.7002	-0.6627	-4.3629	55.1508	99.9930	
   777	-3.5289	-0.2301	-3.7590	-3.7654	-0.3485	-4.1139	-3.7053	-0.6552	-4.3605	55.1699	99.9928	
   778	-3.5831	-0.2635	-3.8467	-3.8115	-0.3647	-4.1763	-3.7176	-0.6736	-4.3912	55.2290	99.9925	
   779	-3.6355	-0.2674	-3.9030	-3.8443	-0.3727	-4.2170	-3.7504	-0.6621	-4.4124	55.1928	99.9925	
   780	-3.6336	-0.2378	-3.8715	-3.8419	-0.3345	-4.1764	-3.7381	-0.6436	-4.3817	55.2403	99.9927	
   781	-3.6113	-0.2383	-3.8497	-3.8554	-0.3427	-4.1981	-3.7555	-0.6546	-4.4101	55.1776	99.9921	
   782	-3.6569	-0.2522	-3.9091	-3.8696	-0.3637	-4.2333	-3.7780	-0.6580	-4.4360	55.1852	99.9925	
   783	-3.6956	-0.2760	-3.9718	-3.9351	-0.3796	-4.3147	-3.8289	-0.6685	-4.4974	55.0900	99.9917	
   784	-3.7529	-0.2404	-3.9934	-3.9588	-0.3452	-4.3040	-3.8552	-0.6421	-4.4973	55.1414	99.9925	
   785	-3.7054	-0.1970	-3.9025	-3.8833	-0.2743	-4.1576	-3.7566	-0.5802	-4.3367	55.2231	99.9929	
   786	-3.5891	-0.1254	-3.7146	-3.7827	-0.2122	-3.9949	-3.6863	-0.5253	-4.2116	55.1719	99.9932	
   787	-3.5581	-0.1063	-3.6645	-3.7692	-0.2040	-3.9732	-3.6696	-0.5255	-4.1951	55.2080	99.9929	
   788	-3.5581	-0.1063	-3.6645	-3.7566	-0.2084	-3.9650	-3.6689	-0.5143	-4.1832	55.1681	99.9930	
   789	-3.5842	-0.1649	-3.7492	-3.8178	-0.2584	-4.0762	-3.7207	-0.6327	-4.3534	55.3491	99.9933	
   790	-3.6056	-0.1497	-3.7553	-3.9118	-0.3163	-4.2281	-3.9241	-0.6747	-4.5988	54.9812	99.9934	
   791	-3.7373	-0.3442	-4.0816	-3.8798	-0.3211	-4.2009	-3.5930	-0.2736	-3.8665	54.2377	99.9823	
   792	-2.3098	 0.7756	-1.5343	-1.9549	 0.6321	-1.3228	-1.7589	 0.4392	-1.3196	56.9692	99.9963	
   793	-1.1059	 1.3183	 0.2123	-0.8851	 1.3279	 0.4427	-0.5405	 1.1191	 0.5786	56.9013	99.9936	
   794	-0.6055	 1.3428	 0.7372	-0.5910	 1.3866	 0.7956	-0.3743	 1.1913	 0.8170	56.1398	99.9930	
   795	-0.3438	 1.4756	 1.1317	-0.2171	 1.4823	 1.2651	-0.0665	 1.2989	 1.2324	56.4304	99.9951	
   796	-0.1770	 1.5215	 1.3444	-0.0071	 1.5382	 1.5311	 0.1441	 1.3669	 1.5109	56.5524	99.9956	
   797	-0.2196	 1.4386	 1.2189	-0.0675	 1.5010	 1.4335	 0.1028	 1.3302	 1.4330	56.4334	99.9955	
   798	-0.3030	 1.4156	 1.1125	-0.0928	 1.5099	 1.4171	 0.0919	 1.3341	 1.4259	56.4989	99.9962	
   799	-0.3999	 1.4126	 1.0126	-0.1256	 1.5020	 1.3764	 0.0758	 1.3454	 1.4212	56.6045	99.9964	
   800	-0.3476	 1.4165	 1.0688	-0.0861	 1.5141	 1.4280	 0.1086	 1.3339	 1.4424	56.6389	99.9966	
   801	-0.3175	 1.4208	 1.1032	-0.0853	 1.5268	 1.4415	 0.1151	 1.3487	 1.4637	56.5548	99.9963	
   802	-0.2865	 1.4399	 1.1533	-0.0324	 1.5471	 1.5148	 0.1621	 1.3890	 1.5511	56.5296	99.9964	
   803	-0.3311	 1.4408	 1.1096	-0.0533	 1.5220	 1.4687	 0.1041	 1.3525	 1.4566	56.5923	99.9970	
   804	-0.3922	 1.4174	 1.0251	-0.1307	 1.5233	 1.3926	 0.0649	 1.3493	 1.4142	56.5579	99.9966	
   805	-0.3922	 1.4174	 1.0251	-0.1516	 1.4982	 1.3466	 0.0024	 1.3315	 1.3339	56.4489	99.9967	
   806	-0.4154	 1.4031	 0.9875	-0.1978	 1.4820	 1.2842	-0.0324	 1.3096	 1.2773	56.4396	99.9964	
   807	-0.4552	 1.3644	 0.9092	-0.2179	 1.4696	 1.2516	-0.0337	 1.2873	 1.2536	56.4927	99.9966	
   808	-0.5191	 1.2967	 0.7775	-0.2839	 1.3432	 1.0593	-0.1807	 1.1628	 0.9820	56.4776	99.9972	
   809	-0.5541	 1.3319	 0.7777	-0.3743	 1.4467	 1.0724	-0.1488	 1.3223	 1.1735	56.1677	99.9949	
   810	-0.5501	 1.2776	 0.7274	-0.3696	 1.3149	 0.9453	-0.2599	 1.1452	 0.8853	56.3328	99.9965	
   811	-0.6374	 1.3089	 0.6714	-0.4011	 1.4302	 1.0290	-0.2242	 1.2749	 1.0507	56.2362	99.9966	
   812	-0.5328	 1.4300	 0.8971	-0.2795	 1.5173	 1.2378	-0.1300	 1.3555	 1.2255	56.3207	99.9969	
   813	-0.4737	 1.4239	 0.9502	-0.2266	 1.5377	 1.3111	-0.0508	 1.3731	 1.3223	56.3396	99.9967	
   814	-0.4523	 1.4087	 0.9563	-0.2088	 1.5119	 1.3030	-0.0303	 1.3431	 1.3127	56.4177	99.9966	
   815	-0.4455	 1.3987	 0.9531	-0.2231	 1.4909	 1.2678	-0.0651	 1.3212	 1.2561	56.3583	99.9966	
   816	-0.5056	 1.3901	 0.8843	-0.2701	 1.4619	 1.1919	-0.1289	 1.2811	 1.1522	56.4240	99.9969	
   817	-0.5725	 1.3914	 0.8188	-0.3249	 1.5138	 1.1890	-0.1396	 1.3817	 1.2421	56.1805	99.9964	
   818	-0.4630	 1.4730	 1.0099	-0.1966	 1.6052	 1.4086	 0.0368	 1.4389	 1.4758	56.4580	99.9963	
   819	-0.3263	 1.5146	 1.1882	-0.0343	 1.6194	 1.5851	 0.1778	 1.4631	 1.6409	56.5914	99.9965	
   820	-0.2110	 1.5715	 1.3604	 0.0463	 1.6690	 1.7153	 0.2248	 1.5035	 1.7283	56.4953	99.9966	
   821	-0.2207	 1.5372	 1.3164	-0.0209	 1.6277	 1.6068	 0.1147	 1.4342	 1.5489	56.3645	99.9967	
   822	-0.4194	 1.4573	 1.0379	-0.2392	 1.5421	 1.3029	-0.1010	 1.3738	 1.2727	56.1764	99.9964	
   823	-0.6520	 1.3141	 0.6621	-0.4446	 1.3544	 0.9098	-0.3059	 1.0305	 0.7246	56.9236	99.9970	
   824	-1.1877	 0.7433	-0.4445	-1.3619	 0.8261	-0.5358	-1.3391	 0.5529	-0.7862	55.2860	99.9951	
   825	-2.4994	 0.2619	-2.2376	-2.5899	 0.1797	-2.4102	-2.6077	-0.1263	-2.7340	55.5802	99.9961	
   826	-3.1034	 0.0177	-3.0858	-3.1979	-0.0479	-3.2459	-3.1240	-0.2684	-3.3924	55.2208	99.9939	
   827	-3.3051	 0.0069	-3.2982	-3.3914	-0.0447	-3.4360	-3.2462	-0.2594	-3.5056	55.2395	99.9928	
   828	-3.1822	 0.2953	-2.8870	-3.0399	 0.2086	-2.8313	-2.9227	-0.0776	-3.0004	56.0572	99.9967	
   829	-3.0768	-0.3771	-3.4540	-2.8717	-0.5081	-3.3798	-2.8084	-1.0461	-3.8545	57.8860	99.9968	
   830	-4.0090	-1.0928	-5.1019	-4.1914	-1.3823	-5.5737	-4.2875	-1.7933	-6.0807	56.3458	99.9961	
   831	-4.6346	-1.0951	-5.7297	-4.7997	-1.3040	-6.1037	-4.8764	-1.6592	-6.5356	55.4353	99.9962	
   832	-4.5883	-0.8397	-5.4281	-4.8319	-0.9933	-5.8252	-4.9790	-1.3269	-6.3059	54.4703	99.9965	
   833	-4.0430	-0.1212	-4.1643	-4.1553	-0.1847	-4.3400	-4.1113	-0.4491	-4.5604	54.6323	99.9950	
   834	-2.9124	 1.1277	-1.7848	-2.8969	 1.1537	-1.7432	-2.8562	 0.9295	-1.9268	54.2836	99.9966	
   835	-2.8928	 1.8912	-1.0017	-2.2524	 1.5507	-0.7018	-2.4961	 1.3488	-1.1473	55.8684	100.0000	
   836	-2.8526	 1.4764	-1.3763	-2.5527	 1.8064	-0.7463	-2.1099	 1.6451	-0.4648	54.7107	99.9952	
   837	-2.5530	 1.5049	-1.0482	-2.2050	 1.6901	-0.5149	-2.0800	 1.3100	-0.7700	55.4228	99.9960	
   838	-2.6687	 0.8665	-1.8023	-2.5797	 0.8594	-1.7203	-2.8731	 0.6507	-2.2224	53.9871	99.9992	
   839	-3.0990	 0.5449	-2.5542	-3.2873	 0.4847	-2.8026	-3.6607	 0.3596	-3.3011	52.7280	99.9983	
   840	-3.4388	-0.1037	-3.5426	-3.7072	-0.1413	-3.8485	-3.8700	-0.4262	-4.2962	53.9587	99.9965	
   841	-3.1116	-0.4553	-3.5670	-3.4149	-0.5244	-3.9393	-3.6289	-0.6822	-4.3111	53.9146	99.9952	
   842	-2.6462	-0.3956	-3.0418	-3.0367	-0.4628	-3.4995	-3.2923	-0.6531	-3.9454	53.9458	99.9952	
   843	-2.1789	-0.1930	-2.3720	-2.6865	-0.3327	-3.0192	-3.0218	-0.5152	-3.5370	53.7657	99.9938	
   844	-1.8465	-0.0025	-1.8491	-2.4456	-0.1966	-2.6422	-2.8669	-0.3536	-3.2205	53.4111	99.9926	
   845	-1.5664	 0.1841	-1.3824	-2.2292	-0.0388	-2.2680	-2.7206	-0.2402	-2.9607	53.3213	99.9935	
   846	-1.5170	 0.2571	-1.2600	-2.2962	 0.1280	-2.1682	-2.7976	 0.0547	-2.7429	52.0605	99.9902	
   847	-1.4513	 0.4677	-0.9837	-1.7284	 0.5391	-1.1893	-1.7636	 0.3612	-1.4024	54.5530	99.9938	
   848	-2.5469	 0.2185	-2.3285	-2.9261	 0.3766	-2.5495	-3.1982	 0.3499	-2.8482	52.0218	99.9957	
   849	-3.0019	 0.4346	-2.5675	-3.3212	 0.5617	-2.7594	-3.4124	 0.5907	-2.8216	52.1284	99.9919	
   850	-2.5329	 0.7800	-1.7529	-2.6021	 1.0170	-1.5851	-2.2748	 1.1340	-1.1408	53.4981	99.9858	
   851	-1.7708	 0.9373	-0.8336	-1.4766	 1.1594	-0.3172	-1.1027	 1.1412	 0.0385	55.6162	99.9939	
   852	-1.5903	 0.8499	-0.7405	-1.2982	 1.1224	-0.1758	-0.8725	 1.0713	 0.1987	55.8955	99.9939	
   853	-1.4914	 0.8824	-0.6091	-1.2165	 1.0870	-0.1294	-0.8547	 0.9967	 0.1419	56.0897	99.9945	
   854	-1.3022	 0.8146	-0.4878	-0.9781	 0.9768	-0.0013	-0.5696	 0.8219	 0.2523	56.9227	99.9947	
   855	-0.9297	 0.7037	-0.2262	-0.6304	 0.8604	 0.2301	-0.2681	 0.7325	 0.4643	57.0096	99.9947	
   856	-0.6165	 0.7122	 0.0956	-0.2941	 0.8718	 0.5777	 0.0227	 0.7436	 0.7663	57.1512	99.9956	
   857	-0.8918	 0.5994	-0.2925	-0.7231	 0.9257	 0.2026	-0.4926	 0.9883	 0.4957	55.1372	99.9945	
   858	-1.4325	 1.1030	-0.3295	-0.9632	 1.5246	 0.5614	-0.5084	 1.5575	 1.0492	55.5532	99.9958	
   859	-0.9188	 1.4476	 0.5287	-0.4065	 1.7574	 1.3509	-0.0282	 1.6555	 1.6273	56.3804	99.9971	
   860	-0.9757	 1.1432	 0.1674	-1.0878	 1.0806	-0.0072	-1.5546	 0.7714	-0.7833	54.4932	99.9988	
   861	-1.4165	 0.6592	-0.7575	-1.5621	 0.6170	-0.9451	-1.8302	 0.4588	-1.3714	54.4513	99.9976	
   862	-1.1809	 0.7333	-0.4477	-1.3339	 0.7576	-0.5763	-1.5784	 0.5634	-1.0150	54.5027	99.9978	
   863	-1.1752	 0.8219	-0.3534	-1.3918	 0.9668	-0.4250	-1.6135	 0.9060	-0.7074	53.3906	99.9968	
   864	-1.4865	 0.8429	-0.6437	-1.3444	 1.1062	-0.2382	-1.1995	 1.0160	-0.1835	54.9385	99.9965	
   865	-1.4105	 0.4077	-1.0029	-1.3818	 0.5077	-0.8741	-1.3635	 0.3337	-1.0298	55.5674	99.9967	
   866	-1.3150	-0.0723	-1.3873	-1.4219	-0.0312	-1.4531	-1.5757	-0.3144	-1.8901	55.7871	99.9975	
   867	-1.0249	-0.1914	-1.2164	-1.1796	-0.0778	-1.2574	-1.3778	-0.1794	-1.5572	54.9083	99.9971	
   868	-0.3299	 0.1939	-0.1361	-0.3847	 0.3507	-0.0341	-0.6252	 0.2721	-0.3530	55.0194	99.9983	
   869	 0.3139	 0.3634	 0.6772	 0.0799	 0.4533	 0.5332	-0.2228	 0.3748	 0.1520	54.8909	99.9971	
   870	 0.3412	 0.2101	 0.5512	-0.0335	 0.1875	 0.1540	-0.3748	 0.0755	-0.2993	55.0519	99.9955	
   871	 0.0583	-0.1342	-0.0759	-0.4869	-0.2509	-0.7378	-0.9176	-0.3192	-1.2368	54.5541	99.9925	
   872	-0.7038	-0.2915	-0.9953	-1.3850	-0.2655	-1.6505	-1.8522	-0.2737	-2.1259	52.8153	99.9924	
   873	-1.0009	 0.0644	-0.9366	-1.3291	 0.1117	-1.2174	-1.7641	 0.1678	-1.5963	53.1384	99.9961	
   874	-0.5219	 0.2175	-0.3046	-0.7610	 0.2168	-0.5442	-0.9332	 0.0678	-0.8654	55.3438	99.9953	
   875	-0.2922	 0.3164	 0.0241	-0.5640	 0.1668	-0.3973	-0.9813	-0.0803	-1.0616	55.5226	99.9980	
   876	-0.1074	 0.7562	 0.6487	-0.0110	 0.9604	 0.9495	 0.2232	 0.9233	 1.1465	56.1495	99.9933	
   877	 0.0157	 0.8178	 0.8334	 0.2891	 1.0106	 1.2997	 0.3991	 0.7871	 1.1862	57.0268	99.9974	
   878	-0.1334	 0.5842	 0.4507	 0.1522	 0.4733	 0.6255	-0.2536	 0.4199	 0.1663	56.2000	99.9999	
   879	-0.5387	-0.5017	-1.0405	-1.0302	-0.4754	-1.5056	-1.4392	-0.7327	-2.1719	54.8228	99.9970	
   880	-0.6217	-0.8648	-1.4866	-0.8571	-0.9075	-1.7646	-1.1236	-1.0492	-2.1728	56.1039	99.9964	
   881	 0.1694	-0.6046	-0.4353	-0.1927	-0.7063	-0.8989	-0.3985	-0.7759	-1.1744	56.2213	99.9908	
   882	 0.3993	-0.7324	-0.3332	-0.2140	-0.8419	-1.0559	-0.6014	-0.9035	-1.5049	55.2324	99.9900	
   883	-0.3419	-0.4515	-0.7934	-0.8352	-0.4532	-1.2884	-1.2452	-0.3856	-1.6309	53.8216	99.9919	
   884	-0.1763	-0.1936	-0.3700	-0.3574	-0.2446	-0.6020	-0.7361	-0.2694	-1.0055	55.2648	99.9969	
   885	 0.1971	-0.1764	 0.0206	-0.1016	-0.2829	-0.3846	-0.4891	-0.5218	-1.0109	56.1572	99.9976	
   886	 0.3297	 0.0329	 0.3625	 0.0591	-0.0860	-0.0268	-0.3268	-0.2375	-0.5643	55.8760	99.9969	
   887	 0.5776	 0.4123	 0.9899	 0.8613	 0.6653	 1.5266	 1.1055	 0.5660	 1.6715	57.5055	99.9962	
   888	 0.7599	 0.4678	 1.2276	 1.0247	 0.5945	 1.6192	 1.0217	 0.2881	 1.3098	58.0528	99.9975	
   889	 0.6720	 0.1443	 0.8162	 0.9737	-0.2204	 0.7533	 0.1815	-0.4114	-0.2299	57.5700	99.9989	
   890	-0.2102	-1.1786	-1.3889	-0.7002	-1.2883	-1.9885	-1.1345	-1.5066	-2.6411	55.9927	99.9962	
   891	-0.0928	-1.3189	-1.4118	-0.3426	-1.3496	-1.6922	-0.6550	-1.4198	-2.0748	56.4252	99.9959	
   892	 0.7118	-0.9653	-0.2536	 0.3479	-1.1445	-0.7966	-0.0178	-1.3090	-1.3268	57.1286	99.9948	
   893	 0.3901	-1.2201	-0.8301	-0.1756	-1.2589	-1.4345	-0.5135	-1.2021	-1.7157	55.2528	99.9878	
   894	 0.0020	-1.0054	-1.0035	-0.5643	-0.9719	-1.5362	-0.8564	-0.9671	-1.8235	54.8214	99.9899	
   895	 0.1258	-0.7023	-0.5766	-0.0806	-0.7719	-0.8525	-0.4315	-0.8610	-1.2925	56.2607	99.9968	
   896	 0.5292	-0.6808	-0.1517	 0.1862	-0.8401	-0.6539	-0.2780	-1.1829	-1.4609	57.1041	99.9982	
   897	 0.8034	-0.3561	 0.4472	 0.7221	-0.4243	 0.2978	 0.6067	-0.6698	-0.0631	58.0444	99.9965	
   898	 1.3559	-0.1010	 1.2548	 1.6086	 0.0238	 1.6324	 1.6245	-0.1697	 1.4548	58.5815	99.9979	
   899	 1.0233	-0.1781	 0.8451	 1.2481	-0.0636	 1.1846	 1.4079	-0.3380	 1.0699	59.0581	99.9967	
   900	 1.3789	-0.7815	 0.5972	 1.5253	-0.6886	 0.8367	 1.6960	-0.8326	 0.8633	59.2596	99.9949	
   901	 1.0622	-1.1892	-0.1271	 0.5630	-1.3181	-0.7552	-0.1081	-1.6016	-1.7097	56.5674	99.9987	
   902	 0.7898	-1.3710	-0.5813	 0.3659	-1.4763	-1.1104	-0.2265	-1.6224	-1.8489	56.3717	99.9980	
   903	 0.9838	-1.3650	-0.3814	 0.6122	-1.4592	-0.8469	 0.1562	-1.6608	-1.5046	57.2339	99.9974	
   904	 0.7998	-1.6768	-0.8771	 0.4048	-1.7828	-1.3780	-0.0273	-1.9262	-1.9535	57.2095	99.9961	
   905	 0.1104	-1.7468	-1.6365	-0.4036	-1.7054	-2.1090	-0.8730	-1.6104	-2.4833	54.8340	99.9929	
   906	-0.0813	-1.1417	-1.2231	-0.3709	-1.1834	-1.5543	-0.6875	-1.3115	-1.9990	56.4020	99.9962	
   907	 0.5188	-0.9566	-0.4378	 0.2698	-1.1560	-0.8862	-0.2300	-1.4959	-1.7259	57.6638	99.9988	
   908	 0.8726	-0.7813	 0.0913	 0.6666	-0.8993	-0.2326	 0.3893	-1.1282	-0.7390	57.7974	99.9968	
   909	 1.4301	-0.5657	 0.8643	 1.7248	-0.4922	 1.2325	 1.7637	-0.5434	 1.2203	58.8844	99.9973	
   910	 1.2855	-0.4988	 0.7866	 1.5563	-0.4002	 1.1561	 1.5414	-0.4364	 1.1050	58.3759	99.9977	
   911	 1.2539	-0.8727	 0.3811	 1.2855	-1.1179	 0.1676	 0.9767	-1.1023	-0.1257	58.2964	99.9944	
   912	 0.5601	-1.4699	-0.9100	 0.0702	-1.5605	-1.4903	-0.5100	-1.7898	-2.2998	56.3882	99.9980	
   913	 0.1842	-1.8715	-1.6874	-0.2360	-2.0184	-2.2544	-0.7408	-2.1923	-2.9331	56.9093	99.9970	
   914	 0.3957	-1.9398	-1.5442	 0.0964	-2.0708	-1.9744	-0.3343	-2.2050	-2.5392	57.4926	99.9969	
   915	 0.9001	-2.0829	-1.1829	 0.4327	-2.0595	-1.6268	-0.0356	-2.1567	-2.1924	56.6759	99.9965	
   916	 0.0647	-1.6473	-1.5827	-0.4122	-1.6373	-2.0496	-0.8177	-1.6185	-2.4362	55.4134	99.9933	
   917	 0.3068	-1.3565	-1.0497	-0.1185	-1.4808	-1.5993	-0.5340	-1.6333	-2.1673	56.6062	99.9955	
   918	 0.5958	-1.2637	-0.6680	 0.1856	-1.3670	-1.1814	-0.3235	-1.5654	-1.8888	56.6030	99.9977	
   919	 0.7005	-1.2559	-0.5555	 0.3988	-1.2601	-0.8613	 0.0071	-1.3576	-1.3505	56.5834	99.9970	
   920	 0.8380	-1.0861	-0.2482	 0.7510	-0.9942	-0.2431	 0.5684	-1.0264	-0.4580	57.1451	99.9964	
   921	 0.7438	-0.9315	-0.1878	 0.7002	-0.8786	-0.1784	 0.4410	-1.0099	-0.5688	57.3527	99.9982	
   922	 0.5252	-1.5481	-1.0230	 0.1372	-1.7273	-1.5901	-0.5399	-1.9159	-2.4559	56.6321	99.9990	
   923	 1.0907	-1.6678	-0.5772	 0.6512	-1.7658	-1.1146	 0.0635	-1.9014	-1.8379	56.7740	99.9977	
   924	 1.3573	-1.5746	-0.2173	 0.9788	-1.6863	-0.7075	 0.4942	-1.7916	-1.2974	57.3043	99.9964	
   925	 1.5697	-1.5147	 0.0548	 1.1225	-1.6590	-0.5365	 0.6699	-1.7455	-1.0756	57.3534	99.9940	
   926	 1.6298	-1.5061	 0.1236	 1.2086	-1.7284	-0.5199	 0.7568	-1.9698	-1.2130	58.3518	99.9960	
   927	 1.2173	-2.1287	-0.9115	 0.4147	-2.4501	-2.0353	-0.3661	-2.5467	-2.9128	56.3458	99.9922	
   928	-0.0126	-1.9218	-1.9345	-0.6627	-1.9263	-2.5889	-1.2011	-1.8702	-3.0713	54.5917	99.9922	
   929	 0.3535	-1.4412	-1.0878	-0.0257	-1.5461	-1.5718	-0.3599	-1.7062	-2.0661	57.0483	99.9950	
   930	 0.7432	-1.2863	-0.5432	 0.3758	-1.4212	-1.0454	-0.1083	-1.6983	-1.8066	57.3530	99.9980	
   931	 1.0513	-1.0116	 0.0397	 0.9101	-1.0308	-0.1207	 0.6787	-1.1394	-0.4607	57.6330	99.9964	
   932	 1.5853	-0.5836	 1.0016	 1.9134	-0.5719	 1.3415	 1.9465	-0.7503	 1.1961	59.7607	99.9981	
   933	 1.6918	-0.4330	 1.2587	 1.9928	-0.4373	 1.5555	 1.9556	-0.6909	 1.2647	59.7753	99.9984	
   934	 1.9283	-0.3440	 1.5842	 2.1373	-0.3972	 1.7401	 1.9973	-0.7398	 1.2575	59.8461	99.9983	
   935	 1.2759	-0.6464	 0.6294	 1.3318	-0.8935	 0.4383	 0.7911	-1.2190	-0.4279	58.8108	99.9994	
   936	 0.6173	-1.5056	-0.8884	 0.5359	-1.7511	-1.2152	-0.0078	-2.3431	-2.3509	59.7605	99.9958	
   937	-0.0577	-2.5024	-2.5602	-0.5084	-2.7616	-3.2700	-1.0893	-3.0656	-4.1549	57.9476	99.9981	
   938	 0.1518	-2.4869	-2.3352	-0.0717	-2.5906	-2.6622	-0.4520	-2.6758	-3.1278	57.8928	99.9967	
   939	 0.9881	-1.8728	-0.8847	 0.9594	-1.8942	-0.9348	 0.7581	-1.9475	-1.1894	58.5654	99.9965	
   940	 1.3907	-1.9794	-0.5887	 1.0464	-2.2568	-1.2104	 0.6486	-2.4668	-1.8182	59.0822	99.9949	
   941	 0.7655	-2.3217	-1.5563	 0.2410	-2.5449	-2.3039	-0.2015	-2.5935	-2.7950	57.4587	99.9902	
   942	 0.0417	-2.0017	-1.9600	-0.5242	-2.0858	-2.6100	-0.8730	-2.0716	-2.9445	55.9947	99.9884	
   943	 0.2480	-1.6904	-1.4425	 0.0140	-1.8400	-1.8260	-0.2982	-1.9785	-2.2768	57.7704	99.9957	
   944	 0.7299	-1.6064	-0.8766	 0.4573	-1.8729	-1.4157	-0.1329	-2.1964	-2.3293	58.2935	99.9992	
   945	 1.0060	-1.2521	-0.2463	 0.8416	-1.4036	-0.5620	 0.5931	-1.6330	-1.0399	58.6500	99.9966	
   946	 1.3955	-0.8706	 0.5248	 1.5840	-0.8850	 0.6990	 1.3914	-1.1635	 0.2280	59.3755	99.9986	
   947	 1.0651	-1.2582	-0.1932	 1.0931	-1.4078	-0.3147	 0.9611	-1.8200	-0.8588	60.2333	99.9977	
   948	 1.1793	-2.0244	-0.8452	 1.2122	-2.2893	-1.0771	 0.4396	-2.6947	-2.2552	59.6860	99.9968	
   949	 0.5988	-2.3677	-1.7690	 0.1142	-2.6107	-2.4965	-0.5598	-2.7971	-3.3569	57.4196	99.9978	
   950	 0.7295	-2.1879	-1.4585	 0.3832	-2.3348	-1.9516	-0.0494	-2.4764	-2.5258	57.9194	99.9962	
   951	 0.9081	-2.3048	-1.3969	 0.3345	-2.5974	-2.2629	-0.2226	-2.7569	-2.9794	57.7671	99.9934	
   952	 0.4058	-2.3589	-1.9532	-0.0811	-2.5352	-2.6163	-0.4408	-2.5830	-3.0238	57.3920	99.9899	
   953	 0.1486	-2.1911	-2.0426	-0.4146	-2.3978	-2.8124	-0.8379	-2.4142	-3.2521	56.6222	99.9884	
   954	-0.0097	-1.9908	-2.0006	-0.6668	-2.1981	-2.8649	-1.3467	-2.1547	-3.5014	55.0201	99.9914	
   955	 0.1257	-1.6239	-1.4982	-0.3259	-1.8045	-2.1304	-0.7703	-1.9427	-2.7130	56.7123	99.9947	
   956	 0.4991	-1.6067	-1.1077	-0.0199	-1.7629	-1.7828	-0.5812	-1.9526	-2.5338	56.5373	99.9968	
   957	 0.6638	-1.4769	-0.8132	 0.2558	-1.4829	-1.2271	-0.1087	-1.6128	-1.7215	56.6541	99.9958	
   958	 0.8508	-1.2343	-0.3836	 0.8777	-1.1365	-0.2588	 0.7884	-1.2635	-0.4752	58.1886	99.9972	
   959	 0.9748	-1.1579	-0.1831	 1.2405	-1.0109	 0.2296	 1.3357	-1.0698	 0.2660	58.9268	99.9970	
   960	 1.2434	-1.0351	 0.2081	 1.5816	-0.9232	 0.6584	 1.7296	-1.0153	 0.7142	59.5801	99.9970	
   961	 1.1542	-1.1467	 0.0075	 1.3301	-1.1272	 0.2029	 1.2165	-1.3806	-0.1642	59.4170	99.9983	
   962	 0.4974	-1.8629	-1.3656	 0.1114	-2.0371	-1.9257	-0.5997	-2.3503	-2.9500	57.2725	99.9992	
   963	 0.1778	-2.3149	-2.1372	-0.1873	-2.4781	-2.6654	-0.8135	-2.6563	-3.4697	57.2024	99.9988	
   964	 0.6045	-2.2791	-1.6747	 0.2012	-2.4592	-2.2580	-0.3059	-2.6591	-2.9650	57.8808	99.9971	
   965	 0.7849	-2.2531	-1.4683	 0.3701	-2.4408	-2.0707	-0.1025	-2.6171	-2.7196	57.9971	99.9961	
   966	 0.8004	-2.2436	-1.4433	 0.4072	-2.4669	-2.0597	-0.0575	-2.6102	-2.6677	58.0960	99.9952	
   967	 0.7024	-2.2613	-1.5590	 0.3062	-2.4312	-2.1251	-0.1128	-2.6021	-2.7148	58.0633	99.9956	
   968	 0.6569	-2.2752	-1.6184	 0.2675	-2.4306	-2.1631	-0.1237	-2.5982	-2.7219	58.0744	99.9953	
   969	 0.6578	-2.2604	-1.6027	 0.2742	-2.4265	-2.1522	-0.1230	-2.5870	-2.7101	58.0744	99.9952	
   970	 0.6811	-2.2461	-1.5651	 0.3204	-2.4102	-2.0898	-0.0548	-2.5656	-2.6204	58.1810	99.9951	
   971	 0.6966	-2.2366	-1.5401	 0.3228	-2.3720	-2.0492	 0.0083	-2.5367	-2.5283	58.2462	99.9943	
   972	 0.6830	-2.2166	-1.5337	 0.3556	-2.3641	-2.0085	 0.0438	-2.5037	-2.4598	58.3084	99.9943	
   973	 0.6471	-2.1961	-1.5491	 0.3445	-2.3342	-1.9896	 0.0568	-2.4741	-2.4173	58.3676	99.9944	
   974	 0.6267	-2.1662	-1.5396	 0.3461	-2.3087	-1.9626	 0.0421	-2.4404	-2.3983	58.3270	99.9948	
   975	 0.6412	-2.1714	-1.5302	 0.3536	-2.2918	-1.9382	 0.0704	-2.4333	-2.3629	58.3350	99.9948	
   976	 0.6403	-2.1861	-1.5459	 0.3587	-2.3132	-1.9544	 0.0581	-2.4518	-2.3937	58.3297	99.9951	
   977	 0.5947	-2.2000	-1.6054	 0.3244	-2.3466	-2.0222	 0.0168	-2.4884	-2.4716	58.4083	99.9951	
   978	 0.4765	-2.3012	-1.8247	 0.1431	-2.4582	-2.3151	-0.2858	-2.6035	-2.8894	57.9377	99.9963	
   979	 0.2409	-2.3753	-2.1345	-0.1376	-2.5087	-2.6463	-0.6237	-2.6550	-3.2787	57.4436	99.9970	
   980	 0.0237	-2.3956	-2.3720	-0.3933	-2.4704	-2.8637	-0.9832	-2.6020	-3.5852	56.5922	99.9982	
   981	-0.2868	-2.2465	-2.5334	-0.7205	-2.2312	-2.9517	-1.3066	-2.3226	-3.6292	55.6745	99.9983	
   982	-0.1281	-1.8652	-1.9934	-0.3701	-1.8930	-2.2631	-0.8125	-2.0872	-2.8998	56.9983	99.9986	
   983	 0.3586	-1.7074	-1.3489	 0.0164	-1.8018	-1.7854	-0.5313	-2.0499	-2.5812	57.0760	99.9987	
   984	 0.4603	-1.6306	-1.1703	 0.1088	-1.7693	-1.6606	-0.4965	-2.0281	-2.5246	57.0948	99.9990	
   985	 0.5223	-1.4790	-0.9569	 0.3533	-1.4718	-1.1185	 0.0868	-1.6078	-1.5210	57.4963	99.9972	
   986	 1.1755	-1.0485	 0.1268	 1.5500	-1.0161	 0.5339	 1.5946	-1.2181	 0.3764	60.0575	99.9984	
   987	 1.2288	-1.0299	 0.1988	 1.3961	-1.0008	 0.3953	 1.2058	-1.2801	-0.0743	59.1934	99.9983	
   988	 0.7024	-1.2264	-0.5241	 0.7011	-1.3800	-0.6789	 0.3887	-1.7828	-1.3941	59.3504	99.9984	
   989	 0.2174	-2.1629	-1.9456	-0.0925	-2.4075	-2.5000	-0.7353	-2.7465	-3.4818	58.1473	99.9993	
   990	 0.1711	-2.4183	-2.2472	-0.0499	-2.5527	-2.6026	-0.4926	-2.7013	-3.1939	58.0307	99.9980	
   991	 0.6848	-2.0737	-1.3890	 0.6984	-2.0427	-1.3443	 0.5036	-2.0967	-1.5931	58.4736	99.9974	
   992	 1.3140	-1.8990	-0.5851	 1.1357	-2.0671	-0.9314	 0.8099	-2.2904	-1.4804	59.2532	99.9972	
   993	 0.7461	-2.2770	-1.5310	 0.4736	-2.4383	-1.9648	 0.1046	-2.6049	-2.5002	58.5609	99.9963	
   994	 0.5852	-2.3477	-1.7626	 0.2670	-2.5410	-2.2740	-0.1318	-2.7320	-2.8638	58.5089	99.9963	
   995	 0.2139	-2.5620	-2.3482	-0.3512	-2.7260	-3.0773	-1.0192	-2.8284	-3.8476	56.4461	99.9966	
   996	-0.2900	-1.9507	-2.2408	-0.7298	-1.9676	-2.6974	-1.1952	-2.0488	-3.2440	55.8278	99.9964	
   997	 0.4767	-1.4929	-1.0163	 0.1704	-1.6089	-1.4385	-0.3649	-1.8810	-2.2458	57.2821	99.9988	
   998	 1.0350	-1.1492	-0.1144	 1.0593	-1.1226	-0.0633	 0.8976	-1.3021	-0.4045	58.4920	99.9979	
   999	 1.2695	-0.9765	 0.2929	 1.4363	-0.9760	 0.4604	 1.2413	-1.2471	-0.0058	59.2351	99.9985	
  1000	 0.9157	-1.1518	-0.2362	 0.9626	-1.1209	-0.1584	 0.7809	-1.3862	-0.6052	58.7188	99.9981	
  1001	 0.5959	-1.3770	-0.7812	 0.6218	-1.3064	-0.6846	 0.4288	-1.4895	-1.0607	58.1520	99.9982	
  1002	 0.2033	-1.5762	-1.3730	 0.1492	-1.5363	-1.3872	-0.2131	-1.6784	-1.8915	57.3051	99.9989	
  1003	-0.0584	-1.7089	-1.7675	-0.1205	-1.6168	-1.7373	-0.4203	-1.6906	-2.1109	56.9394	99.9985	
  1004	-0.0342	-1.6798	-1.7141	-0.0332	-1.5630	-1.5962	-0.2613	-1.6443	-1.9056	57.2518	99.9983	
  1005	 0.0307	-1.5973	-1.5668	 0.0959	-1.4590	-1.3630	-0.0358	-1.5133	-1.5490	57.4989	99.9979	
  1006	 0.0685	-1.5882	-1.5199	 0.0951	-1.4717	-1.3766	-0.0603	-1.5502	-1.6105	57.5123	99.9978	
  1007	 0.1479	-1.5110	-1.3631	 0.2242	-1.3676	-1.1434	 0.1349	-1.4597	-1.3248	57.7754	99.9977	
  1008	 0.2633	-1.4541	-1.1910	 0.3695	-1.3149	-0.9453	 0.2591	-1.4353	-1.1762	57.9509	99.9981	
  1009	 0.2856	-1.4546	-1.1691	 0.3822	-1.3193	-0.9372	 0.2540	-1.4278	-1.1738	57.8619	99.9982	
  1010	 0.3573	-1.3821	-1.0249	 0.5097	-1.2408	-0.7310	 0.4092	-1.3516	-0.9424	58.0663	99.9983	
  1011	 0.4639	-1.3448	-0.8810	 0.5895	-1.2039	-0.6144	 0.4710	-1.3450	-0.8740	58.0974	99.9983	
  1012	 0.6035	-1.2589	-0.6555	 0.7885	-1.1180	-0.3295	 0.7099	-1.2700	-0.5601	58.4321	99.9983	
  1013	 0.7945	-1.1838	-0.3895	 0.9792	-1.0617	-0.0826	 0.8580	-1.2198	-0.3618	58.4736	99.9985	
  1014	 0.8168	-1.1843	-0.3676	 1.0009	-1.0239	-0.0230	 0.9334	-1.1724	-0.2391	58.4595	99.9982	
  1015	 0.8749	-1.0918	-0.2170	 1.1814	-0.9249	 0.2564	 1.1698	-1.0453	 0.1245	58.7740	99.9984	
  1016	 0.9806	-1.0693	-0.0888	 1.2907	-0.9310	 0.3597	 1.2822	-1.1249	 0.1573	59.2157	99.9982	
  1017	 0.9049	-1.0875	-0.1826	 1.1916	-0.9676	 0.2240	 1.1160	-1.1971	-0.0811	59.1344	99.9982	
  1018	 0.7618	-1.4592	-0.6975	 0.6007	-1.5397	-0.9390	-0.0051	-1.8373	-1.8424	57.6436	99.9987	
  1019	 1.2166	-1.4486	-0.2320	 1.1742	-1.7618	-0.5876	 0.6983	-2.1997	-1.5014	60.1044	99.9991	
  1020	 1.3779	-1.7179	-0.3401	 0.9711	-2.1196	-1.1485	 0.4847	-2.4089	-1.9242	59.1851	99.9954	
  1021	 0.5187	-1.7648	-1.2462	 0.6653	-1.9529	-1.2877	 0.9556	-2.1881	-1.2325	61.2450	99.9906	
  1022	 1.3020	-1.5094	-0.2075	 2.0084	-1.5295	 0.4789	 2.7493	-1.6831	 1.0662	63.1519	99.9911	
  1023	 3.0134	-1.1789	 1.8344	 3.7091	-1.3755	 2.3336	 4.1082	-1.8159	 2.2923	64.7622	99.9973	
  1024	 2.6338	-1.7529	 0.8808	 2.7089	-1.9917	 0.7172	 2.4218	-2.3930	 0.0288	61.7830	99.9987	
  1025	 0.9908	-1.6017	-0.6111	 0.6093	-1.8160	-1.2067	-0.0649	-2.2717	-2.3366	58.2334	99.9983	
  1026	 0.7928	-1.4401	-0.6474	 0.3847	-1.7952	-1.4106	-0.2970	-2.2352	-2.5322	58.3200	99.9991	
  1027	 0.6435	-1.4470	-0.8036	 0.2912	-1.7427	-1.4515	-0.3418	-2.1453	-2.4872	58.1420	99.9990	
  1028	 0.9614	-1.2512	-0.2900	 0.5154	-1.6657	-1.1503	-0.1893	-2.1138	-2.3031	58.3537	99.9991	
  1029	 1.0564	-1.2778	-0.2215	 0.5458	-1.6960	-1.1502	-0.1435	-2.0958	-2.2394	58.1305	99.9984	
  1030	 1.2086	-1.2266	-0.0181	 0.7574	-1.6146	-0.8572	 0.1783	-2.0330	-1.8547	58.6479	99.9980	
  1031	 1.4006	-1.1368	 0.2636	 1.0263	-1.5469	-0.5206	 0.5445	-1.9745	-1.4300	59.3285	99.9974	
  1032	 1.5557	-1.1547	 0.4009	 1.2383	-1.5632	-0.3250	 0.7824	-2.0073	-1.2249	59.7516	99.9977	
  1033	 1.6043	-1.2099	 0.3943	 1.2931	-1.6151	-0.3220	 0.8112	-2.0858	-1.2747	59.8741	99.9982	
  1034	 1.5897	-1.2047	 0.3850	 1.3073	-1.5941	-0.2868	 0.8576	-2.0567	-1.1991	59.9368	99.9981	
  1035	 1.6149	-1.1608	 0.4540	 1.3618	-1.5483	-0.1865	 0.9067	-1.9829	-1.0763	59.8645	99.9983	
  1036	 1.6876	-1.0736	 0.6139	 1.4783	-1.4398	 0.0385	 1.0807	-1.8736	-0.7929	60.0321	99.9981	
  1037	 1.7040	-1.0492	 0.6547	 1.4926	-1.4188	 0.0737	 0.9881	-1.8352	-0.8471	59.6625	99.9989	
  1038	 1.6895	-1.0440	 0.6454	 1.4219	-1.4134	 0.0085	 0.8499	-1.8148	-0.9649	59.2396	99.9990	
  1039	 1.7544	-0.9615	 0.7927	 1.5862	-1.2632	 0.3230	 1.1894	-1.6444	-0.4550	59.6417	99.9983	
  1040	 1.8039	-1.0020	 0.8018	 1.5261	-1.3981	 0.1280	 0.8762	-1.8412	-0.9650	59.2987	99.9993	
  1041	 1.6119	-1.0918	 0.5201	 1.3153	-1.4668	-0.1515	 0.7434	-1.9139	-1.1704	59.3448	99.9989	
  1042	 1.5179	-1.1638	 0.3540	 1.1818	-1.5368	-0.3550	 0.5721	-1.9786	-1.4064	59.0948	99.9990	
  1043	 1.6004	-1.1556	 0.4447	 1.2928	-1.5174	-0.2247	 0.6725	-1.9799	-1.3074	59.2361	99.9990	
  1044	 1.5315	-1.1838	 0.3476	 1.1148	-1.3699	-0.2551	 0.8407	-1.8742	-1.0335	59.3659	99.9959	
  1045	 1.6769	-1.1226	 0.5542	 1.4298	-1.4942	-0.0645	 0.7967	-1.9555	-1.1587	59.4300	99.9992	
  1046	 1.5422	-1.1347	 0.4073	 1.3682	-1.4465	-0.0783	 0.9700	-1.8573	-0.8872	59.7836	99.9984	
  1047	 1.7341	-1.0449	 0.6891	 1.6043	-1.3867	 0.2176	 1.2035	-1.8714	-0.6679	60.3521	99.9986	
  1048	 1.4638	-1.3106	 0.1531	 1.0428	-1.6959	-0.6531	 0.3263	-2.2618	-1.9356	59.1771	99.9984	
  1049	 0.3568	-1.8503	-1.4936	-0.1485	-2.2706	-2.4191	-1.0530	-2.7424	-3.7955	57.8089	99.9993	
  1050	-0.1872	-1.9725	-2.1597	-0.5831	-2.3057	-2.8889	-1.3749	-2.8052	-4.1801	57.9387	99.9984	
  1051	-0.4632	-2.3267	-2.7900	-1.0164	-2.7318	-3.7482	-1.8827	-3.3603	-5.2430	58.1766	99.9974	
  1052	-1.2667	-2.7789	-4.0457	-1.7114	-3.1110	-4.8223	-2.4071	-3.6362	-6.0433	58.1277	99.9984	
  1053	-1.4996	-2.6954	-4.1950	-1.8135	-2.9903	-4.8038	-2.3888	-3.5174	-5.9062	58.4833	99.9981	
  1054	-1.4911	-2.4491	-3.9403	-1.7767	-2.7105	-4.4871	-2.3061	-3.1652	-5.4713	58.0470	99.9986	
  1055	-1.1114	-1.9885	-3.1000	-1.5277	-2.2388	-3.7665	-2.1392	-2.6206	-4.7598	56.9199	99.9989	
  1056	-1.0057	-1.9660	-2.9718	-1.5459	-2.3235	-3.8694	-2.2347	-2.7235	-4.9582	56.8621	99.9987	
  1057	-0.6691	-2.0565	-2.7257	-1.0007	-2.1712	-3.1719	-1.3858	-2.3402	-3.7260	56.9061	99.9967	
  1058	 0.4592	-1.4186	-0.9596	 0.7386	-1.2956	-0.5570	 1.1155	-1.3905	-0.2750	59.8034	99.9930	
  1059	 1.5499	-1.1299	 0.4199	 1.9593	-1.1803	 0.7790	 2.1890	-1.4452	 0.7437	61.4837	99.9969	
  1060	 1.4075	-1.2602	 0.1472	 1.8116	-1.2712	 0.5403	 1.9856	-1.4873	 0.4983	61.0258	99.9974	
  1061	 1.2687	-1.2180	 0.0507	 1.7272	-1.1763	 0.5508	 1.9107	-1.3412	 0.5695	60.6817	99.9977	
  1062	 0.9185	-1.1075	-0.1890	 1.3077	-0.9696	 0.3381	 1.5204	-1.0610	 0.4594	59.6308	99.9969	
  1063	 0.6497	-0.8902	-0.2406	 1.1898	-0.6872	 0.5026	 1.5478	-0.7006	 0.8472	59.5198	99.9963	
  1064	 0.7319	-0.6553	 0.0765	 1.3849	-0.4568	 0.9281	 1.7735	-0.4729	 1.3007	59.7664	99.9970	
  1065	 0.9325	-0.5459	 0.3865	 1.6250	-0.3334	 1.2916	 2.0479	-0.3648	 1.6831	59.9962	99.9971	
  1066	 1.1419	-0.4170	 0.7248	 1.9247	-0.1855	 1.7392	 2.4587	-0.2139	 2.2448	60.4501	99.9967	
  1067	 1.5539	-0.2626	 1.2912	 2.2263	-0.1098	 2.1165	 2.6072	-0.2493	 2.3580	60.5920	99.9976	
  1068	 1.5334	-0.1193	 1.4140	 2.2232	 0.0474	 2.2707	 2.7945	-0.0137	 2.7808	60.6498	99.9949	
  1069	 2.3496	 0.2981	 2.6475	 3.1665	 0.3714	 3.5379	 3.7046	 0.1829	 3.8875	61.8118	99.9969	
  1070	 2.9714	 0.1280	 3.0992	 3.3197	-0.1708	 3.1489	 3.3838	-0.6945	 2.6893	62.5799	99.9978	
  1071	 1.8871	-0.8656	 1.0214	 1.8570	-1.2678	 0.5892	 1.4955	-1.6558	-0.1602	60.5337	99.9986	
  1072	 0.9239	-1.6004	-0.6766	 1.1833	-1.7195	-0.5362	 1.2207	-1.9572	-0.7365	60.7519	99.9974	
  1073	 1.0033	-1.5231	-0.5199	 1.3973	-1.5999	-0.2026	 1.3858	-1.8105	-0.4248	60.7035	99.9987	
  1074	 1.3367	-1.3179	 0.0187	 1.5818	-1.4373	 0.1444	 1.4130	-1.7291	-0.3161	60.3951	99.9989	
  1075	 1.2999	-1.3122	-0.0124	 1.5498	-1.4325	 0.1173	 1.4226	-1.7552	-0.3327	60.6076	99.9987	
  1076	 1.5869	-1.2490	 0.3378	 1.7937	-1.4536	 0.3401	 1.5838	-1.8577	-0.2740	61.0358	99.9987	
  1077	 1.5743	-1.3276	 0.2467	 1.7033	-1.5583	 0.1449	 1.4954	-1.9347	-0.4393	60.8911	99.9987	
  1078	 1.5919	-1.4018	 0.1899	 1.6582	-1.6596	-0.0013	 1.4166	-2.0378	-0.6212	60.8230	99.9986	
  1079	 1.4222	-1.4921	-0.0699	 1.5524	-1.7003	-0.1478	 1.4044	-2.0563	-0.6519	60.9383	99.9983	
  1080	 1.4001	-1.6050	-0.2050	 1.4864	-1.8266	-0.3402	 1.3120	-2.2001	-0.8882	60.9570	99.9983	
  1081	 1.1200	-1.7916	-0.6717	 1.2558	-2.0054	-0.7496	 1.1475	-2.3356	-1.1881	61.0516	99.9980	
  1082	 1.0473	-1.8789	-0.8317	 1.1677	-2.0719	-0.9042	 1.1281	-2.3800	-1.2519	61.0615	99.9971	
  1083	 1.0715	-1.8498	-0.7783	 1.2080	-2.0471	-0.8391	 1.1346	-2.3652	-1.2306	61.0582	99.9977	
  1084	 1.1491	-1.8020	-0.6531	 1.2886	-1.9975	-0.7089	 1.1810	-2.3361	-1.1551	61.0549	99.9981	
  1085	 1.2062	-1.7243	-0.5182	 1.3379	-1.9303	-0.5924	 1.1837	-2.2915	-1.1078	61.0027	99.9984	
  1086	 1.2469	-1.6709	-0.4241	 1.3411	-1.8794	-0.5383	 1.2024	-2.2582	-1.0558	60.9993	99.9981	
  1087	 1.2895	-1.5880	-0.2986	 1.3755	-1.8460	-0.4705	 1.1980	-2.2396	-1.0416	61.0708	99.9983	
  1088	 1.3031	-1.6080	-0.3050	 1.3688	-1.8501	-0.4813	 1.2038	-2.2359	-1.0321	60.9876	99.9981	
  1089	 1.3099	-1.6180	-0.3082	 1.3806	-1.8673	-0.4867	 1.2140	-2.2509	-1.0369	61.0300	99.9981	
  1090	 1.2701	-1.6566	-0.3866	 1.3210	-1.8918	-0.5708	 1.1625	-2.2726	-1.1101	60.9417	99.9980	
  1091	 1.2013	-1.6848	-0.4836	 1.2681	-1.9121	-0.6441	 1.1117	-2.2831	-1.1714	60.9010	99.9980	
  1092	 1.1868	-1.6796	-0.4929	 1.2554	-1.9077	-0.6522	 1.1065	-2.2756	-1.1690	60.9027	99.9980	
  1093	 1.2032	-1.6553	-0.4521	 1.2882	-1.8997	-0.6115	 1.1355	-2.2574	-1.1218	60.9485	99.9980	
  1094	 1.2469	-1.6709	-0.4241	 1.3016	-1.8915	-0.5898	 1.1632	-2.2614	-1.0982	60.9061	99.9978	
  1095	 1.2488	-1.6414	-0.3927	 1.3277	-1.8877	-0.5600	 1.1639	-2.2503	-1.0864	60.9468	99.9981	
  1096	 1.2478	-1.6562	-0.4084	 1.3016	-1.8915	-0.5898	 1.1413	-2.2537	-1.1124	60.8585	99.9979	
  1097	 1.2333	-1.6509	-0.4178	 1.2705	-1.8739	-0.6035	 1.1137	-2.2496	-1.1359	60.8125	99.9979	
  1098	 1.2197	-1.6310	-0.4114	 1.2713	-1.8612	-0.5899	 1.1034	-2.2346	-1.1312	60.8125	99.9980	
  1099	 1.2653	-1.6171	-0.3519	 1.3368	-1.8453	-0.5085	 1.1608	-2.2093	-1.0486	60.8195	99.9982	
  1100	 1.3263	-1.5937	-0.2674	 1.3779	-1.8078	-0.4299	 1.2020	-2.1727	-0.9706	60.7364	99.9981	
  1101	 1.3583	-1.5598	-0.2016	 1.4106	-1.7998	-0.3892	 1.2020	-2.1727	-0.9706	60.7700	99.9983	
  1102	 1.3118	-1.5884	-0.2768	 1.3502	-1.8370	-0.4868	 1.1608	-2.2093	-1.0486	60.8090	99.9981	
  1103	 1.2517	-1.5971	-0.3455	 1.3115	-1.8364	-0.5249	 1.1498	-2.2055	-1.0556	60.8602	99.9980	
  1104	 1.3205	-1.5689	-0.2485	 1.3660	-1.7906	-0.4245	 1.1751	-2.1575	-0.9824	60.6886	99.9982	
  1105	 1.3583	-1.5598	-0.2016	 1.3996	-1.7699	-0.3703	 1.2368	-2.1508	-0.9140	60.7806	99.9980	
  1106	 1.3641	-1.5846	-0.2205	 1.4292	-1.8129	-0.3837	 1.2689	-2.1735	-0.9046	60.8705	99.9980	
  1107	 1.3990	-1.5064	-0.1075	 1.5674	-1.6665	-0.0991	 1.4862	-1.9941	-0.5079	60.9266	99.9981	
  1108	 1.6305	-1.2646	 0.3658	 1.7188	-1.4141	 0.3046	 1.5113	-1.7638	-0.2525	60.3559	99.9985	
  1109	 1.6479	-1.2255	 0.4223	 1.5162	-1.4532	 0.0630	 0.9656	-1.8386	-0.8730	59.2161	99.9990	
  1110	 1.4220	-1.2654	 0.1565	 1.1869	-1.5581	-0.3712	 0.4789	-1.9514	-1.4724	58.6272	99.9992	
  1111	 1.3163	-1.2879	 0.0283	 1.0373	-1.5768	-0.5395	 0.2936	-1.9713	-1.6777	58.3294	99.9992	
  1112	 1.3289	-1.2093	 0.1195	 1.1270	-1.4849	-0.3579	 0.4205	-1.9023	-1.4817	58.6324	99.9988	
  1113	 1.1823	-1.0585	 0.1237	 0.7777	-1.3940	-0.6163	-0.0161	-1.8334	-1.8495	57.8530	99.9992	
  1114	 0.6924	-0.9206	-0.2283	 0.3637	-1.0981	-0.7343	-0.0692	-1.5129	-1.5821	57.9251	99.9980	
  1115	 0.6787	-0.7873	-0.1087	 0.3626	-1.0131	-0.6505	-0.1416	-1.4189	-1.5606	57.7715	99.9985	
  1116	 0.8464	-0.7265	 0.1198	 0.4802	-0.9896	-0.5093	-0.2679	-1.4768	-1.7447	57.4363	99.9981	
  1117	 0.7339	-0.7391	-0.0053	 0.3002	-0.9780	-0.6778	-0.2239	-1.3956	-1.6195	57.4617	99.9981	
  1118	 1.0920	-0.9582	 0.1337	 0.7431	-1.1215	-0.3784	 0.3236	-1.3840	-1.0605	57.6034	99.9972	
  1119	 1.2498	-0.7050	 0.5447	 1.0835	-0.8383	 0.2452	 0.6671	-1.1467	-0.4796	58.0769	99.9986	
  1120	 1.6685	-0.4473	 1.2212	 1.6773	-0.6317	 1.0457	 1.2838	-1.0059	 0.2779	59.1349	99.9989	
  1121	 1.5940	-0.5641	 1.0298	 1.5122	-0.7946	 0.7177	 1.0620	-1.1667	-0.1046	58.9462	99.9990	
  1122	 1.5019	-0.6066	 0.8952	 1.2809	-0.7779	 0.5030	 0.6640	-1.1057	-0.4417	57.6610	99.9991	
  1123	 1.5338	-0.5727	 0.9610	 1.4002	-0.7289	 0.6712	 0.9357	-1.0423	-0.1066	58.2236	99.9990	
  1124	 1.9244	-0.2898	 1.6345	 1.9917	-0.3523	 1.6394	 1.7454	-0.6622	 1.0832	59.0429	99.9985	
  1125	 2.1765	-0.1913	 1.9851	 2.2866	-0.2808	 2.0058	 2.0188	-0.6620	 1.3568	59.5503	99.9982	
  1126	 2.1086	-0.2047	 1.9038	 2.1682	-0.3170	 1.8511	 1.8700	-0.7233	 1.1467	59.4743	99.9982	
  1127	 2.0407	-0.2182	 1.8225	 2.0892	-0.3412	 1.7480	 1.7638	-0.7257	 1.0382	59.2940	99.9984	
  1128	 2.0106	-0.2225	 1.7881	 2.0430	-0.3574	 1.6856	 1.7116	-0.7585	 0.9532	59.3225	99.9984	
  1129	 1.9496	-0.2459	 1.7036	 1.9625	-0.4070	 1.5554	 1.5693	-0.8050	 0.7644	59.1648	99.9986	
  1130	 1.9641	-0.2511	 1.7129	 2.0019	-0.3950	 1.6070	 1.6151	-0.7870	 0.8281	59.1786	99.9985	
  1131	 1.9496	-0.2459	 1.7036	 1.9893	-0.3905	 1.5988	 1.5816	-0.7865	 0.7951	59.1296	99.9984	
  1132	 1.9273	-0.2455	 1.6817	 1.9498	-0.4026	 1.5473	 1.5076	-0.8116	 0.6959	59.0667	99.9983	
  1133	 1.8110	-0.3171	 1.4938	 1.7820	-0.5060	 1.2760	 1.3021	-0.8871	 0.4151	58.8171	99.9988	
  1134	 1.7198	-0.3448	 1.3749	 1.6584	-0.5209	 1.1376	 1.1895	-0.9042	 0.2853	58.6774	99.9988	
  1135	 1.6994	-0.3148	 1.3845	 1.6667	-0.4913	 1.1755	 1.2199	-0.8637	 0.3562	58.7371	99.9988	
  1136	 1.7372	-0.3057	 1.4314	 1.7181	-0.4964	 1.2217	 1.2301	-0.8787	 0.3514	58.7697	99.9988	
  1137	 1.7208	-0.3300	 1.3906	 1.6719	-0.5126	 1.1593	 1.1561	-0.9038	 0.2523	58.6224	99.9986	
  1138	 1.6762	-0.3291	 1.3469	 1.6273	-0.5033	 1.1239	 1.1233	-0.8922	 0.2311	58.5824	99.9986	
  1139	 1.6539	-0.3287	 1.3251	 1.6020	-0.4944	 1.1076	 1.1182	-0.8847	 0.2334	58.5874	99.9986	
  1140	 1.6635	-0.2944	 1.3690	 1.6372	-0.4483	 1.1889	 1.1994	-0.8337	 0.3657	58.6997	99.9986	
  1141	 1.7585	-0.2076	 1.5508	 1.7908	-0.3659	 1.4249	 1.3791	-0.7207	 0.6585	58.8256	99.9989	
  1142	 1.7536	-0.1681	 1.5854	 1.8930	-0.2784	 1.6146	 1.5440	-0.6708	 0.8732	59.2126	99.9981	
  1143	 1.8680	-0.1260	 1.7419	 2.0265	-0.2084	 1.8181	 1.7043	-0.6022	 1.1022	59.2812	99.9979	
  1144	 1.9116	-0.1416	 1.7699	 1.9890	-0.2928	 1.6962	 1.5181	-0.7299	 0.7881	59.1158	99.9975	
  1145	 1.7294	-0.1971	 1.5321	 1.8974	-0.3125	 1.5849	 1.6225	-0.6643	 0.9582	59.3689	99.9987	
  1146	 1.9136	-0.1121	 1.8013	 1.9720	-0.2542	 1.7178	 1.4081	-0.7025	 0.7057	58.7893	99.9965	
  1147	 1.3503	-0.3029	 1.0473	 1.1682	-0.5168	 0.6513	 0.2567	-0.9220	-0.6653	56.9794	99.9965	
  1148	 1.1351	-0.4070	 0.7279	 0.9151	-0.5380	 0.3771	-0.0161	-0.9110	-0.9271	56.3043	99.9959	
  1149	 1.1885	-0.5018	 0.6867	 1.0130	-0.6247	 0.3883	 0.0707	-0.9530	-0.8824	56.3314	99.9962	
  1150	 1.2468	-0.6360	 0.6108	 1.0654	-0.7148	 0.3506	 0.0666	-1.0199	-0.9533	56.0594	99.9952	
  1151	 1.0974	-0.5295	 0.5678	 1.0078	-0.6033	 0.4045	 0.0696	-0.8786	-0.8090	56.1685	99.9957	
  1152	 1.1159	-0.5890	 0.5268	 0.8333	-0.7109	 0.1224	-0.2590	-1.0529	-1.3119	55.6340	99.9947	
  1153	 1.0257	-0.6020	 0.4236	 0.8483	-0.6771	 0.1712	-0.0703	-0.9773	-1.0475	56.0768	99.9963	
  1154	 1.0045	-0.7001	 0.3042	 0.8317	-0.7363	 0.0954	-0.0839	-1.0180	-1.1019	55.9567	99.9961	
  1155	 0.9861	-0.7540	 0.2320	 0.7689	-0.8118	-0.0428	-0.2419	-1.1387	-1.3806	55.8278	99.9943	
  1156	 0.8145	-0.8738	-0.0593	 0.5766	-0.8935	-0.3169	-0.3995	-1.1627	-1.5622	55.4843	99.9958	
  1157	 0.8630	-0.8156	 0.0473	 0.6840	-0.8273	-0.1433	-0.2610	-1.0864	-1.3474	55.6704	99.9958	
  1158	 0.8814	-0.7617	 0.1195	 0.6177	-0.8559	-0.2382	-0.4961	-1.1912	-1.6873	55.4718	99.9935	
  1159	 0.6806	-0.7577	-0.0772	 0.3496	-0.9109	-0.5613	-0.5845	-1.2682	-1.8526	55.9623	99.9974	
  1160	 0.6960	-0.6348	 0.0611	 0.3260	-0.8765	-0.5505	-0.5189	-1.2913	-1.8102	56.5721	99.9984	
  1161	 0.7347	-0.4976	 0.2369	 0.3142	-0.6511	-0.3369	-0.1129	-1.0362	-1.1491	57.1103	99.9974	
  1162	 0.9082	-0.4617	 0.4465	 0.7702	-0.6886	 0.0816	 0.3462	-1.1016	-0.7554	58.4123	99.9987	
  1163	 1.1718	-0.2994	 0.8724	 1.1023	-0.4350	 0.6673	 0.6481	-0.8154	-0.1673	58.0958	99.9985	
  1164	 1.4161	-0.2057	 1.2104	 1.3644	-0.3714	 0.9930	 0.8276	-0.7991	 0.0285	58.2958	99.9979	
  1165	 1.3851	-0.2248	 1.1603	 1.2476	-0.3822	 0.8654	 0.7105	-0.7976	-0.0871	57.9695	99.9983	
  1166	 1.3085	-0.2577	 1.0507	 1.1753	-0.4022	 0.7731	 0.6122	-0.7629	-0.1507	57.6268	99.9987	
  1167	 1.3560	-0.2143	 1.1416	 1.2164	-0.3647	 0.8517	 0.7010	-0.7715	-0.0705	57.9349	99.9984	
  1168	 1.3492	-0.2043	 1.1448	 1.1777	-0.3640	 0.8137	 0.6784	-0.7749	-0.0965	57.9266	99.9984	
  1169	 1.3337	-0.2139	 1.1197	 1.1702	-0.3809	 0.7893	 0.6771	-0.7972	-0.1201	58.0123	99.9984	
  1170	 1.3415	-0.2091	 1.1323	 1.2164	-0.3647	 0.8517	 0.7460	-0.7646	-0.0186	58.0823	99.9985	
  1171	 1.3812	-0.1705	 1.2106	 1.2768	-0.3275	 0.9493	 0.8368	-0.7397	 0.0970	58.2715	99.9984	
  1172	 1.3744	-0.1605	 1.2138	 1.2701	-0.3316	 0.9385	 0.8201	-0.7395	 0.0805	58.2663	99.9985	
  1173	 1.3143	-0.1691	 1.1450	 1.2046	-0.3475	 0.8571	 0.7467	-0.7535	-0.0068	58.2130	99.9986	
  1174	 1.2842	-0.1735	 1.1106	 1.1659	-0.3468	 0.8190	 0.7300	-0.7532	-0.0233	58.2157	99.9986	
  1175	 1.2997	-0.1639	 1.1357	 1.1994	-0.3262	 0.8733	 0.7596	-0.7239	 0.0358	58.1837	99.9986	
  1176	 1.3230	-0.1496	 1.1733	 1.2583	-0.3144	 0.9439	 0.7828	-0.7093	 0.0735	58.1863	99.9986	
  1177	 1.2929	-0.1539	 1.1389	 1.2062	-0.3220	 0.8841	 0.7371	-0.7273	 0.0098	58.1757	99.9985	
  1178	 1.2629	-0.1583	 1.1045	 1.1608	-0.3255	 0.8352	 0.6876	-0.7155	-0.0279	58.0423	99.9987	
  1179	 1.2406	-0.1578	 1.0826	 1.1221	-0.3249	 0.7972	 0.6535	-0.7262	-0.0727	58.0341	99.9986	
  1180	 1.1882	-0.1617	 1.0264	 1.0565	-0.3407	 0.7158	 0.5968	-0.7404	-0.1435	58.0260	99.9986	
  1181	 1.1882	-0.1617	 1.0264	 1.0700	-0.3325	 0.7375	 0.6033	-0.7256	-0.1223	57.9887	99.9987	
  1182	 1.2260	-0.1526	 1.0733	 1.1162	-0.3163	 0.7999	 0.6258	-0.7222	-0.0963	57.9859	99.9985	
  1183	 1.1959	-0.1569	 1.0389	 1.0826	-0.3369	 0.7457	 0.5634	-0.7399	-0.1766	57.9266	99.9986	
  1184	 1.1349	-0.1803	 0.9544	 0.9641	-0.3732	 0.5910	 0.4276	-0.7717	-0.3441	57.7212	99.9987	
  1185	 1.0360	-0.2129	 0.8230	 0.8457	-0.4094	 0.4363	 0.3259	-0.7927	-0.4668	57.6266	99.9989	
  1186	 0.9846	-0.2020	 0.7825	 0.8137	-0.4046	 0.4091	 0.2982	-0.7886	-0.4904	57.6725	99.9989	
  1187	 1.0069	-0.2024	 0.8044	 0.8280	-0.3836	 0.4443	 0.3163	-0.7665	-0.4502	57.5922	99.9988	
  1188	 1.0369	-0.1981	 0.8387	 0.8741	-0.3674	 0.5067	 0.3234	-0.7406	-0.4171	57.4632	99.9988	
  1189	 1.0301	-0.1881	 0.8419	 0.8615	-0.3629	 0.4986	 0.3286	-0.7481	-0.4195	57.5492	99.9987	
  1190	 1.0233	-0.1781	 0.8451	 0.8497	-0.3457	 0.5039	 0.3190	-0.7219	-0.4029	57.4661	99.9988	
  1191	 1.0243	-0.1633	 0.8609	 0.8438	-0.3371	 0.5066	 0.3306	-0.7146	-0.3840	57.5120	99.9988	
  1192	 1.0175	-0.1534	 0.8640	 0.8378	-0.3286	 0.5093	 0.3203	-0.6996	-0.3793	57.4691	99.9988	
  1193	 1.0029	-0.1481	 0.8547	 0.8252	-0.3241	 0.5011	 0.3313	-0.7035	-0.3722	57.5608	99.9988	
  1194	 1.0321	-0.1586	 0.8734	 0.8521	-0.3075	 0.5445	 0.3377	-0.6887	-0.3510	57.4320	99.9986	
  1195	 1.0330	-0.1438	 0.8891	 0.8840	-0.3123	 0.5717	 0.3275	-0.6737	-0.3462	57.3861	99.9989	
  1196	 1.0039	-0.1334	 0.8704	 0.8462	-0.2989	 0.5472	 0.3166	-0.6698	-0.3533	57.4320	99.9988	
  1197	 0.9961	-0.1381	 0.8579	 0.8142	-0.2942	 0.5200	 0.3159	-0.6810	-0.3651	57.4749	99.9986	
  1198	 0.9816	-0.1329	 0.8486	 0.7948	-0.2938	 0.5010	 0.2838	-0.6582	-0.3745	57.3432	99.9988	
  1199	 0.9525	-0.1225	 0.8299	 0.7696	-0.2849	 0.4847	 0.2722	-0.6655	-0.3933	57.4291	99.9987	
  1200	 0.9457	-0.1125	 0.8331	 0.7763	-0.2808	 0.4955	 0.2787	-0.6507	-0.3721	57.4349	99.9988	
  1201	 0.9690	-0.0982	 0.8707	 0.8292	-0.2604	 0.5688	 0.2909	-0.6323	-0.3414	57.3920	99.9988	
  1202	 0.9690	-0.0982	 0.8707	 0.8107	-0.2474	 0.5633	 0.2909	-0.6323	-0.3414	57.3920	99.9986	
  1203	 0.9612	-0.1029	 0.8582	 0.7787	-0.2426	 0.5361	 0.2742	-0.6321	-0.3579	57.3461	99.9985	
  1204	 0.9321	-0.0925	 0.8395	 0.7593	-0.2422	 0.5171	 0.2633	-0.6282	-0.3649	57.3920	99.9986	
  1205	 0.9098	-0.0921	 0.8176	 0.7333	-0.2461	 0.4872	 0.2408	-0.6316	-0.3909	57.3891	99.9986	
  1206	 0.8729	-0.0864	 0.7864	 0.6879	-0.2495	 0.4383	 0.1913	-0.6199	-0.4286	57.2972	99.9988	
  1207	 0.8584	-0.0812	 0.7771	 0.6828	-0.2282	 0.4546	 0.2196	-0.6128	-0.3932	57.3979	99.9986	
  1208	 0.9117	-0.0625	 0.8491	 0.7550	-0.2082	 0.5468	 0.2544	-0.5909	-0.3365	57.3550	99.9986	
  1209	 0.9272	-0.0530	 0.8741	 0.7811	-0.2044	 0.5767	 0.2551	-0.5798	-0.3247	57.3092	99.9987	
  1210	 0.8981	-0.0425	 0.8555	 0.7491	-0.1996	 0.5495	 0.2383	-0.5795	-0.3412	57.3521	99.9987	
  1211	 0.8690	-0.0321	 0.8368	 0.7171	-0.1948	 0.5223	 0.1997	-0.5716	-0.3719	57.3032	99.9987	
  1212	 0.8467	-0.0317	 0.8149	 0.6852	-0.1900	 0.4951	 0.1779	-0.5639	-0.3860	57.2603	99.9987	
  1213	 0.8389	-0.0364	 0.8024	 0.6532	-0.1852	 0.4680	 0.1612	-0.5637	-0.4025	57.2143	99.9986	
  1214	 0.7962	-0.0060	 0.7901	 0.6346	-0.1722	 0.4625	 0.1451	-0.5523	-0.4072	57.3032	99.9987	
  1215	 0.8486	-0.0021	 0.8464	 0.6935	-0.1604	 0.5331	 0.1799	-0.5304	-0.3505	57.2204	99.9988	
  1216	 0.8641	 0.0074	 0.8714	 0.7077	-0.1394	 0.5683	 0.1966	-0.5307	-0.3340	57.2633	99.9985	
  1217	 0.8496	 0.0126	 0.8621	 0.6951	-0.1349	 0.5601	 0.1748	-0.5229	-0.3481	57.2173	99.9986	
  1218	 0.8350	 0.0179	 0.8528	 0.6690	-0.1387	 0.5302	 0.1639	-0.5191	-0.3552	57.2173	99.9987	
  1219	 0.8137	 0.0331	 0.8466	 0.6631	-0.1302	 0.5329	 0.1536	-0.5041	-0.3504	57.2204	99.9988	
  1220	 0.7991	 0.0383	 0.8373	 0.6370	-0.1340	 0.5031	 0.1202	-0.5036	-0.3835	57.1683	99.9989	
  1221	 0.7622	 0.0440	 0.8061	 0.5991	-0.1206	 0.4786	 0.0816	-0.4957	-0.4141	57.1223	99.9988	
  1222	 0.7632	 0.0587	 0.8218	 0.5873	-0.1034	 0.4839	 0.0881	-0.4809	-0.3928	57.1254	99.9987	
