OxySoft export of:	C:\Users\TO3 TechSupport\Documents\Train2Adapt\Post_tests\T2A_41_POST_NIRS_2
Export date:	2022/12/21 00:01:00
Start of measurement:	2022-12-20 23:05:53.001

Datafile sample rate:	10.00	Hz
Datafile duration:	3289.700	s
Datafile total number of samples:	32897

Description:	

Optode-template:	PortaMon TSI Fit Factor
Optode distance (mm):	 35.00
Optode gradients (mm):	 5.00
DPF:	6.58

Device id:	334
# Receivers:	1
# Light sources:	6
# ADC:	2

Light source wavelengths:
device	index	wavelength
1	1	849	nm
1	2	759	nm
1	3	846	nm
1	4	757	nm
1	5	848	nm
1	6	757	nm

Export sample rate:	10.00	Hz
Selected time span:	0	3289.700
Selected time span (sample numbers):	0	32897


Legend:
Column	Trace (Measurement)
1	(Sample number)
2	Rx1-Tx1 O2Hb (T2A_41_POST_NIRS_2)
3	Rx1-Tx1 HHb (T2A_41_POST_NIRS_2)
4	Rx1-Tx1 tHb (T2A_41_POST_NIRS_2)
5	Rx1-Tx2 O2Hb (T2A_41_POST_NIRS_2)
6	Rx1-Tx2 HHb (T2A_41_POST_NIRS_2)
7	Rx1-Tx2 tHb (T2A_41_POST_NIRS_2)
8	Rx1-Tx3 O2Hb (T2A_41_POST_NIRS_2)
9	Rx1-Tx3 HHb (T2A_41_POST_NIRS_2)
10	Rx1-Tx3 tHb (T2A_41_POST_NIRS_2)
11	Rx1-Tx1,Tx2,Tx3 TSI% (T2A_41_POST_NIRS_2)
12	Rx1-Tx1,Tx2,Tx3 TSI Fit Factor (T2A_41_POST_NIRS_2)
13	(Event)


1	2	3	4	5	6	7	8	9	10	11	12	13
     0	101.4763	50.4569	151.9332	76.7886	39.0413	115.8293	56.8865	33.8223	90.7091	11.5652	98.7634	
     1	 0.2303	-0.1127	 0.1176	 0.2283	-0.0547	 0.1731	 0.1770	-0.0171	 0.1603	66.6975	99.9777	
     2	 0.1046	-0.1053	-0.0007	 0.0968	-0.0990	-0.0027	 0.0653	-0.0231	 0.0427	66.6984	99.9752	
     3	 0.1722	-0.0919	 0.0803	 0.1905	-0.0413	 0.1487	 0.1770	-0.0171	 0.1603	66.8167	99.9772	
     4	 0.3143	-0.0751	 0.2393	 0.3833	-0.0446	 0.3383	 0.3186	-0.0671	 0.2518	67.0580	99.9802	
     5	 0.3434	-0.0855	 0.2579	 0.3833	-0.0446	 0.3383	 0.2828	-0.0148	 0.2684	66.7876	99.9797	
     6	 0.2167	-0.0928	 0.1239	 0.2660	-0.0680	 0.1975	 0.1770	-0.0171	 0.1603	66.7578	99.9790	
     7	 0.1722	-0.0919	 0.0803	 0.1637	-0.0578	 0.1054	 0.1416	-0.0500	 0.0920	66.8492	99.9769	
     8	 0.1345	-0.1010	 0.0336	 0.1260	-0.0445	 0.0810	 0.1011	-0.0755	 0.0261	66.8804	99.9781	
     9	 0.2322	-0.0833	 0.1489	 0.2366	-0.0252	 0.2109	 0.2065	 0.0122	 0.2191	66.7264	99.9772	
    10	 0.2418	-0.0491	 0.1927	 0.2071	 0.0177	 0.2243	 0.2828	-0.0148	 0.2684	66.9959	99.9750	
    11	 0.1877	-0.0824	 0.1053	 0.1637	-0.0578	 0.1054	 0.1416	-0.0500	 0.0920	66.8499	99.9764	
    12	 0.1490	-0.1062	 0.0429	 0.1554	-0.0873	 0.0676	 0.1011	-0.0755	 0.0261	66.8506	99.9778	
    13	 0.1587	-0.0720	 0.0867	 0.1637	-0.0578	 0.1054	 0.0653	-0.0231	 0.0427	66.7005	99.9784	
    14	 0.0910	-0.0854	 0.0056	 0.0378	-0.0133	 0.0240	 0.0245	 0.0368	 0.0616	66.5175	99.9755	
    15	 0.0571	-0.0355	 0.0216	 0.0378	-0.0133	 0.0240	 0.0649	 0.0622	 0.1275	66.6662	99.9735	
    16	 0.1547	-0.0178	 0.1369	 0.1693	 0.0310	 0.1998	 0.2065	 0.0122	 0.2191	66.9662	99.9766	
    17	 0.2031	-0.0729	 0.1303	 0.1905	-0.0413	 0.1487	 0.1007	 0.0098	 0.1109	66.6091	99.9778	
    18	 0.1983	-0.0335	 0.1648	 0.2071	 0.0177	 0.2243	 0.1657	 0.0720	 0.2381	66.6361	99.9772	
    19	 0.0977	 0.0177	 0.1154	 0.0811	 0.0622	 0.1428	 0.1003	 0.0951	 0.1958	66.6963	99.9753	
    20	 0.0000	-0.0000	 0.0000	 0.0000	 0.0000	-0.0004	-0.0000	 0.0000	 0.0004	66.8804	99.9762	
    21	 0.1306	-0.0468	 0.0838	 0.1260	-0.0445	 0.0810	 0.0358	-0.0524	-0.0162	66.8230	99.9787	
    22	 0.1587	-0.0720	 0.0867	 0.1024	-0.0102	 0.0917	 0.0653	-0.0231	 0.0427	66.7005	99.9772	
    23	 0.2156	 0.0055	 0.2211	 0.1984	 0.0856	 0.2836	 0.2061	 0.0975	 0.3040	66.6954	99.9766	
    24	 0.0155	 0.0095	 0.0250	-0.0613	 0.0477	-0.0142	 0.0245	 0.0368	 0.0616	66.8187	99.9728	
    25	 0.0136	-0.0199	-0.0063	-0.0377	 0.0134	-0.0249	-0.0763	 0.0269	-0.0489	66.6108	99.9764	
    26	 0.0426	-0.0303	 0.0123	 0.0142	 0.0210	 0.0347	-0.0000	 0.0000	 0.0004	66.7603	99.9772	
    27	 0.1712	 0.0064	 0.1776	 0.1398	 0.0739	 0.2132	 0.1003	 0.0951	 0.1958	66.5776	99.9772	
    28	 0.1170	-0.0269	 0.0901	 0.0646	 0.0032	 0.0672	-0.0409	 0.0599	 0.0194	66.4299	99.9772	
    29	 0.1170	-0.0269	 0.0901	 0.0351	 0.0460	 0.0806	-0.0763	 0.0269	-0.0489	66.4618	99.9789	
    30	 0.1170	-0.0269	 0.0901	 0.0351	 0.0460	 0.0806	-0.0763	 0.0269	-0.0489	66.4618	99.9789	
    31	 0.0726	-0.0260	 0.0465	-0.0236	 0.0343	 0.0103	-0.1525	 0.0539	-0.0982	66.3109	99.9782	
    32	-0.0590	 0.0061	-0.0529	-0.0881	 0.0312	-0.0574	-0.1934	 0.1137	-0.0792	66.3089	99.9771	
    33	 0.0387	 0.0238	 0.0625	 0.0351	 0.0460	 0.0806	-0.1171	 0.0868	-0.0299	66.4306	99.9797	
    34	 0.1421	 0.0168	 0.1589	 0.0725	 0.1301	 0.2021	-0.0113	 0.0891	 0.0782	66.4599	99.9794	
    35	 0.1412	 0.0021	 0.1433	 0.0811	 0.0622	 0.1428	-0.1525	 0.0539	-0.0982	66.2822	99.9820	
    36	 0.0560	 0.0627	 0.1188	 0.0222	 0.1479	 0.1696	-0.0880	 0.2014	 0.1138	66.2171	99.9787	
    37	-0.0610	 0.0896	 0.0287	-0.1203	 0.1334	 0.0126	-0.1938	 0.1990	 0.0056	66.2481	99.9762	
    38	-0.2166	 0.0928	-0.1239	-0.2250	 0.1055	-0.1200	-0.3354	 0.2491	-0.0859	66.0666	99.9761	
    39	-0.2476	 0.0737	-0.1738	-0.3860	 0.1040	-0.2825	-0.3350	 0.1638	-0.1708	66.3089	99.9705	
    40	-0.2968	 0.0010	-0.2958	-0.3436	-0.0408	-0.3848	-0.5583	-0.1263	-0.6842	66.6536	99.9818	
    41	-0.4929	-0.1621	-0.6550	-0.6105	-0.1930	-0.8040	-0.9117	-0.3590	-1.2704	66.6017	99.9837	
    42	-0.7064	-0.3642	-1.0706	-0.8734	-0.2817	-1.1556	-1.2872	-0.6805	-1.9673	66.7062	99.9859	
    43	-0.6057	-0.5284	-1.1340	-0.9984	-0.7371	-1.7360	-1.7968	-0.8297	-2.6261	65.7127	99.9869	
    44	-0.8549	-0.7101	-1.5650	-1.2535	-0.9065	-2.1605	-1.7582	-1.0193	-2.7771	66.2795	99.9804	
    45	-0.7032	-0.6591	-1.3623	-1.0811	-0.8247	-1.9063	-1.5770	-0.8733	-2.4499	66.0879	99.9798	
    46	-0.7766	-0.7608	-1.5374	-1.1933	-0.8694	-2.0631	-1.6463	-0.9169	-2.5629	65.9622	99.9788	
    47	-0.9457	-0.8508	-1.7965	-1.3279	-0.9645	-2.2929	-1.8195	-0.9295	-2.7487	65.7111	99.9787	
    48	-1.1052	-0.9066	-2.0117	-1.4795	-1.0213	-2.5012	-1.9314	-1.0319	-2.9629	65.8998	99.9788	
    49	-1.1225	-0.9455	-2.0680	-1.5917	-1.0660	-2.6581	-2.1404	-0.9921	-3.1321	65.3331	99.9773	
    50	-1.3758	-0.9601	-2.3359	-1.6688	-1.0647	-2.7339	-2.1404	-0.9921	-3.1321	65.6483	99.9796	
    51	-1.2743	-0.9965	-2.2708	-1.6436	-1.0735	-2.7177	-2.1097	-1.0370	-3.1463	65.6170	99.9790	
    52	-1.3632	-0.9948	-2.3580	-1.6967	-0.9964	-2.6936	-2.0870	-0.9372	-3.0238	65.4916	99.9786	
    53	-1.4540	-1.1354	-2.5894	-1.8775	-1.3153	-3.1933	-2.5281	-1.3320	-3.8597	65.6495	99.9822	
    54	-1.5893	-1.1622	-2.7515	-2.0585	-1.3292	-3.3882	-2.6659	-1.3117	-3.9772	65.4584	99.9796	
    55	-1.7130	-1.2383	-2.9513	-2.1798	-1.4161	-3.5964	-2.9098	-1.3901	-4.2995	65.2337	99.9826	
    56	-2.1575	-1.4555	-3.6130	-2.5372	-1.5752	-4.1130	-3.0867	-1.5547	-4.6409	65.5221	99.9809	
    57	-2.3082	-1.6048	-3.9130	-2.6110	-1.8281	-4.4396	-3.2577	-1.7156	-4.9729	65.5539	99.9812	
    58	-2.4078	-1.6519	-4.0597	-2.6897	-1.8522	-4.5424	-3.3122	-1.6964	-5.0082	65.4264	99.9804	
    59	-2.4107	-1.5831	-3.9938	-2.6975	-1.7716	-4.4696	-3.3139	-1.6333	-4.9469	65.3945	99.9808	
    60	-2.3797	-1.6770	-4.0567	-2.7255	-1.9109	-4.6370	-3.4067	-1.7879	-5.1942	65.4256	99.9807	
    61	-2.5266	-1.7675	-4.2940	-2.8795	-2.0058	-4.8857	-3.5353	-1.8900	-5.4249	65.4896	99.9800	
    62	-2.6513	-1.7453	-4.3966	-2.9015	-1.9461	-4.8480	-3.5190	-1.8050	-5.3236	65.4900	99.9814	
    63	-2.6108	-1.6921	-4.3028	-2.8640	-1.8620	-4.7265	-3.4391	-1.6799	-5.1186	65.3312	99.9797	
    64	-2.4061	-1.3965	-3.8025	-2.5974	-1.4048	-4.0026	-3.0274	-1.2180	-4.2450	65.1144	99.9801	
    65	-2.0891	-1.2013	-3.2905	-2.2978	-1.2446	-3.5429	-2.8072	-1.1652	-3.9721	65.3652	99.9834	
    66	-2.0330	-1.2516	-3.2846	-2.2222	-1.2713	-3.4941	-2.7596	-1.1139	-3.8732	65.1141	99.9833	
    67	-1.9576	-1.2335	-3.1911	-2.2065	-1.2250	-3.4320	-2.7358	-1.0883	-3.8237	65.0194	99.9827	
    68	-1.8541	-1.2404	-3.0946	-2.1152	-1.2054	-3.3210	-2.5378	-1.1242	-3.6616	65.3346	99.9812	
    69	-1.4154	-0.9986	-2.4141	-1.7302	-1.0170	-2.7477	-2.1751	-1.0139	-3.1886	65.6169	99.9813	
    70	-0.8346	-0.7400	-1.5746	-1.3219	-0.7655	-2.0879	-2.0058	-0.7899	-2.7953	65.0482	99.9839	
    71	-0.9410	-0.6642	-1.6052	-1.3466	-0.6465	-1.9936	-1.8939	-0.6875	-2.5810	65.2716	99.9831	
    72	-0.9817	-0.6044	-1.5861	-1.2781	-0.5799	-1.8585	-1.7524	-0.5559	-2.3079	65.3359	99.9825	
    73	-1.1529	-0.4978	-1.6507	-1.4375	-0.5560	-1.9940	-1.7535	-0.4817	-2.2348	65.5851	99.9761	
    74	-1.1684	-0.5073	-1.6757	-1.4895	-0.5636	-2.0536	-1.6882	-0.5048	-2.1925	65.7710	99.9721	
    75	-1.0824	-0.4402	-1.5227	-1.4068	-0.4760	-1.8833	-1.6410	-0.3682	-2.0088	65.4921	99.9722	
    76	-0.9780	-0.4325	-1.4105	-1.3017	-0.5456	-1.8478	-1.6337	-0.5240	-2.1573	65.8343	99.9759	
    77	-1.0107	-0.5940	-1.6047	-1.3844	-0.6332	-2.0181	-1.8058	-0.6108	-2.4162	65.4604	99.9786	
    78	-1.0426	-0.6277	-1.6703	-1.4364	-0.6408	-2.0776	-1.8939	-0.6875	-2.5810	65.4914	99.9809	
    79	-1.0271	-0.6182	-1.6454	-1.3761	-0.6036	-1.9803	-1.9297	-0.6352	-2.5644	65.2719	99.9841	
    80	-0.9516	-0.7131	-1.6647	-1.4057	-0.7683	-2.1746	-2.0949	-0.7925	-2.8870	65.1112	99.9843	
    81	-1.1343	-0.7831	-1.9174	-1.4719	-0.7969	-2.2693	-2.2148	-0.7501	-2.9645	64.8600	99.9870	
    82	-0.7785	-0.7902	-1.5687	-1.3668	-0.8664	-2.2338	-2.2533	-1.0203	-3.2733	65.0732	99.9874	
    83	-1.0173	-0.8100	-1.8273	-1.6335	-0.6035	-2.2376	-2.1335	-0.6029	-2.7360	64.3595	99.9796	
    84	-1.2756	-0.6722	-1.9478	-1.7775	-0.4359	-2.2139	-2.3982	-0.2880	-2.6858	63.6102	99.9829	
    85	-1.6808	-0.5118	-2.1926	-1.9384	-0.4374	-2.3763	-2.2794	-0.2561	-2.5352	64.6547	99.9776	
    86	-1.7631	-0.4070	-2.1701	-2.1655	-0.4675	-2.6335	-2.3624	-0.3404	-2.7024	65.0869	99.9679	
    87	-1.9536	-0.3688	-2.3224	-2.4879	-0.5806	-3.0690	-2.6366	-0.4592	-3.0954	65.2718	99.9578	
    88	-2.1460	-0.3600	-2.5061	-2.6784	-0.5393	-3.2181	-2.7751	-0.4500	-3.2247	65.2719	99.9581	
    89	-2.0977	-0.3020	-2.3998	-2.5410	-0.5035	-3.0450	-2.7019	-0.4361	-3.1376	65.4287	99.9636	
    90	-2.1132	-0.3116	-2.4248	-2.6248	-0.5063	-3.1316	-2.7564	-0.4169	-3.1729	65.2718	99.9597	
    91	-1.9837	-0.2601	-2.2438	-2.4020	-0.4423	-2.8448	-2.4702	-0.3761	-2.8459	65.6165	99.9614	
    92	-1.8687	-0.2034	-2.0721	-2.3260	-0.3589	-2.6854	-2.3982	-0.2880	-2.6858	65.4606	99.9610	
    93	-1.9267	-0.1826	-2.1093	-2.3796	-0.3918	-2.7719	-2.5356	-0.3530	-2.8882	65.5228	99.9639	
    94	-1.9953	-0.2107	-2.2061	-2.4634	-0.3947	-2.8586	-2.6248	-0.3555	-2.9799	65.3974	99.9644	
    95	-1.9529	-0.1280	-2.0809	-2.3890	-0.3366	-2.7261	-2.5367	-0.2788	-2.8151	65.4603	99.9635	
    96	-1.9384	-0.1332	-2.0716	-2.3890	-0.3366	-2.7261	-2.4822	-0.2980	-2.7798	65.5854	99.9618	
    97	-1.9529	-0.1280	-2.0809	-2.3791	-0.2817	-2.6613	-2.4833	-0.2239	-2.7067	65.3982	99.9637	
    98	-1.9384	-0.1332	-2.0716	-2.4268	-0.3233	-2.7505	-2.5714	-0.3006	-2.8716	65.4288	99.9635	
    99	-2.0138	-0.1514	-2.1652	-2.4929	-0.3518	-2.8452	-2.6554	-0.3106	-2.9656	65.3660	99.9636	
   100	-2.0128	-0.1367	-2.1495	-2.5417	-0.3086	-2.8508	-2.6554	-0.3106	-2.9656	65.3973	99.9625	
   101	-2.0950	-0.1449	-2.2399	-2.6314	-0.3029	-2.9348	-2.7643	-0.2721	-3.0361	65.1776	99.9623	
   102	-2.0863	-0.1254	-2.2117	-2.5417	-0.3086	-2.8508	-2.6912	-0.2583	-2.9490	65.3036	99.9640	
   103	-2.0128	-0.1367	-2.1495	-2.5417	-0.3086	-2.8508	-2.6554	-0.3106	-2.9656	65.3973	99.9625	
   104	-2.0264	-0.1168	-2.1431	-2.5417	-0.3086	-2.8508	-2.6912	-0.2583	-2.9490	65.2405	99.9619	
   105	-2.0399	-0.0968	-2.1368	-2.5795	-0.2953	-2.8752	-2.7099	-0.2914	-3.0009	65.3657	99.9619	
   106	-2.1385	-0.1293	-2.2678	-2.6649	-0.3235	-2.9888	-2.8228	-0.3196	-3.1420	65.3026	99.9635	
   107	-2.2429	-0.1370	-2.3799	-2.7546	-0.3177	-3.0728	-2.8773	-0.3004	-3.1772	65.2715	99.9625	
   108	-2.1298	-0.1098	-2.2396	-2.6692	-0.2895	-2.9592	-2.7990	-0.2939	-3.0926	65.3028	99.9627	
   109	-2.1095	-0.1397	-2.2492	-2.7026	-0.3101	-3.0133	-2.8773	-0.3004	-3.1772	65.0816	99.9625	
   110	-2.1579	-0.0846	-2.2425	-2.6649	-0.3235	-2.9888	-2.8535	-0.2747	-3.1278	65.2396	99.9623	
   111	-2.1424	-0.0751	-2.2176	-2.7321	-0.2673	-2.9999	-2.8535	-0.2747	-3.1278	65.2394	99.9605	
   112	-2.1579	-0.0846	-2.2425	-2.7404	-0.2968	-3.0377	-2.9733	-0.2324	-3.2053	64.8918	99.9619	
   113	-2.1560	-0.0552	-2.2112	-2.6928	-0.2552	-2.9485	-2.8297	-0.2491	-3.0783	65.2713	99.9621	
   114	-2.0670	-0.0570	-2.1240	-2.6786	-0.2343	-2.9134	-2.8297	-0.2491	-3.0783	65.1447	99.9617	
   115	-2.1251	-0.0362	-2.1612	-2.7164	-0.2209	-2.9378	-2.9386	-0.2106	-3.1488	64.9548	99.9639	
   116	-2.2304	-0.0586	-2.2891	-2.8329	-0.2317	-3.0651	-3.0278	-0.2131	-3.2405	64.8918	99.9626	
   117	-2.1967	 0.0046	-2.1921	-2.7416	-0.2120	-2.9541	-3.0040	-0.1875	-3.1910	64.9545	99.9655	
   118	-2.2430	-0.0240	-2.2670	-2.8565	-0.1974	-3.0544	-3.0584	-0.1682	-3.2263	64.7970	99.9622	
   119	-2.1145	 0.0128	-2.1017	-2.6939	-0.1705	-2.8649	-2.8665	-0.1225	-2.9886	64.9253	99.9611	
   120	-2.1126	 0.0422	-2.0704	-2.6939	-0.1705	-2.8649	-2.8961	-0.1518	-3.0475	65.0185	99.9624	
   121	-2.1725	 0.0336	-2.1390	-2.7946	-0.1349	-2.9300	-2.9506	-0.1326	-3.0827	64.9241	99.9612	
   122	-2.1397	 0.0820	-2.0577	-2.7234	-0.1276	-2.8515	-2.9863	-0.0802	-3.0661	64.7654	99.9637	
   123	-2.1697	 0.0777	-2.0919	-2.7946	-0.1349	-2.9300	-3.0050	-0.1133	-3.1179	64.8597	99.9613	
   124	-2.2141	 0.0786	-2.1355	-2.7990	-0.1009	-2.9004	-2.9625	-0.0545	-3.0167	64.8308	99.9608	
   125	-2.1397	 0.0820	-2.0577	-2.7470	-0.0934	-2.8408	-2.9625	-0.0545	-3.0167	64.7350	99.9625	
   126	-2.1687	 0.0925	-2.0763	-2.7990	-0.1009	-2.9004	-3.0408	-0.0609	-3.1013	64.6701	99.9622	
   127	-2.2122	 0.1081	-2.1042	-2.8477	-0.0578	-2.9060	-3.0408	-0.0609	-3.1013	64.7654	99.9625	
   128	-2.1823	 0.1124	-2.0699	-2.8477	-0.0578	-2.9060	-3.0408	-0.0609	-3.1013	64.7332	99.9615	
   129	-2.2413	 0.1185	-2.1228	-2.8619	-0.0787	-2.9411	-3.0408	-0.0609	-3.1013	64.8289	99.9608	
   130	-2.1581	 0.1414	-2.0168	-2.8001	-0.0162	-2.8168	-2.9330	-0.0252	-2.9578	64.8617	99.9604	
   131	-2.1282	 0.1457	-1.9825	-2.7623	-0.0296	-2.7924	-2.9983	-0.0022	-3.0001	64.6393	99.9629	
   132	-2.2007	 0.1717	-2.0290	-2.8379	-0.0029	-2.8412	-3.0528	 0.0171	-3.0353	64.6393	99.9623	
   133	-2.2288	 0.1968	-2.0319	-2.8756	 0.0105	-2.8657	-3.0528	 0.0171	-3.0353	64.7341	99.9607	
   134	-2.1833	 0.2107	-1.9727	-2.8296	 0.0266	-2.8034	-3.0341	 0.0502	-2.9835	64.6395	99.9612	
   135	-2.2732	 0.1977	-2.0755	-2.8772	-0.0149	-2.8926	-3.1072	 0.0363	-3.0705	64.6393	99.9617	
   136	-2.1592	 0.2397	-1.9195	-2.8055	 0.1025	-2.7035	-2.9262	 0.0859	-2.8399	64.7681	99.9607	
   137	-2.0751	 0.2773	-1.7978	-2.7595	 0.1187	-2.6413	-2.9262	 0.0859	-2.8399	64.7345	99.9612	
   138	-2.1582	 0.2544	-1.9039	-2.8532	 0.0609	-2.7927	-3.1192	 0.1144	-3.0044	64.3526	99.9607	
   139	-2.2462	 0.2709	-1.9754	-2.8827	 0.1038	-2.7794	-3.1005	 0.1475	-2.9526	64.4509	99.9618	
   140	-2.2849	 0.2471	-2.0378	-2.9539	 0.0965	-2.8579	-3.1737	 0.1336	-3.0397	64.3548	99.9616	
   141	-2.2907	 0.2718	-2.0189	-2.9287	 0.0876	-2.8416	-3.1550	 0.1667	-2.9878	64.3561	99.9603	
   142	-2.2008	 0.2847	-1.9161	-2.8602	 0.1542	-2.7065	-3.0709	 0.1768	-2.8938	64.3882	99.9626	
   143	-2.2434	 0.3150	-1.9283	-2.8980	 0.1676	-2.7309	-3.1363	 0.1999	-2.9360	64.3239	99.9630	
   144	-2.3033	 0.3064	-1.9969	-2.9582	 0.1305	-2.8282	-3.1550	 0.1667	-2.9878	64.4504	99.9604	
   145	-2.3623	 0.3125	-2.0498	-3.0212	 0.1527	-2.8689	-3.2390	 0.1567	-3.0819	64.4170	99.9628	
   146	-2.4009	 0.2887	-2.1122	-3.1219	 0.1883	-2.9341	-3.2935	 0.1759	-3.1172	64.2592	99.9613	
   147	-2.3913	 0.3229	-2.0684	-3.0589	 0.1661	-2.8934	-3.2748	 0.2091	-3.0653	64.2599	99.9611	
   148	-2.2773	 0.3649	-1.9124	-2.9216	 0.2019	-2.7202	-3.1669	 0.2447	-2.9218	64.2924	99.9628	
   149	-2.2337	 0.3492	-1.8845	-2.9594	 0.2152	-2.7446	-3.1363	 0.1999	-2.9360	64.3861	99.9605	
   150	-2.3363	 0.3709	-1.9653	-3.0113	 0.2076	-2.8042	-3.2452	 0.2383	-3.0065	64.2592	99.9618	
   151	-2.3885	 0.3671	-2.0214	-3.0743	 0.2299	-2.8449	-3.2748	 0.2091	-3.0653	64.3536	99.9628	
   152	-2.4184	 0.3628	-2.0557	-3.1498	 0.2566	-2.8937	-3.3650	 0.2807	-3.0839	64.0054	99.9612	
   153	-2.4175	 0.3775	-2.0400	-3.1120	 0.2432	-2.8693	-3.3650	 0.2807	-3.0839	64.0366	99.9626	
   154	-2.3189	 0.4099	-1.9090	-3.0124	 0.2924	-2.7206	-3.1374	 0.2740	-2.8629	64.4206	99.9601	
   155	-2.2744	 0.4090	-1.8654	-3.0124	 0.2924	-2.7206	-3.2027	 0.2971	-2.9052	64.1652	99.9604	
   156	-2.3479	 0.4203	-1.9276	-3.0644	 0.2848	-2.7801	-3.2759	 0.2832	-2.9922	64.1953	99.9616	
   157	-2.4514	 0.4273	-2.0241	-3.1356	 0.2775	-2.8586	-3.3957	 0.3256	-3.0697	64.0050	99.9624	
   158	-2.4504	 0.4420	-2.0084	-3.1651	 0.3204	-2.8453	-3.3957	 0.3256	-3.0697	64.0362	99.9626	
   159	-2.4495	 0.4567	-1.9927	-3.1734	 0.2909	-2.8831	-3.3957	 0.3256	-3.0697	64.0675	99.9597	
   160	-2.4204	 0.4463	-1.9741	-3.1273	 0.3070	-2.8208	-3.3116	 0.3356	-2.9756	64.1340	99.9597	
   161	-2.3905	 0.4506	-1.9398	-3.0880	 0.3191	-2.7694	-3.4128	 0.4111	-3.0013	63.6881	99.9634	
   162	-2.4195	 0.4611	-1.9584	-3.1651	 0.3204	-2.8453	-3.3770	 0.3587	-3.0179	63.9734	99.9592	
   163	-2.4253	 0.4857	-1.9396	-3.1651	 0.3204	-2.8453	-3.4314	 0.3779	-3.0531	63.8760	99.9601	
   164	-2.4640	 0.4619	-2.0020	-3.1734	 0.2909	-2.8831	-3.4859	 0.3972	-3.0883	63.7178	99.9609	
   165	-2.4930	 0.4723	-2.0206	-3.2281	 0.3426	-2.8860	-3.4859	 0.3972	-3.0883	63.7820	99.9611	
   166	-2.5356	 0.5027	-2.0329	-3.2517	 0.3769	-2.8753	-3.4859	 0.3972	-3.0883	63.9094	99.9621	
   167	-2.3944	 0.5048	-1.8896	-3.1175	 0.3619	-2.7561	-3.3781	 0.4329	-2.9448	63.8159	99.9605	
   168	-2.4079	 0.5247	-1.8833	-3.1411	 0.3962	-2.7454	-3.3781	 0.4329	-2.9448	63.8791	99.9610	
   169	-2.4215	 0.5446	-1.8769	-3.1706	 0.4391	-2.7320	-3.4138	 0.4852	-2.9282	63.7212	99.9611	
   170	-2.3829	 0.5684	-1.8144	-3.1706	 0.4391	-2.7320	-3.3594	 0.4660	-2.8930	63.8791	99.9576	
   171	-2.4389	 0.5057	-1.9332	-3.2265	 0.3680	-2.8590	-3.4859	 0.3972	-3.0883	63.7788	99.9601	
   172	-2.4679	 0.5161	-1.9518	-3.2560	 0.4109	-2.8456	-3.4672	 0.4303	-3.0365	63.7820	99.9595	
   173	-2.3934	 0.5195	-1.8739	-3.1411	 0.3962	-2.7454	-3.4138	 0.4852	-2.9282	63.6259	99.9602	
   174	-2.4833	 0.5065	-1.9768	-3.2040	 0.4184	-2.7861	-3.4792	 0.5083	-2.9704	63.5328	99.9621	
   175	-2.4854	 0.5901	-1.8952	-3.1859	 0.5029	-2.6835	-3.4122	 0.6039	-2.8079	63.5701	99.9605	
   176	-2.3394	 0.6658	-1.6736	-3.0756	 0.6196	-2.4565	-3.2799	 0.6763	-2.6032	63.5721	99.9613	
   177	-2.2757	 0.7333	-1.5424	-2.9985	 0.6183	-2.3807	-3.1958	 0.6864	-2.5091	63.7612	99.9590	
   178	-2.1926	 0.7562	-1.4363	-2.9064	 0.6506	-2.2563	-3.0448	 0.7920	-2.2525	63.6757	99.9543	
   179	-1.8397	 0.8180	-1.0218	-2.5053	 0.7879	-1.7179	-2.5352	 0.9411	-1.5937	63.8489	99.9534	
   180	-1.4839	 0.8109	-0.6731	-2.0176	 0.8686	-1.1495	-2.1470	 1.0140	-1.1326	63.8579	99.9643	
   181	-1.4132	 0.6424	-0.7708	-1.8914	 0.7267	-1.1652	-2.2438	 0.7928	-1.4506	63.8467	99.9758	
   182	-1.4699	 0.3389	-1.1310	-2.0864	 0.3869	-1.7000	-2.7712	 0.2582	-2.5126	63.8091	99.9840	
   183	-1.8360	-0.0419	-1.8779	-2.6085	-0.1423	-2.7513	-3.4613	-0.2075	-3.6684	63.5204	99.9826	
   184	-2.7266	-0.8447	-3.5713	-3.4122	-0.9547	-4.3674	-4.2098	-0.9024	-5.1118	63.6081	99.9807	
   185	-3.6845	-1.1940	-4.8785	-4.1251	-1.3451	-5.4707	-4.9730	-1.3821	-6.3547	64.1501	99.9877	
   186	-4.5576	-2.0708	-6.6285	-5.3406	-2.5699	-7.9110	-6.6078	-2.7515	-9.3589	64.3502	99.9892	
   187	-5.3620	-2.1137	-7.4757	-5.6002	-2.1928	-7.7934	-6.3584	-1.8463	-8.2042	63.1747	99.9835	
   188	-4.3166	-1.3288	-5.6455	-4.6620	-1.4927	-6.1552	-5.3650	-1.4252	-6.7898	64.1235	99.9845	
   189	-4.4781	-1.3010	-5.7792	-4.7879	-1.4483	-6.2366	-5.4450	-1.3686	-6.8132	64.0942	99.9841	
   190	-4.3090	-1.2110	-5.5201	-4.6407	-1.3575	-5.9987	-5.3672	-1.2769	-6.6436	63.9304	99.9853	
   191	-4.1767	-1.1154	-5.2921	-4.4902	-1.2161	-5.7068	-5.1621	-1.1052	-6.2669	63.8429	99.9844	
   192	-4.0171	-1.1727	-5.1897	-4.5037	-1.4319	-5.9361	-5.3557	-1.5477	-6.9030	64.4339	99.9870	
   193	-4.7891	-1.6338	-6.4230	-5.3324	-1.8203	-7.1532	-6.1404	-1.6451	-7.7851	63.2476	99.9803	
   194	-3.6598	-0.6983	-4.3581	-4.0386	-0.6815	-4.7206	-4.6128	-0.7600	-5.3724	64.0776	99.9853	
   195	-4.2732	-1.2314	-5.5046	-4.7288	-1.3264	-6.0557	-5.4489	-1.1572	-6.6057	63.3129	99.9816	
   196	-3.8366	-0.7930	-4.6297	-4.1177	-0.8157	-4.9339	-4.8856	-0.8566	-5.7419	63.8765	99.9897	
   197	-4.1632	-1.0223	-5.1855	-4.4748	-1.0723	-5.5476	-5.2201	-0.9599	-6.1795	63.4870	99.9869	
   198	-3.7496	-0.8242	-4.5738	-4.1335	-0.8620	-4.9960	-4.8294	-0.9389	-5.7680	64.0352	99.9871	
   199	-3.7524	-0.8684	-4.6208	-4.1190	-0.9385	-5.0580	-4.9274	-0.9043	-5.8314	63.6447	99.9881	
   200	-3.6780	-0.8650	-4.5430	-4.1567	-0.9252	-5.0824	-4.9512	-0.9300	-5.8808	63.5736	99.9866	
   201	-3.6906	-0.8303	-4.5209	-4.1190	-0.9385	-5.0580	-4.9274	-0.9043	-5.8314	63.6405	99.9866	
   202	-3.6906	-0.8303	-4.5209	-4.1567	-0.9252	-5.0824	-4.9512	-0.9300	-5.8808	63.6703	99.9864	
   203	-3.7215	-0.8494	-4.5709	-4.2355	-0.9493	-5.1852	-5.0366	-0.9622	-5.9985	63.6006	99.9858	
   204	-3.6925	-0.8598	-4.5523	-4.1977	-0.9626	-5.1608	-4.9693	-0.9520	-5.9208	63.6369	99.9849	
   205	-3.6761	-0.8355	-4.5116	-4.1819	-0.9163	-5.0987	-4.9512	-0.9300	-5.8808	63.6374	99.9854	
   206	-3.7051	-0.8251	-4.5302	-4.1819	-0.9163	-5.0987	-4.9819	-0.8851	-5.8666	63.5087	99.9858	
   207	-3.6955	-0.7909	-4.4864	-4.1803	-0.8909	-5.0717	-4.9581	-0.8594	-5.8171	63.5422	99.9851	
   208	-3.6646	-0.7719	-4.4364	-4.1351	-0.8874	-5.0230	-4.9163	-0.8118	-5.7276	63.4802	99.9844	
   209	-3.6617	-0.7277	-4.3894	-4.1571	-0.8278	-4.9853	-4.9163	-0.8118	-5.7276	63.5757	99.9847	
   210	-3.6491	-0.7624	-4.4115	-4.1351	-0.8874	-5.0230	-4.8856	-0.8566	-5.7419	63.6734	99.9840	
   211	-3.6210	-0.7875	-4.4085	-4.1174	-0.9131	-5.0310	-4.9145	-0.8748	-5.7889	63.5730	99.9848	
   212	-3.6065	-0.7927	-4.3992	-4.1426	-0.9042	-5.0473	-4.9145	-0.8748	-5.7889	63.5400	99.9838	
   213	-3.6201	-0.7728	-4.3929	-4.1174	-0.9131	-5.0310	-4.9401	-0.8374	-5.7771	63.4427	99.9845	
   214	-3.6336	-0.7529	-4.3865	-4.1351	-0.8874	-5.0230	-4.9163	-0.8118	-5.7276	63.4780	99.9835	
   215	-3.6327	-0.7381	-4.3708	-4.1587	-0.8531	-5.0123	-4.9401	-0.8374	-5.7771	63.5395	99.9844	
   216	-3.6462	-0.7182	-4.3644	-4.1839	-0.8442	-5.0286	-4.9401	-0.8374	-5.7771	63.6044	99.9836	
   217	-3.6607	-0.7130	-4.3738	-4.2216	-0.8309	-5.0530	-4.9707	-0.7925	-5.7629	63.4427	99.9825	
   218	-3.6607	-0.7130	-4.3738	-4.2216	-0.8309	-5.0530	-5.0143	-0.7771	-5.7910	63.3105	99.9833	
   219	-3.6898	-0.7026	-4.3924	-4.2468	-0.8220	-5.0693	-5.0688	-0.7579	-5.8262	63.2111	99.9839	
   220	-3.7197	-0.7069	-4.4266	-4.2862	-0.8340	-5.1207	-5.0817	-0.7874	-5.8687	63.3080	99.9833	
   221	-3.7642	-0.7060	-4.4702	-4.3491	-0.8118	-5.1614	-5.0817	-0.7874	-5.8687	63.3754	99.9821	
   222	-3.7033	-0.6827	-4.3860	-4.2452	-0.7966	-5.0423	-4.9707	-0.7925	-5.7629	63.5736	99.9830	
   223	-3.7197	-0.7069	-4.4266	-4.2846	-0.8087	-5.0938	-5.0381	-0.8028	-5.8405	63.4404	99.9834	
   224	-3.8077	-0.6904	-4.4981	-4.3082	-0.7744	-5.0831	-5.0994	-0.7130	-5.8120	63.2175	99.9848	
   225	-3.7894	-0.6367	-4.4262	-4.2924	-0.7280	-5.0210	-5.0994	-0.7130	-5.8120	63.3117	99.9858	
   226	-3.7140	-0.6186	-4.3326	-4.2574	-0.6820	-4.9399	-5.0269	-0.7102	-5.7368	63.3772	99.9852	
   227	-3.6667	-0.5753	-4.2420	-4.2038	-0.6491	-4.8534	-4.9902	-0.6551	-5.6449	63.3135	99.9853	
   228	-3.6648	-0.5459	-4.2107	-4.1503	-0.6161	-4.7669	-4.9246	-0.5817	-5.5060	63.2885	99.9853	
   229	-3.6793	-0.5407	-4.2200	-4.1487	-0.5907	-4.7399	-4.9246	-0.5817	-5.5060	63.3214	99.9863	
   230	-3.7692	-0.5536	-4.3228	-4.2258	-0.5894	-4.8157	-4.9920	-0.5920	-5.5836	63.3214	99.9866	
   231	-3.7682	-0.5389	-4.3071	-4.1881	-0.6027	-4.7913	-4.9920	-0.5920	-5.5836	63.3532	99.9875	
   232	-3.7228	-0.5251	-4.2479	-4.1881	-0.6027	-4.7913	-4.9920	-0.5920	-5.5836	63.3178	99.9866	
   233	-3.6851	-0.5160	-4.2011	-4.1881	-0.6027	-4.7913	-4.9484	-0.6074	-5.5554	63.4149	99.9851	
   234	-3.5952	-0.5030	-4.0982	-4.0952	-0.5577	-4.6534	-4.8879	-0.5266	-5.4141	63.1915	99.9857	
   235	-3.5198	-0.4849	-4.0047	-4.0558	-0.5457	-4.6020	-4.8443	-0.5420	-5.3859	63.2537	99.9853	
   236	-3.5343	-0.4797	-4.0140	-4.0700	-0.5666	-4.6371	-4.8443	-0.5420	-5.3859	63.2866	99.9843	
   237	-3.5343	-0.4797	-4.0140	-4.0936	-0.5323	-4.6264	-4.8443	-0.5420	-5.3859	63.2866	99.9843	
   238	-3.5624	-0.4546	-4.0169	-4.0936	-0.5323	-4.6264	-4.8699	-0.5046	-5.3741	63.2226	99.9845	
   239	-3.5624	-0.4546	-4.0169	-4.0936	-0.5323	-4.6264	-4.8699	-0.5046	-5.3741	63.2226	99.9845	
   240	-3.5015	-0.4312	-3.9327	-4.0148	-0.5082	-4.5236	-4.7787	-0.4687	-5.2470	63.2593	99.9844	
   241	-3.4416	-0.4226	-3.8641	-4.0050	-0.4533	-4.4588	-4.7549	-0.4430	-5.1975	63.1618	99.9842	
   242	-3.4416	-0.4226	-3.8641	-4.0302	-0.4444	-4.4751	-4.8094	-0.4238	-5.2328	62.9969	99.9844	
   243	-3.4841	-0.3923	-3.8764	-4.0302	-0.4444	-4.4751	-4.8094	-0.4238	-5.2328	63.1275	99.9848	
   244	-3.4851	-0.4070	-3.8921	-4.0007	-0.4873	-4.4885	-4.8529	-0.4084	-5.2609	62.9638	99.9857	
   245	-3.5131	-0.3818	-3.8950	-4.0679	-0.4311	-4.4995	-4.8529	-0.4084	-5.2609	63.0615	99.9847	
   246	-3.4377	-0.3637	-3.8014	-3.9766	-0.4114	-4.3886	-4.7182	-0.3879	-5.1057	63.1973	99.9840	
   247	-3.3923	-0.3499	-3.7422	-3.9609	-0.3651	-4.3265	-4.6944	-0.3622	-5.0562	63.1328	99.9840	
   248	-3.4068	-0.3447	-3.7515	-3.9373	-0.3994	-4.3372	-4.7618	-0.3725	-5.1339	63.0629	99.9859	
   249	-3.4213	-0.3395	-3.7608	-3.9750	-0.3861	-4.3616	-4.7618	-0.3725	-5.1339	63.0959	99.9850	
   250	-3.4504	-0.3291	-3.7794	-4.0002	-0.3772	-4.3779	-4.7924	-0.3276	-5.1196	62.9680	99.9846	
   251	-3.4649	-0.3239	-3.7887	-4.0238	-0.3429	-4.3672	-4.7618	-0.3725	-5.1339	63.1947	99.9847	
   252	-3.4049	-0.3152	-3.7201	-3.9845	-0.3308	-4.3158	-4.6944	-0.3622	-5.0562	63.2289	99.9838	
   253	-3.3914	-0.3351	-3.7265	-3.9373	-0.3994	-4.3372	-4.7311	-0.4174	-5.1481	63.2555	99.9855	
   254	-3.4715	-0.4269	-3.8984	-4.0778	-0.4860	-4.5643	-4.8699	-0.5046	-5.3741	63.1514	99.9845	
   255	-3.4870	-0.4364	-3.9234	-4.0794	-0.5114	-4.5913	-4.9005	-0.4597	-5.3598	62.9582	99.9840	
   256	-3.4261	-0.4131	-3.8392	-4.0679	-0.4311	-4.4995	-4.8529	-0.4084	-5.2609	62.8632	99.9835	
   257	-3.4668	-0.3533	-3.8201	-4.0522	-0.3848	-4.4374	-4.8469	-0.3084	-5.1548	62.7728	99.9837	
   258	-3.5248	-0.3325	-3.8573	-4.0002	-0.3772	-4.3779	-4.7924	-0.3276	-5.1196	63.0696	99.9860	
   259	-3.5983	-0.3212	-3.9195	-4.0474	-0.3086	-4.3565	-4.8231	-0.2827	-5.1054	63.0093	99.9870	
   260	-3.5819	-0.2969	-3.8788	-4.0474	-0.3086	-4.3565	-4.8162	-0.3532	-5.1691	63.2618	99.9872	
   261	-3.4484	-0.2996	-3.7481	-4.0238	-0.3429	-4.3672	-4.8707	-0.3340	-5.2043	62.8948	99.9860	
   262	-3.4059	-0.3299	-3.7358	-4.0144	-0.3981	-4.4130	-4.8400	-0.3789	-5.2185	62.9582	99.9845	
   263	-3.4204	-0.3247	-3.7451	-4.0522	-0.3848	-4.4374	-4.8707	-0.3340	-5.2043	62.7969	99.9834	
   264	-3.4185	-0.2953	-3.7138	-3.9986	-0.3518	-4.3509	-4.7795	-0.2981	-5.0772	62.9350	99.9835	
   265	-3.3644	-0.2620	-3.6264	-3.9510	-0.3102	-4.2617	-4.7251	-0.3173	-5.0420	63.0952	99.9844	
   266	-3.4185	-0.2953	-3.7138	-4.0222	-0.3175	-4.3402	-4.7795	-0.2981	-5.0772	62.9350	99.9836	
   267	-3.4475	-0.2849	-3.7324	-4.0222	-0.3175	-4.3402	-4.7489	-0.3430	-5.0915	63.1947	99.9840	
   268	-3.4465	-0.2702	-3.7167	-4.0222	-0.3175	-4.3402	-4.8231	-0.2827	-5.1054	62.9006	99.9846	
   269	-3.4659	-0.2256	-3.6915	-4.0222	-0.3175	-4.3402	-4.8231	-0.2827	-5.1054	63.0292	99.9843	
   270	-3.4514	-0.2308	-3.6822	-4.0375	-0.2537	-4.2917	-4.8102	-0.2532	-5.0630	62.9343	99.9846	
   271	-3.3905	-0.2074	-3.5979	-3.9730	-0.2505	-4.2240	-4.7319	-0.2468	-4.9783	63.0333	99.9840	
   272	-3.3760	-0.2126	-3.5886	-3.9730	-0.2505	-4.2240	-4.7864	-0.2276	-5.0135	62.8352	99.9847	
   273	-3.4050	-0.2022	-3.6072	-3.9982	-0.2416	-4.2403	-4.7864	-0.2276	-5.0135	62.9013	99.9844	
   274	-3.4631	-0.1814	-3.6445	-4.0360	-0.2283	-4.2648	-4.8408	-0.2083	-5.0488	62.8683	99.9849	
   275	-3.4776	-0.1762	-3.6538	-4.0611	-0.2194	-4.2810	-4.8844	-0.1929	-5.0769	62.7691	99.9851	
   276	-3.4921	-0.1710	-3.6631	-4.0611	-0.2194	-4.2810	-4.8408	-0.2083	-5.0488	62.9343	99.9846	
   277	-3.4176	-0.1676	-3.5852	-4.0261	-0.1734	-4.2000	-4.8170	-0.1827	-4.9993	62.8036	99.9849	
   278	-3.4457	-0.1424	-3.5881	-4.0261	-0.1734	-4.2000	-4.8170	-0.1827	-4.9993	62.9013	99.9851	
   279	-3.4602	-0.1372	-3.5974	-4.0513	-0.1645	-4.2163	-4.8715	-0.1634	-5.0345	62.7691	99.9855	
   280	-3.4902	-0.1416	-3.6317	-4.0595	-0.1940	-4.2541	-4.9151	-0.1480	-5.0627	62.6713	99.9857	
   281	-3.5047	-0.1363	-3.6410	-4.0847	-0.1851	-4.2703	-4.9151	-0.1480	-5.0627	62.7044	99.9851	
   282	-3.5201	-0.1459	-3.6660	-4.1225	-0.1718	-4.2948	-4.9151	-0.1480	-5.0627	62.7059	99.9844	
   283	-3.5173	-0.1017	-3.6190	-4.1126	-0.1169	-4.2300	-4.9022	-0.1185	-5.0203	62.7390	99.9849	
   284	-3.4593	-0.1225	-3.5818	-4.0513	-0.1645	-4.2163	-4.9022	-0.1185	-5.0203	62.6066	99.9853	
   285	-3.5173	-0.1017	-3.6190	-4.0890	-0.1512	-4.2407	-4.9457	-0.1031	-5.0485	62.6066	99.9857	
   286	-3.5318	-0.0965	-3.6283	-4.1142	-0.1423	-4.2570	-4.9695	-0.1288	-5.0979	62.6681	99.9860	
   287	-3.5618	-0.1008	-3.6626	-4.1225	-0.1718	-4.2948	-4.9695	-0.1288	-5.0979	62.7028	99.9855	
   288	-3.5627	-0.1155	-3.6783	-4.1855	-0.1495	-4.3355	-5.0240	-0.1095	-5.1331	62.5054	99.9847	
   289	-3.5763	-0.0956	-3.6719	-4.1772	-0.1200	-4.2977	-5.0002	-0.0839	-5.0837	62.5419	99.9849	
   290	-3.5308	-0.0818	-3.6126	-4.1378	-0.1080	-4.2463	-4.9457	-0.1031	-5.0485	62.6713	99.9849	
   291	-3.5453	-0.0766	-3.6219	-4.1756	-0.0946	-4.2707	-5.0308	-0.0390	-5.0695	62.3444	99.9849	
   292	-3.5744	-0.0662	-3.6405	-4.1756	-0.0946	-4.2707	-5.0002	-0.0839	-5.0837	62.6050	99.9853	
   293	-3.5889	-0.0610	-3.6498	-4.2008	-0.0857	-4.2870	-5.0002	-0.0839	-5.0837	62.6381	99.9847	
   294	-3.6179	-0.0506	-3.6684	-4.2150	-0.1067	-4.3221	-5.0546	-0.0647	-5.1189	62.5386	99.9849	
   295	-3.6469	-0.0402	-3.6871	-4.2763	-0.0590	-4.3359	-5.0853	-0.0198	-5.1047	62.4108	99.9841	
   296	-3.6024	-0.0410	-3.6435	-4.2244	-0.0514	-4.2763	-5.0615	 0.0059	-5.0552	62.3146	99.9847	
   297	-3.6160	-0.0211	-3.6371	-4.2244	-0.0514	-4.2763	-5.0308	-0.0390	-5.0695	62.5734	99.9847	
   298	-3.6169	-0.0358	-3.6528	-4.2621	-0.0381	-4.3007	-5.1160	 0.0251	-5.0904	62.1816	99.9847	
   299	-3.6605	-0.0202	-3.6807	-4.2999	-0.0248	-4.3252	-5.1595	 0.0405	-5.1186	62.1483	99.9849	
   300	-3.6750	-0.0150	-3.6900	-4.3251	-0.0159	-4.3415	-5.1289	-0.0044	-5.1328	62.3759	99.9843	
   301	-3.7185	 0.0006	-3.7179	-4.3251	-0.0159	-4.3415	-5.1289	-0.0044	-5.1328	62.4755	99.9849	
   302	-3.6885	 0.0049	-3.6836	-4.3251	-0.0159	-4.3415	-5.1289	-0.0044	-5.1328	62.4406	99.9843	
   303	-3.6885	 0.0049	-3.6836	-4.2999	-0.0248	-4.3252	-5.1595	 0.0405	-5.1186	62.2463	99.9851	
   304	-3.7030	 0.0101	-3.6929	-4.3251	-0.0159	-4.3415	-5.1595	 0.0405	-5.1186	62.2796	99.9845	
   305	-3.7320	 0.0205	-3.7115	-4.3629	-0.0025	-4.3659	-5.1595	 0.0405	-5.1186	62.3461	99.9837	
   306	-3.7466	 0.0257	-3.7208	-4.3881	 0.0064	-4.3822	-5.2140	 0.0598	-5.1538	62.2131	99.9841	
   307	-3.7765	 0.0214	-3.7551	-4.4258	 0.0197	-4.4066	-5.2378	 0.0341	-5.2033	62.2761	99.9845	
   308	-3.7456	 0.0404	-3.7052	-4.3865	 0.0318	-4.3552	-5.1595	 0.0405	-5.1186	62.4108	99.9837	
   309	-3.7446	 0.0552	-3.6895	-4.3865	 0.0318	-4.3552	-5.1902	 0.0854	-5.1044	62.2481	99.9835	
   310	-3.7601	 0.0456	-3.7145	-4.4116	 0.0407	-4.3715	-5.2140	 0.0598	-5.1538	62.2778	99.9841	
   311	-3.7891	 0.0560	-3.7331	-4.4116	 0.0407	-4.3715	-5.2685	 0.0790	-5.1891	62.1779	99.9855	
   312	-3.8181	 0.0664	-3.7517	-4.4510	 0.0286	-4.4229	-5.3120	 0.0944	-5.2172	62.1112	99.9846	
   313	-3.8481	 0.0621	-3.7860	-4.5140	 0.0509	-4.4636	-5.3665	 0.1136	-5.2524	61.9796	99.9842	
   314	-3.8181	 0.0664	-3.7517	-4.4746	 0.0629	-4.4122	-5.2685	 0.0790	-5.1891	62.2445	99.9839	
   315	-3.8172	 0.0812	-3.7360	-4.4746	 0.0629	-4.4122	-5.2991	 0.1239	-5.1748	62.0816	99.9837	
   316	-3.8472	 0.0769	-3.7703	-4.5124	 0.0763	-4.4366	-5.3120	 0.0944	-5.2172	62.1779	99.9839	
   317	-3.8762	 0.0873	-3.7889	-4.5376	 0.0852	-4.4529	-5.3665	 0.1136	-5.2524	62.0779	99.9845	
   318	-3.9052	 0.0977	-3.8075	-4.5376	 0.0852	-4.4529	-5.3665	 0.1136	-5.2524	62.1446	99.9849	
   319	-3.9061	 0.0829	-3.8232	-4.5753	 0.0985	-4.4773	-5.3665	 0.1136	-5.2524	62.1131	99.9839	
   320	-3.8607	 0.0968	-3.7639	-4.5419	 0.1191	-4.4233	-5.3427	 0.1393	-5.2030	62.0483	99.9839	
   321	-3.8598	 0.1115	-3.7483	-4.5041	 0.1058	-4.3988	-5.3427	 0.1393	-5.2030	62.0798	99.9849	
   322	-3.8888	 0.1219	-3.7669	-4.5419	 0.1191	-4.4233	-5.3971	 0.1585	-5.2382	61.9796	99.9850	
   323	-3.9033	 0.1271	-3.7762	-4.5671	 0.1280	-4.4395	-5.3971	 0.1585	-5.2382	62.0130	99.9845	
   324	-3.9323	 0.1375	-3.7948	-4.6048	 0.1414	-4.4640	-5.3971	 0.1585	-5.2382	62.0798	99.9837	
   325	-3.9333	 0.1228	-3.8105	-4.5671	 0.1280	-4.4395	-5.3971	 0.1585	-5.2382	62.0483	99.9851	
   326	-3.8733	 0.1314	-3.7419	-4.5025	 0.1312	-4.3718	-5.3655	 0.2212	-5.1440	61.8569	99.9849	
   327	-3.8869	 0.1513	-3.7355	-4.5277	 0.1401	-4.3881	-5.3733	 0.1842	-5.1888	62.0149	99.9849	
   328	-3.8878	 0.1366	-3.7512	-4.5655	 0.1534	-4.4126	-5.4278	 0.2034	-5.2240	61.8164	99.9848	
   329	-3.9304	 0.1670	-3.7634	-4.5655	 0.1534	-4.4126	-5.4278	 0.2034	-5.2240	61.9481	99.9852	
   330	-3.9604	 0.1626	-3.7977	-4.6284	 0.1756	-4.4533	-5.4714	 0.2188	-5.2522	61.8498	99.9846	
   331	-3.9168	 0.1470	-3.7698	-4.5907	 0.1623	-4.4288	-5.4091	 0.2366	-5.1722	61.8235	99.9835	
   332	-3.8908	 0.2055	-3.6853	-4.5556	 0.2083	-4.3478	-5.3417	 0.2468	-5.0945	62.0207	99.9833	
   333	-3.9053	 0.2107	-3.6946	-4.5556	 0.2083	-4.3478	-5.3962	 0.2661	-5.1298	61.8872	99.9845	
   334	-3.9343	 0.2211	-3.7132	-4.5808	 0.2172	-4.3641	-5.4398	 0.2814	-5.1579	61.8204	99.9849	
   335	-3.9343	 0.2211	-3.7132	-4.5808	 0.2172	-4.3641	-5.4398	 0.2814	-5.1579	61.8204	99.9849	
   336	-3.9430	 0.2016	-3.7414	-4.6186	 0.2305	-4.3885	-5.4398	 0.2814	-5.1579	61.7901	99.9841	
   337	-3.9488	 0.2263	-3.7225	-4.5808	 0.2172	-4.3641	-5.4398	 0.2814	-5.1579	61.8539	99.9851	
   338	-3.8889	 0.2349	-3.6540	-4.5650	 0.2635	-4.3020	-5.3724	 0.2917	-5.0803	61.8892	99.9841	
   339	-3.9024	 0.2548	-3.6476	-4.5650	 0.2635	-4.3020	-5.4269	 0.3109	-5.1155	61.7870	99.9850	
   340	-3.9324	 0.2505	-3.6819	-4.6044	 0.2515	-4.3534	-5.4269	 0.3109	-5.1155	61.8225	99.9837	
   341	-3.9605	 0.2757	-3.6848	-4.6280	 0.2858	-4.3427	-5.4704	 0.3263	-5.1437	61.7870	99.9847	
   342	-3.9614	 0.2609	-3.7005	-4.6422	 0.2648	-4.3778	-5.4704	 0.3263	-5.1437	61.7556	99.9837	
   343	-3.9904	 0.2713	-3.7191	-4.6909	 0.3080	-4.3834	-5.5249	 0.3456	-5.1789	61.6552	99.9842	
   344	-3.9595	 0.2904	-3.6691	-4.6028	 0.2769	-4.3264	-5.4575	 0.3558	-5.1013	61.7577	99.9845	
   345	-3.9296	 0.2947	-3.6349	-4.6028	 0.2769	-4.3264	-5.4575	 0.3558	-5.1013	61.7222	99.9838	
   346	-3.9750	 0.2809	-3.6941	-4.6657	 0.2991	-4.3671	-5.5249	 0.3456	-5.1789	61.6531	99.9846	
   347	-4.0204	 0.2670	-3.7534	-4.6815	 0.2528	-4.4292	-5.5923	 0.3353	-5.2565	61.5839	99.9854	
   348	-4.0649	 0.2679	-3.7970	-4.7303	 0.2960	-4.4348	-5.5923	 0.3353	-5.2565	61.6531	99.9854	
   349	-4.0794	 0.2731	-3.8063	-4.7697	 0.2839	-4.4862	-5.6052	 0.3058	-5.2989	61.7474	99.9844	
   350	-4.1345	 0.2251	-3.9094	-4.8315	 0.2214	-4.6105	-5.6912	 0.2624	-5.4284	61.6761	99.9844	
   351	-4.1499	 0.2156	-3.9344	-4.8315	 0.2214	-4.6105	-5.6368	 0.2432	-5.3932	61.8458	99.9838	
   352	-4.1963	 0.1870	-4.0093	-4.8917	 0.1843	-4.7079	-5.7715	 0.2227	-5.5484	61.6382	99.9849	
   353	-4.2427	 0.1585	-4.0842	-4.9452	 0.1514	-4.7944	-5.8082	 0.1675	-5.6403	61.7328	99.9847	
   354	-4.2717	 0.1689	-4.1028	-4.9704	 0.1602	-4.8107	-5.8933	 0.2317	-5.6613	61.4361	99.9853	
   355	-4.2872	 0.1593	-4.1278	-4.9704	 0.1602	-4.8107	-5.8933	 0.2317	-5.6613	61.4383	99.9857	
   356	-4.3297	 0.1897	-4.1401	-4.9940	 0.1945	-4.8000	-5.8933	 0.2317	-5.6613	61.5709	99.9861	
   357	-4.3143	 0.1992	-4.1151	-4.9940	 0.1945	-4.8000	-5.9240	 0.2766	-5.6470	61.3731	99.9857	
   358	-4.2398	 0.2026	-4.0372	-4.9295	 0.1977	-4.7323	-5.8566	 0.2868	-5.5694	61.3754	99.9853	
   359	-4.2688	 0.2130	-4.0558	-4.9295	 0.1977	-4.7323	-5.8260	 0.2419	-5.5836	61.6382	99.9857	
   360	-4.2988	 0.2087	-4.0901	-4.9924	 0.2199	-4.7730	-5.8695	 0.2573	-5.6118	61.5394	99.9851	
   361	-4.3269	 0.2338	-4.0930	-5.0176	 0.2288	-4.7893	-5.9002	 0.3022	-5.5976	61.4428	99.9845	
   362	-4.3414	 0.2390	-4.1023	-5.0412	 0.2631	-4.7786	-5.9002	 0.3022	-5.5976	61.4765	99.9847	
   363	-4.4004	 0.2451	-4.1552	-5.0570	 0.2168	-4.8407	-5.9676	 0.2920	-5.6752	61.4721	99.9855	
   364	-4.4448	 0.2460	-4.1988	-5.1199	 0.2390	-4.8814	-5.9914	 0.2663	-5.7247	61.5688	99.9853	
   365	-4.3887	 0.1958	-4.1929	-5.0963	 0.2047	-4.8921	-5.9607	 0.2214	-5.7389	61.5666	99.9849	
   366	-4.4051	 0.1715	-4.2336	-5.1062	 0.1498	-4.9569	-6.0410	 0.1817	-5.8589	61.4902	99.9860	
   367	-4.4670	 0.1335	-4.3335	-5.1708	 0.1467	-5.0246	-6.0975	 0.1676	-5.9295	61.4248	99.9863	
   368	-4.4776	 0.0845	-4.3930	-5.2101	 0.1346	-5.0760	-6.1342	 0.1124	-6.0214	61.4192	99.9866	
   369	-4.4089	 0.1126	-4.2963	-5.1062	 0.1498	-4.9569	-6.0668	 0.1227	-5.9437	61.4858	99.9878	
   370	-4.3654	 0.0970	-4.2684	-5.1204	 0.1289	-4.9920	-6.1164	 0.0380	-6.0780	61.5336	99.9881	
   371	-4.5132	-0.0081	-4.5213	-5.2614	-0.0678	-5.3297	-6.3624	-0.0738	-6.4357	61.3472	99.9887	
   372	-4.6978	-0.1076	-4.8054	-5.4236	-0.1921	-5.6162	-6.5286	-0.3386	-6.8668	61.8566	99.9901	
   373	-5.1229	-0.4823	-5.6052	-5.7474	-0.8432	-6.5912	-7.0072	-1.0777	-8.0845	62.9115	99.9928	
   374	-6.0767	-1.9176	-7.9943	-6.9793	-2.4321	-9.4119	-8.3054	-2.4923	-10.7973	62.6956	99.9864	
   375	-6.7311	-2.0520	-8.7831	-7.1014	-2.5317	-9.6336	-8.4347	-2.4239	-10.8582	62.9149	99.9929	
   376	-6.0545	-0.8863	-6.9408	-6.3131	-0.4228	-6.7364	-6.6089	 0.0814	-6.5270	60.7880	99.9773	
   377	-4.2505	 0.2667	-3.9838	-4.7582	 0.3642	-4.3945	-5.7339	 0.3853	-5.3481	61.4953	99.9906	
   378	-4.1781	 0.3537	-3.8244	-4.6696	 0.4432	-4.2269	-5.6893	 0.4775	-5.2115	61.3992	99.9913	
   379	-4.1800	 0.3243	-3.8557	-4.7090	 0.4312	-4.2783	-5.5991	 0.4059	-5.1929	61.7305	99.9893	
   380	-4.1346	 0.3381	-3.7965	-4.6696	 0.4432	-4.2269	-5.6349	 0.4582	-5.1763	61.4662	99.9902	
   381	-4.0302	 0.3458	-3.6843	-4.6318	 0.4299	-4.2025	-5.5555	 0.3905	-5.1647	61.6866	99.9888	
   382	-4.0745	 0.2337	-3.8408	-4.7047	 0.3972	-4.3079	-6.0196	 1.1788	-4.8404	58.2609	99.9831	
   383	-3.8979	 0.5545	-3.3434	-4.3222	 1.0600	-3.2626	-4.9371	 0.6829	-4.2539	62.3353	99.9829	
   384	-3.9423	 0.4423	-3.4999	-4.5152	 0.6482	-3.8676	-5.3577	 0.7179	-4.6394	61.2112	99.9877	
   385	-4.2641	 0.2866	-3.9774	-4.8463	 0.3954	-4.4515	-5.7645	 0.4302	-5.3339	61.3657	99.9887	
   386	-4.9299	-0.0243	-4.9543	-5.5636	 0.0390	-5.5251	-6.4492	 0.0534	-6.3954	61.3921	99.9873	
   387	-5.0924	-0.0113	-5.1037	-5.7320	 0.0206	-5.7119	-6.6912	 0.0083	-6.6824	61.3046	99.9886	
   388	-5.2752	 0.0317	-5.2435	-5.9493	 0.0455	-5.9043	-6.9508	 0.0376	-6.9128	61.0560	99.9888	
   389	-5.5412	 0.1647	-5.3764	-6.0862	 0.1198	-5.9669	-7.0815	 0.0838	-6.9973	61.3576	99.9903	
   390	-5.6997	 0.1237	-5.5760	-6.2594	 0.0253	-6.2346	-7.2822	-0.1064	-7.3882	61.6626	99.9909	
   391	-5.7461	 0.0951	-5.6509	-6.3448	-0.0029	-6.3482	-7.3693	-0.0756	-7.4445	61.3948	99.9901	
   392	-5.7888	 0.2385	-5.5503	-6.3522	 0.1878	-6.1648	-7.3797	 0.1210	-7.2582	61.1747	99.9908	
   393	-5.9900	 0.3408	-5.6492	-6.5316	 0.1993	-6.3328	-7.4736	 0.2224	-7.2509	61.2186	99.9880	
   394	-6.2945	 0.3370	-5.9575	-6.7965	 0.1826	-6.6144	-7.5430	 0.1788	-7.3639	61.6652	99.9847	
   395	-6.5033	 0.3215	-6.1818	-7.0279	 0.1865	-6.8419	-7.8047	 0.1747	-7.6296	61.4213	99.9854	
   396	-6.6040	 0.3727	-6.2313	-7.0783	 0.2043	-6.8744	-7.9116	 0.2465	-7.6647	61.2552	99.9863	
   397	-6.5683	 0.4653	-6.1029	-7.0735	 0.2805	-6.7935	-7.8987	 0.2760	-7.6223	61.3483	99.9861	
   398	-6.4851	 0.4882	-5.9969	-7.0133	 0.3176	-6.6962	-7.7480	 0.2852	-7.4623	61.5577	99.9842	
   399	-6.3044	 0.5288	-5.7755	-6.8306	 0.3569	-6.4743	-7.4843	 0.3226	-7.1613	61.8050	99.9822	
   400	-6.1324	 0.6630	-5.4694	-6.6428	 0.5824	-6.0609	-7.2827	 0.6204	-6.6619	61.3743	99.9822	
   401	-5.9372	 0.8114	-5.1259	-6.5023	 0.6690	-5.8337	-7.3004	 0.6948	-6.6053	61.1512	99.9843	
   402	-6.2022	 0.8462	-5.3560	-6.6813	 0.7907	-5.8911	-7.3311	 0.7396	-6.5911	61.4383	99.9849	
   403	-6.0678	 0.8582	-5.2096	-6.5904	 0.7002	-5.8907	-7.3004	 0.6948	-6.6053	61.4564	99.9833	
   404	-5.8492	 0.7949	-5.0544	-6.4928	 0.6138	-5.8795	-7.2262	 0.6345	-6.5913	61.3116	99.9804	
   405	-5.5235	 0.8965	-4.6270	-6.1531	 0.7987	-5.3549	-6.7537	 0.8138	-5.9395	61.4832	99.9785	
   406	-5.4038	 1.0268	-4.3770	-6.0551	 0.8224	-5.2332	-6.7895	 0.8662	-5.9229	61.3640	99.9791	
   407	-5.7441	 1.0434	-4.7007	-6.4182	 1.0870	-5.3317	-6.8291	 1.1299	-5.6988	61.0623	99.9739	
   408	-5.7432	 1.0581	-4.6851	-6.2802	 0.9279	-5.3528	-6.8379	 0.9854	-5.8520	61.4986	99.9779	
   409	-5.5189	 1.0831	-4.4358	-6.0826	 1.0008	-5.0822	-6.6202	 1.0902	-5.5296	61.3515	99.9767	
   410	-5.1428	 1.1591	-3.9837	-5.6134	 1.0945	-4.5193	-6.3095	 1.1677	-5.1414	61.3571	99.9837	
   411	-4.9127	 1.1594	-3.7533	-5.3280	 1.2337	-4.0947	-5.9335	 1.2222	-4.7109	61.6134	99.9856	
   412	-4.4399	 1.1254	-3.3145	-4.8550	 1.1834	-3.6721	-5.7266	 1.1491	-4.5771	61.4615	99.9903	
   413	-4.1893	 0.9828	-3.2065	-4.7724	 1.0634	-3.7095	-5.6482	 0.9738	-4.6740	61.4405	99.9886	
   414	-4.0558	 0.8672	-3.1886	-4.7669	 0.9447	-3.8227	-5.6482	 0.9738	-4.6740	60.9818	99.9857	
   415	-3.9881	 0.8805	-3.1076	-4.6898	 0.9434	-3.7469	-5.5621	 1.0172	-4.5445	60.9582	99.9849	
   416	-3.9611	 0.9537	-3.0074	-4.6760	 1.0618	-3.6147	-5.5118	 1.1130	-4.3985	60.9023	99.9847	
   417	-3.9002	 0.9771	-2.9232	-4.5571	 1.1106	-3.4470	-5.3526	 1.1702	-4.1820	61.0198	99.9850	
   418	-3.7591	 0.9792	-2.7799	-4.4229	 1.0956	-3.3278	-5.1706	 1.1457	-4.0245	61.2525	99.9837	
   419	-3.7271	 0.8999	-2.8272	-4.4017	 1.0232	-3.3789	-5.0803	 1.0740	-4.0059	61.4204	99.9819	
   420	-3.7696	 0.8172	-2.9523	-4.4214	 0.9134	-3.5085	-5.1773	 1.0345	-4.1424	61.2216	99.9827	
   421	-3.8390	 0.6614	-3.1776	-4.4872	 0.7875	-3.7002	-5.2276	 0.9387	-4.2884	61.1599	99.9823	
   422	-3.9530	 0.5064	-3.4465	-4.5880	 0.6155	-3.9730	-5.3390	 0.7511	-4.5876	61.3098	99.9828	
   423	-4.1317	 0.3823	-3.7495	-4.6751	 0.5619	-4.1136	-5.3390	 0.7511	-4.5876	61.3050	99.9826	
   424	-3.9886	 0.4138	-3.5749	-4.4774	 0.6348	-3.8431	-5.1482	 0.8710	-4.2769	61.1982	99.9835	
   425	-3.8563	 0.5094	-3.3469	-4.3865	 0.7519	-3.6351	-5.0139	 0.9768	-4.0367	61.1746	99.9821	
   426	-3.6668	 0.5695	-3.0973	-4.2200	 0.8423	-3.3782	-4.7645	 0.9624	-3.8016	61.5632	99.9818	
   427	-3.6949	 0.5946	-3.1003	-4.1723	 0.8838	-3.2890	-4.7815	 1.0479	-3.7332	61.3801	99.9842	
   428	-3.7384	 0.6102	-3.1282	-4.2254	 0.9610	-3.2649	-4.8718	 1.1196	-3.7518	61.0937	99.9855	
   429	-3.6785	 0.6189	-3.0596	-4.1290	 0.9593	-3.1702	-4.7799	 1.1666	-3.6129	61.0727	99.9856	
   430	-3.6099	 0.6470	-2.9629	-3.9680	 0.9608	-3.0077	-4.5978	 1.1420	-3.4555	61.4636	99.9867	
   431	-3.5209	 0.6452	-2.8757	-3.8968	 0.9681	-2.9292	-4.5247	 1.1559	-3.3684	61.4343	99.9863	
   432	-3.4929	 0.6201	-2.8728	-3.8968	 0.9681	-2.9292	-4.4889	 1.1035	-3.3850	61.5588	99.9859	
   433	-3.5083	 0.6106	-2.8978	-3.8673	 0.9253	-2.9425	-4.5434	 1.1227	-3.4202	61.3986	99.9874	
   434	-3.5228	 0.6158	-2.9071	-3.8590	 0.9548	-2.9047	-4.4889	 1.1035	-3.3850	61.5933	99.9875	
   435	-3.5460	 0.6015	-2.9445	-3.9051	 0.9386	-2.9670	-4.5621	 1.0896	-3.4721	61.4918	99.9876	
   436	-3.7509	 0.5319	-3.2190	-4.1192	 0.8067	-3.3131	-4.7831	 0.9293	-3.8534	61.6631	99.9874	
   437	-4.0920	 0.3078	-3.7842	-4.4106	 0.4685	-3.9426	-5.1755	 0.5116	-4.6635	62.1034	99.9898	
   438	-4.4949	 0.0456	-4.4493	-4.8901	 0.2097	-4.6809	-5.7032	 0.3405	-5.3623	61.5665	99.9890	
   439	-4.7810	-0.0175	-4.7985	-5.1708	 0.1467	-5.0246	-5.9430	 0.1470	-5.7955	61.9373	99.9893	
   440	-4.9772	-0.1806	-5.1578	-5.4298	-0.0861	-5.5165	-6.3383	 0.0483	-6.2896	61.3577	99.9894	
   441	-5.1957	-0.1173	-5.3130	-5.5631	 0.1491	-5.4145	-6.2508	 0.3920	-5.8584	61.0035	99.9868	
   442	-5.7328	-0.6176	-6.3504	-6.2520	-0.8856	-7.1380	-7.3423	-1.1921	-8.5340	63.1915	99.9921	
   443	-6.9843	-2.1796	-9.1639	-7.6883	-2.7590	-10.4478	-8.9877	-2.9211	-11.9084	63.4131	99.9905	
   444	-7.4613	-2.8972	-10.3585	-8.3528	-3.0951	-11.4484	-9.4572	-2.9595	-12.4164	61.5603	99.9824	
   445	-7.0182	-2.1298	-9.1480	-7.6403	-2.0947	-9.7355	-8.6543	-1.8241	-10.4780	60.8702	99.9865	
   446	-6.1945	-1.0997	-7.2942	-6.6904	-0.8993	-7.5902	-7.6490	-0.5615	-8.2101	60.2605	99.9884	
   447	-5.1967	-0.1320	-5.3287	-5.5835	 0.2341	-5.3499	-6.4977	 0.1727	-6.3245	61.1077	99.9906	
   448	-6.0284	-1.8596	-7.8881	-7.4713	-2.4788	-9.9506	-9.6974	-3.0677	-12.7647	61.5261	99.9939	
   449	-11.4073	-4.5773	-15.9846	-12.5969	-4.6966	-17.2940	-14.0501	-4.8619	-18.9116	59.7931	99.9906	
   450	-12.6707	-4.8322	-17.5029	-13.8856	-5.1365	-19.0226	-15.2881	-5.3725	-20.6602	60.1353	99.9893	
   451	-12.6977	-4.9053	-17.6030	-14.0625	-5.3919	-19.4549	-15.3985	-5.6343	-21.0324	60.6215	99.9832	
   452	-12.0586	-4.8935	-16.9522	-13.3813	-5.5093	-18.8911	-14.6055	-5.7669	-20.3720	61.8782	99.9785	
   453	-11.1412	-4.8234	-15.9646	-12.3403	-5.4295	-17.7703	-13.4309	-5.6597	-19.0902	62.8473	99.9765	
   454	-10.2324	-4.7728	-15.0052	-11.4910	-5.4311	-16.9226	-12.5958	-5.6482	-18.2436	63.3068	99.9732	
   455	-10.0766	-4.8889	-14.9655	-11.2365	-5.5795	-16.8164	-12.3480	-5.7812	-18.1288	63.7596	99.9749	
   456	-10.1093	-5.0504	-15.1597	-11.2787	-5.7397	-17.0189	-12.3830	-5.8994	-18.2819	63.7220	99.9729	
   457	-10.0648	-5.0513	-15.1161	-11.2242	-5.4865	-16.7112	-12.1257	-5.4169	-17.5423	62.6016	99.9642	
   458	-8.8246	-3.7789	-12.6036	-9.4096	-4.1489	-13.5591	-10.2434	-4.2769	-14.5198	64.1136	99.9847	
   459	-8.8095	-4.4622	-13.2717	-10.1925	-5.1439	-15.3369	-11.5794	-5.2126	-16.7916	62.5372	99.9735	
   460	-9.3705	-4.1857	-13.5562	-10.5087	-4.6429	-15.1521	-11.5510	-4.4677	-16.0183	61.7683	99.9654	
   461	-9.0247	-3.8880	-12.9126	-10.3865	-4.3357	-14.7228	-11.6397	-4.0957	-15.7351	60.5027	99.9640	
   462	-9.5828	-3.5673	-13.1501	-10.9196	-3.9074	-14.8274	-12.0484	-3.6789	-15.7269	59.9514	99.9643	
   463	-10.4450	-3.8154	-14.2604	-11.7497	-4.1136	-15.8638	-12.7873	-3.9400	-16.7269	59.9585	99.9657	
   464	-11.1721	-3.8107	-14.9828	-12.1188	-4.0481	-16.1674	-12.7714	-3.7697	-16.5407	60.6955	99.9595	
   465	-10.0613	-3.7346	-13.7959	-10.8602	-4.0905	-14.9513	-11.5133	-3.8452	-15.3581	62.0806	99.9615	
   466	-8.9804	-3.6628	-12.6432	-9.9334	-3.9834	-13.9172	-10.7606	-3.9068	-14.6670	62.3440	99.9711	
   467	-8.6797	-3.7180	-12.3976	-9.6103	-4.0651	-13.6758	-10.3202	-3.9830	-14.3027	62.9247	99.9661	
   468	-8.4911	-3.7856	-12.2767	-9.4590	-4.4234	-13.8829	-10.5753	-4.6137	-15.1886	63.9601	99.9806	
   469	-8.9208	-4.3470	-13.2677	-10.0169	-5.0113	-15.0287	-11.1805	-5.2400	-16.4201	64.0062	99.9795	
   470	-9.3343	-4.6581	-13.9923	-10.3622	-5.2850	-15.6477	-11.4009	-5.3892	-16.7897	63.9065	99.9742	
   471	-8.8821	-4.3232	-13.2053	-9.8804	-4.9882	-14.8690	-10.9822	-5.1795	-16.1613	64.2358	99.9789	
   472	-8.6647	-4.1752	-12.8399	-9.6509	-4.9200	-14.5714	-10.8281	-5.1148	-15.9424	64.3788	99.9797	
   473	-8.4511	-4.0861	-12.5372	-9.4985	-4.8506	-14.3496	-10.8519	-5.1404	-15.9919	64.2934	99.9855	
   474	-8.4386	-4.0078	-12.4464	-9.5115	-4.7487	-14.2607	-10.9434	-5.0910	-16.0341	64.1040	99.9883	
   475	-8.2291	-3.7515	-11.9806	-9.1020	-4.3744	-13.4769	-10.2816	-4.6324	-14.9135	64.3228	99.9862	
   476	-7.7864	-3.5638	-11.3503	-8.7879	-4.2907	-13.0791	-10.0376	-4.5539	-14.5912	64.3522	99.9835	
   477	-7.7536	-3.5154	-11.2690	-8.7599	-4.1514	-12.9118	-9.9099	-4.2812	-14.1907	63.7939	99.9788	
   478	-7.0704	-3.1654	-10.2358	-8.0946	-3.8026	-11.8977	-9.3112	-3.9477	-13.2586	63.7673	99.9806	
   479	-7.2915	-3.4853	-10.7768	-8.5470	-4.1423	-12.6898	-10.0079	-4.2465	-14.2541	62.7854	99.9809	
   480	-8.3241	-3.4991	-11.8231	-9.5161	-3.8972	-13.4139	-10.9379	-3.8044	-14.7419	60.9304	99.9818	
   481	-9.0040	-3.2251	-12.2291	-9.9048	-3.5264	-13.4316	-11.1441	-3.4421	-14.5857	61.1061	99.9856	
   482	-9.2440	-3.0336	-12.2776	-10.0381	-3.2911	-13.3297	-11.1504	-3.1787	-14.3287	61.1120	99.9847	
   483	-9.2596	-2.9301	-12.1896	-9.9022	-3.0732	-12.9758	-10.8817	-2.9671	-13.8484	61.3093	99.9864	
   484	-9.1949	-2.8478	-12.0427	-9.6939	-2.9327	-12.6271	-10.5680	-2.9304	-13.4980	61.9654	99.9888	
   485	-9.4844	-3.4218	-12.9062	-10.3245	-3.8581	-14.1831	-11.5145	-4.0491	-15.5633	62.5600	99.9887	
   486	-10.4105	-4.5432	-14.9537	-11.5278	-4.9900	-16.5182	-12.6120	-4.9954	-17.6069	61.9587	99.9753	
   487	-10.2646	-4.4675	-14.7321	-11.1648	-4.7420	-15.9072	-11.9887	-4.8069	-16.7952	62.6819	99.9781	
   488	-8.9733	-4.0118	-12.9851	-9.8459	-4.5397	-14.3861	-10.7658	-4.6372	-15.4026	63.8345	99.9768	
   489	-7.8695	-3.6998	-11.5692	-8.6754	-4.3435	-13.0193	-9.6518	-4.4291	-14.0805	64.5572	99.9768	
   490	-7.1426	-3.4784	-10.6210	-7.8661	-4.1623	-12.0289	-8.8645	-4.2872	-13.1513	65.1612	99.9796	
   491	-7.0710	-3.5192	-10.5902	-8.1420	-4.1492	-12.2917	-9.3267	-4.2034	-13.5297	63.6956	99.9757	
   492	-8.0888	-3.8772	-11.9659	-9.2783	-4.3121	-13.5909	-10.7402	-4.2149	-14.9547	61.3878	99.9820	
   493	-9.5701	-3.7149	-13.2850	-10.3651	-3.9930	-14.3586	-11.3074	-3.8442	-15.1512	61.7773	99.9783	
   494	-8.9204	-3.7672	-12.6876	-9.5935	-4.3110	-13.9050	-10.1923	-4.3517	-14.5436	64.6401	99.9686	
   495	-7.1774	-3.4433	-10.6208	-7.5084	-4.1006	-11.6094	-8.3914	-4.3749	-12.7659	66.5498	99.9887	
   496	-6.2774	-3.2992	-9.5766	-6.9420	-3.9958	-10.9382	-7.8733	-4.1776	-12.0505	65.9636	99.9801	
   497	-5.8562	-2.9833	-8.8395	-6.4333	-3.6824	-10.1163	-7.4009	-3.8166	-11.2171	65.8925	99.9817	
   498	-5.3112	-2.7043	-8.0155	-6.0688	-3.4090	-9.4783	-7.0257	-3.5916	-10.6169	65.7895	99.9781	
   499	-5.1256	-2.5901	-7.7157	-5.8476	-3.3704	-9.2185	-6.9373	-3.6001	-10.5370	65.9972	99.9825	
   500	-5.2241	-2.7355	-7.9597	-5.9626	-3.5633	-9.5264	-7.1355	-3.8423	-10.9774	66.1735	99.9848	
   501	-5.7262	-3.3839	-9.1101	-6.5982	-4.2600	-10.8586	-7.8860	-4.5705	-12.4561	66.1826	99.9850	
   502	-7.0743	-4.1431	-11.2174	-7.9030	-4.6488	-12.5523	-9.0027	-4.6414	-13.6438	64.2815	99.9803	
   503	-7.7220	-4.1744	-11.8964	-8.3645	-4.5182	-12.8832	-9.1591	-4.3761	-13.5349	64.0310	99.9753	
   504	-6.8705	-3.8622	-10.7327	-7.3751	-4.3358	-11.7114	-8.2078	-4.2808	-12.4882	65.1383	99.9793	
   505	-6.4027	-3.7438	-10.1465	-7.0118	-4.3928	-11.4051	-7.9931	-4.5951	-12.5878	66.1730	99.9842	
   506	-6.3175	-3.8045	-10.1220	-6.9973	-4.4693	-11.4671	-7.9451	-4.6291	-12.5738	66.1036	99.9802	
   507	-6.0923	-3.7647	-9.8571	-6.7769	-4.4433	-11.2208	-7.7675	-4.6351	-12.4022	66.2429	99.9819	
   508	-6.3693	-4.2604	-10.6297	-7.2428	-4.9988	-12.2421	-8.2340	-5.1741	-13.4077	66.2502	99.9753	
   509	-7.4990	-4.8569	-12.3559	-8.1256	-5.2254	-13.3515	-8.9058	-5.0617	-13.9671	64.7540	99.9736	
   510	-7.1257	-3.9062	-11.0320	-7.2323	-3.6986	-10.9313	-7.5285	-3.3515	-10.8796	63.8938	99.9797	
   511	-5.4928	-2.8727	-8.3654	-4.9963	-2.5164	-7.5132	-5.0764	-2.3559	-7.4320	65.6164	99.9894	
   512	-3.8885	-2.1677	-6.0562	-3.6398	-2.0226	-5.6629	-3.8640	-1.8079	-5.6716	65.6164	99.9858	
   513	-2.9578	-1.7785	-4.7363	-2.8499	-1.8411	-4.6914	-3.3122	-1.6964	-5.0082	65.8998	99.9868	
   514	-3.1490	-1.9810	-5.1301	-3.1617	-2.0942	-5.2564	-3.6750	-2.0848	-5.7593	66.1901	99.9874	
   515	-3.8665	-2.8609	-6.7275	-4.3753	-3.3910	-7.7668	-5.4004	-3.7571	-9.1571	67.0387	99.9902	
   516	-5.4975	-3.9781	-9.4756	-6.1984	-4.4531	-10.6520	-7.1917	-4.6796	-11.8709	66.1353	99.9857	
   517	-6.2871	-4.2522	-10.5393	-6.8964	-4.8098	-11.7067	-8.0693	-5.2096	-13.2785	66.6002	99.9917	
   518	-7.1382	-5.0164	-12.1546	-8.1463	-5.5554	-13.7022	-9.6756	-5.8341	-15.5094	64.7033	99.9920	
   519	-9.0203	-5.4259	-14.4462	-10.0707	-6.1795	-16.2507	-11.5525	-6.6072	-18.1593	65.2348	99.9908	
   520	-9.6268	-6.0820	-15.7088	-10.4283	-6.7538	-17.1826	-11.0973	-6.8986	-17.9955	66.4791	99.9672	
   521	-7.1183	-4.5943	-11.7126	-7.7632	-5.2950	-13.0588	-8.7364	-5.4791	-14.2151	66.5313	99.9819	
   522	-6.1713	-4.0678	-10.2391	-7.1767	-4.9703	-12.1475	-8.3003	-5.2586	-13.5584	66.5787	99.9755	
   523	-6.1248	-4.1522	-10.2771	-7.1118	-5.0646	-12.1769	-8.2685	-5.3776	-13.6458	66.7587	99.9777	
   524	-6.2590	-4.3903	-10.6493	-7.2426	-5.3038	-12.5469	-8.3834	-5.6209	-14.0039	66.9400	99.9774	
   525	-7.1554	-5.1684	-12.3238	-8.0485	-5.9468	-13.9958	-9.0959	-6.0900	-15.1856	66.4373	99.9746	
   526	-8.0748	-5.2679	-13.3428	-8.7327	-5.6726	-14.4058	-9.7844	-5.5176	-15.3016	64.2790	99.9812	
   527	-7.0125	-3.9920	-11.0046	-6.8463	-4.0101	-10.8569	-7.3453	-4.0917	-11.4366	66.1458	99.9915	
   528	-5.8004	-3.7264	-9.5267	-5.8718	-3.8614	-9.7337	-6.5532	-3.8720	-10.4248	65.8831	99.9903	
   529	-4.4610	-2.9866	-7.4477	-4.6436	-3.1535	-7.7976	-5.2899	-3.2172	-8.5066	66.1093	99.9880	
   530	-4.3266	-2.9746	-7.3012	-4.5921	-3.2561	-7.8486	-5.3568	-3.3127	-8.6691	66.1132	99.9877	
   531	-4.8864	-4.0542	-8.9405	-5.5582	-4.6079	-10.1666	-6.7576	-4.9521	-11.7094	66.7982	99.9908	
   532	-6.3193	-4.9787	-11.2980	-7.1010	-5.5095	-12.6110	-8.2394	-5.7229	-13.9618	66.1805	99.9868	
   533	-6.9546	-4.9316	-11.8862	-7.7409	-5.4521	-13.1935	-8.8074	-5.6414	-14.4484	65.8279	99.9848	
   534	-7.1182	-4.7073	-11.8255	-7.8439	-5.2471	-13.0914	-9.1971	-5.5548	-14.7515	65.5433	99.9928	
   535	-7.6952	-4.9070	-12.6022	-8.7039	-5.5206	-14.2250	-10.3694	-5.9921	-16.3611	64.9085	99.9939	
   536	-9.2361	-6.1242	-15.3604	-10.5596	-7.1031	-17.6632	-11.9291	-7.5924	-19.5211	66.3697	99.9804	
   537	-9.3588	-6.2986	-15.6574	-10.1230	-6.8097	-16.9332	-10.8415	-6.7165	-17.5576	65.4366	99.9658	
   538	-6.7259	-4.4940	-11.2199	-7.5366	-5.3751	-12.9122	-8.6529	-5.6619	-14.3144	66.9710	99.9810	
   539	-6.4310	-4.4115	-10.8425	-7.4322	-5.2498	-12.6825	-8.5265	-5.4114	-13.9375	66.1496	99.9719	
   540	-6.0137	-4.0415	-10.0552	-6.9287	-4.9152	-11.8444	-8.0499	-5.1654	-13.2149	66.6086	99.9774	
   541	-6.0105	-4.3363	-10.3469	-7.1084	-5.3188	-12.4277	-8.4027	-5.6651	-14.0675	66.8069	99.9785	
   542	-7.6597	-5.6202	-13.2799	-8.9455	-6.1943	-15.1403	-10.1190	-6.3587	-16.4773	64.8092	99.9744	
   543	-9.1635	-5.2314	-14.3950	-9.8247	-5.3322	-15.1574	-10.4166	-5.2091	-15.6252	63.7421	99.9750	
   544	-7.9537	-4.5432	-12.4969	-8.2087	-4.4954	-12.7046	-8.6732	-4.4343	-13.1071	64.6786	99.9843	
   545	-5.8943	-3.5722	-9.4665	-5.8462	-3.7601	-9.6068	-6.5996	-3.7194	-10.3186	65.8166	99.9922	
   546	-4.6987	-3.1047	-7.8035	-4.8499	-3.3661	-8.2165	-5.6817	-3.4420	-9.1233	66.1143	99.9912	
   547	-4.6202	-3.3814	-8.0016	-4.9532	-3.7837	-8.7374	-5.8208	-4.0854	-9.9058	67.0970	99.9903	
   548	-5.8456	-4.8850	-10.7306	-6.5338	-5.3920	-11.9264	-7.7596	-5.6994	-13.4585	66.6012	99.9912	
   549	-6.8101	-5.3374	-12.1475	-7.7183	-5.9142	-13.6330	-8.8825	-6.1484	-15.0306	66.1154	99.9848	
   550	-7.6058	-5.3608	-12.9666	-8.4420	-5.8596	-14.3022	-9.6431	-6.1238	-15.7665	65.6143	99.9887	
   551	-7.5957	-4.8599	-12.4555	-8.4633	-5.2747	-13.7386	-9.9038	-5.5605	-15.4640	64.4228	99.9929	
   552	-8.3322	-5.1154	-13.4475	-9.5117	-5.8839	-15.3961	-11.2562	-6.3996	-17.6555	64.8525	99.9935	
   553	-9.8981	-6.4893	-16.3874	-11.3838	-7.3179	-18.7022	-12.5133	-7.7777	-20.2905	65.8351	99.9704	
   554	-9.4393	-6.0514	-15.4906	-10.1870	-6.4952	-16.6827	-10.8516	-6.4234	-17.2746	65.1892	99.9674	
   555	-7.1600	-4.4362	-11.5962	-8.0879	-5.2387	-13.3271	-9.1886	-5.5067	-14.6949	66.1522	99.9790	
   556	-6.9378	-4.3276	-11.2654	-7.8734	-5.2042	-13.0781	-9.1474	-5.4701	-14.6172	66.0465	99.9823	
   557	-7.0692	-4.4085	-11.4777	-8.0088	-5.3121	-13.3214	-9.3120	-5.6163	-14.9280	66.1928	99.9836	
   558	-7.0612	-4.6298	-11.6910	-8.1219	-5.5770	-13.6994	-9.5123	-5.8919	-15.4037	66.1243	99.9827	
   559	-8.3005	-5.8874	-14.1879	-9.7255	-6.8334	-16.5594	-11.1617	-7.2278	-18.3891	65.8725	99.9776	
   560	-10.5284	-6.5946	-17.1230	-11.6237	-7.0385	-18.6628	-12.6003	-7.0090	-19.6089	63.7317	99.9705	
   561	-9.6835	-5.4667	-15.1502	-10.0440	-5.6504	-15.6950	-10.9264	-5.6363	-16.5623	64.2835	99.9900	
   562	-8.2270	-4.8669	-13.0939	-8.5981	-4.8573	-13.4559	-9.3481	-4.7408	-14.0885	63.9109	99.9874	
   563	-6.3168	-3.5637	-9.8805	-6.5817	-3.6884	-10.2706	-7.3533	-3.7653	-11.1182	65.1156	99.9900	
   564	-5.4916	-3.0840	-8.5756	-5.6995	-3.2670	-8.9670	-6.3698	-3.4146	-9.7840	65.8836	99.9890	
   565	-5.1864	-3.7583	-8.9446	-5.7921	-4.1296	-9.9222	-6.7149	-4.3372	-11.0516	66.0613	99.9867	
   566	-6.3474	-4.9536	-11.3010	-6.9116	-5.2586	-12.1706	-7.9864	-5.4035	-13.3895	65.7559	99.9904	
   567	-7.0395	-5.0970	-12.1365	-8.0212	-5.6126	-13.6343	-9.2441	-5.8731	-15.1168	65.3989	99.9862	
   568	-8.0403	-4.9640	-13.0043	-8.9038	-5.4240	-14.3283	-10.2376	-5.6526	-15.8898	64.4585	99.9909	
   569	-8.2843	-4.6054	-12.8897	-9.3817	-4.9373	-14.3195	-11.0175	-5.2124	-16.2296	62.5650	99.9932	
   570	-9.8259	-5.1445	-14.9704	-11.3752	-5.9456	-17.3213	-13.2319	-6.5077	-19.7392	63.1406	99.9914	
   571	-11.4411	-6.5911	-18.0322	-12.9584	-7.2871	-20.2460	-13.9693	-7.3881	-21.3570	63.4692	99.9540	
   572	-9.2539	-4.7923	-14.0462	-9.8317	-5.2389	-15.0711	-10.5642	-5.2591	-15.8229	64.8080	99.9780	
   573	-7.5260	-3.8982	-11.4243	-8.6059	-4.7767	-13.3831	-9.9151	-5.0116	-14.9263	64.8865	99.9791	
   574	-7.5986	-3.8722	-11.4708	-8.6071	-4.6920	-13.2995	-9.9053	-4.9413	-14.8462	64.8532	99.9824	
   575	-7.6981	-3.9194	-11.6175	-8.7991	-4.6760	-13.4756	-10.0622	-4.8688	-14.9306	64.3100	99.9789	
   576	-7.8682	-4.0241	-11.8922	-9.0574	-4.8962	-13.9541	-10.4710	-5.1898	-15.6605	64.5076	99.9818	
   577	-8.5595	-4.9585	-13.5180	-10.0795	-5.8066	-15.8866	-11.5660	-6.1880	-17.7537	64.2065	99.9790	
   578	-10.8411	-6.1511	-16.9922	-12.4983	-6.5155	-19.0142	-13.5769	-6.5107	-20.0872	61.4624	99.9595	
   579	-11.0189	-5.2288	-16.2477	-12.0057	-5.2233	-17.2295	-12.6753	-4.9389	-17.6138	60.9630	99.9664	
   580	-9.2023	-4.1104	-13.3128	-9.7405	-3.9866	-13.7276	-10.5489	-3.9021	-14.4506	62.0696	99.9877	
   581	-7.2642	-2.7194	-9.9835	-7.5477	-2.6724	-10.2206	-8.2185	-2.6195	-10.8376	63.2223	99.9883	
   582	-6.2350	-2.1847	-8.4197	-6.5774	-2.2821	-8.8601	-7.3497	-2.2339	-9.5832	63.4942	99.9878	
   583	-5.6865	-2.5396	-8.2261	-6.0448	-2.8206	-8.8660	-6.9861	-2.9357	-9.9214	64.7450	99.9908	
   584	-5.9827	-3.1036	-9.0864	-6.6095	-3.4126	-10.0226	-7.8016	-3.5445	-11.3457	64.1034	99.9915	
   585	-6.8189	-3.2933	-10.1122	-7.8132	-3.7269	-11.5405	-9.1914	-3.9901	-13.1811	63.4450	99.9902	
   586	-8.2990	-3.4553	-11.7543	-9.2784	-3.7996	-13.0784	-10.6941	-4.0041	-14.6978	62.1980	99.9914	
   587	-8.9624	-3.2701	-12.2325	-10.2720	-3.5329	-13.8053	-12.0680	-3.8195	-15.8871	60.0175	99.9931	
   588	-11.0781	-4.0779	-15.1559	-12.9274	-4.6317	-17.5596	-14.8071	-5.1451	-19.9518	59.5732	99.9889	
   589	-12.9475	-5.5538	-18.5013	-14.7016	-6.2495	-20.9516	-15.9430	-6.5432	-22.4858	61.1987	99.9653	
   590	-11.7696	-4.7863	-16.5559	-12.8902	-4.9627	-17.8535	-13.7558	-4.8694	-18.6248	60.6262	99.9717	
   591	-9.6828	-3.1624	-12.8452	-11.1623	-3.7762	-14.9390	-12.4868	-4.0292	-16.5156	61.2625	99.9770	
   592	-9.9466	-3.3389	-13.2855	-11.4568	-3.9576	-15.4149	-12.9052	-4.1425	-17.0473	60.6676	99.9783	
   593	-10.0523	-3.0223	-13.0746	-11.3810	-3.5692	-14.9507	-12.7205	-3.6628	-16.3829	60.4896	99.9785	
   594	-9.5906	-2.5402	-12.1308	-10.9467	-3.1063	-14.0535	-12.3550	-3.2300	-15.5845	60.3188	99.9803	
   595	-9.6177	-2.5004	-12.1181	-11.0525	-3.0495	-14.1025	-12.5279	-3.1462	-15.6737	59.7805	99.9801	
   596	-9.7465	-2.3111	-12.0576	-11.1480	-2.8276	-13.9761	-12.5696	-2.9157	-15.4849	59.6222	99.9798	
   597	-9.7371	-2.0509	-11.7880	-11.0751	-2.5874	-13.6630	-12.5381	-2.6714	-15.2091	59.5253	99.9821	
   598	-9.7682	-1.8439	-11.6121	-11.0222	-2.3595	-13.3823	-12.4498	-2.4983	-14.9476	59.7351	99.9847	
   599	-9.6399	-1.5811	-11.2210	-10.7147	-2.0725	-12.7877	-12.1577	-2.1757	-14.3330	59.7953	99.9883	
   600	-9.3636	-1.3262	-10.6899	-10.4356	-1.8273	-12.2633	-11.8836	-1.8752	-13.7584	59.6097	99.9871	
   601	-9.2072	-1.0886	-10.2958	-10.2780	-1.5715	-11.8500	-11.7259	-1.6584	-13.3840	59.5882	99.9882	
   602	-9.3011	-1.0474	-10.3485	-10.3799	-1.4512	-11.8316	-11.7668	-1.5986	-13.3650	59.5633	99.9887	
   603	-9.5533	-1.1603	-10.7136	-10.6700	-1.6666	-12.3371	-12.1504	-1.8718	-14.0218	59.7090	99.9898	
   604	-9.9031	-1.4039	-11.3070	-11.1224	-2.0063	-13.1292	-12.6511	-2.2398	-14.8905	59.7394	99.9885	
   605	-10.3086	-1.9363	-12.2449	-11.8278	-2.3798	-14.2082	-13.4673	-2.3999	-15.8668	57.6997	99.9835	
   606	-10.9920	-2.1732	-13.1651	-12.7358	-2.3899	-15.1262	-14.3699	-2.2399	-16.6094	55.6087	99.9783	
   607	-12.7236	-2.2074	-14.9309	-14.4854	-2.1739	-16.6598	-15.8495	-1.7796	-17.6287	53.5660	99.9670	
   608	-13.2984	-1.6849	-14.9833	-14.7094	-1.6407	-16.3506	-15.8808	-1.2860	-17.1664	54.2793	99.9725	
   609	-13.3344	-1.4385	-14.7729	-14.7616	-1.3433	-16.1054	-15.8715	-0.9487	-16.8198	53.9047	99.9699	
   610	-13.0349	-1.1694	-14.2043	-14.4479	-1.1622	-15.6105	-15.5855	-0.7262	-16.3113	54.0080	99.9670	
   611	-12.9586	-1.1365	-14.0951	-14.5304	-1.0422	-15.5731	-15.6010	-0.5221	-16.1226	53.2762	99.9580	
   612	-13.1965	-1.0286	-14.2251	-14.6811	-0.8787	-15.5603	-15.6484	-0.2953	-15.9433	53.1651	99.9559	
   613	-13.2033	-1.0186	-14.2219	-14.7566	-0.8520	-15.6091	-15.6144	-0.2846	-15.8986	53.2544	99.9494	
   614	-11.3675	-0.7506	-12.1182	-12.9004	-1.1121	-14.0130	-14.3661	-0.8902	-15.2560	55.4564	99.9722	
   615	-11.1305	-0.8733	-12.0038	-12.7489	-1.2629	-14.0124	-14.0988	-1.1607	-15.2591	56.2477	99.9688	
   616	-11.1198	-0.9374	-12.0572	-12.6206	-1.2693	-13.8905	-14.0961	-1.1162	-15.2119	55.9395	99.9767	
   617	-11.3751	-0.8684	-12.2435	-12.8197	-1.1601	-13.9803	-14.2285	-1.0070	-15.2351	55.9019	99.9771	
   618	-11.5386	-0.7571	-12.2957	-12.9082	-1.0315	-13.9402	-14.3321	-0.8796	-15.2112	55.8107	99.9801	
   619	-11.6780	-0.6167	-12.2947	-13.0699	-0.8381	-13.9085	-14.4585	-0.6703	-15.1284	55.4304	99.9793	
   620	-11.7382	-0.3993	-12.1375	-13.0127	-0.6442	-13.6574	-14.3644	-0.4935	-14.8575	55.7371	99.9810	
   621	-11.6706	-0.2729	-11.9435	-12.8859	-0.4685	-13.3548	-14.2304	-0.3024	-14.5324	55.6468	99.9828	
   622	-11.5549	 0.0245	-11.5304	-12.7999	-0.1226	-12.9230	-14.2552	 0.0242	-14.2306	55.0586	99.9864	
   623	-11.6035	 0.3055	-11.2980	-13.0768	 0.1828	-12.8944	-14.7550	 0.4052	-14.3494	53.3672	99.9864	
   624	-12.0531	 0.3538	-11.6993	-13.7717	 0.3894	-13.3827	-15.4195	 0.8216	-14.5975	51.3455	99.9776	
   625	-12.8130	 0.3100	-12.5030	-14.4528	 0.7144	-13.7388	-15.8208	 1.3607	-14.4597	50.0737	99.9731	
   626	-13.4070	 0.6511	-12.7559	-14.8177	 1.2585	-13.5596	-15.8897	 1.9697	-13.9195	50.0290	99.9726	
   627	-13.1379	 1.2550	-11.8829	-14.4018	 1.7344	-12.6679	-15.3990	 2.4492	-12.9494	50.7070	99.9706	
   628	-12.5792	 1.4010	-11.1781	-14.1955	 1.9469	-12.2491	-15.1772	 2.6206	-12.5562	50.0406	99.9622	
   629	-13.2857	 1.1498	-12.1358	-14.6766	 1.6628	-13.0143	-15.8068	 2.2356	-13.5708	50.3309	99.9769	
   630	-13.3977	 1.0243	-12.3734	-14.9541	 1.4430	-13.5117	-16.1728	 2.0698	-14.1027	49.8012	99.9715	
   631	-13.4896	 1.0950	-12.3947	-15.0367	 1.5630	-13.4742	-16.1934	 2.2814	-13.9116	49.4700	99.9676	
   632	-13.3602	 1.2594	-12.1008	-14.8603	 1.7083	-13.1526	-16.0649	 2.3836	-13.6809	49.6187	99.9718	
   633	-13.3787	 1.3187	-12.0599	-14.9646	 1.7905	-13.1746	-16.1793	 2.5148	-13.6641	49.1070	99.9685	
   634	-13.4464	 1.4184	-12.0281	-15.0456	 1.9359	-13.1102	-16.2083	 2.6784	-13.5296	48.9115	99.9668	
   635	-13.4814	 1.5665	-11.9149	-15.1108	 2.1276	-12.9837	-16.2629	 2.8793	-13.3832	48.5837	99.9665	
   636	-13.5463	 1.7103	-11.8361	-15.1650	 2.2895	-12.8760	-16.3009	 3.0800	-13.2204	48.3511	99.9653	
   637	-13.5281	 1.8769	-11.6512	-15.1279	 2.4710	-12.6574	-16.2418	 3.3203	-12.9211	48.1500	99.9632	
   638	-13.4905	 1.9990	-11.4915	-15.1109	 2.6402	-12.4713	-16.2266	 3.4795	-12.7467	47.9294	99.9645	
   639	-13.5506	 2.1034	-11.4472	-15.2088	 2.8240	-12.3854	-16.2877	 3.6657	-12.6216	47.5876	99.9642	
   640	-13.6918	 2.2143	-11.4775	-15.3378	 3.0252	-12.3131	-16.3559	 3.8260	-12.5294	47.4733	99.9664	
   641	-13.8099	 2.3395	-11.4704	-15.4295	 3.1030	-12.3269	-16.5043	 3.9466	-12.5573	47.2422	99.9667	
   642	-13.7936	 2.4768	-11.3168	-15.4510	 3.2728	-12.1787	-16.4942	 4.1133	-12.3805	47.0635	99.9653	
   643	-13.7657	 2.5646	-11.2010	-15.3801	 3.3775	-12.0031	-16.4617	 4.2835	-12.1778	46.8100	99.9663	
   644	-13.7329	 2.7261	-11.0068	-15.3843	 3.6190	-11.7658	-16.4271	 4.4870	-11.9397	46.6151	99.9673	
   645	-13.7747	 2.8842	-10.8905	-15.4200	 3.7679	-11.6526	-16.4817	 4.6879	-11.7934	46.3317	99.9662	
   646	-13.7951	 3.0271	-10.7680	-15.4290	 3.9333	-11.4963	-16.4948	 4.8401	-11.6542	46.2182	99.9678	
   647	-13.8271	 3.1063	-10.7208	-15.4805	 4.0358	-11.4452	-16.5425	 4.9705	-11.5716	45.9643	99.9668	
   648	-13.8214	 3.1947	-10.6267	-15.4592	 4.1710	-11.2887	-16.4735	 5.0994	-11.3737	45.9690	99.9670	
   649	-13.8012	 3.2778	-10.5234	-15.4587	 4.2811	-11.1781	-16.4906	 5.1849	-11.3053	45.8232	99.9686	
   650	-13.8718	 3.3332	-10.5385	-15.5343	 4.3078	-11.2270	-16.6135	 5.2681	-11.3450	45.5257	99.9676	
   651	-13.9579	 3.3792	-10.5787	-15.6645	 4.3862	-11.2788	-16.7333	 5.3104	-11.4225	45.3566	99.9680	
   652	-14.0594	 3.4156	-10.6438	-15.7483	 4.3834	-11.3654	-16.8391	 5.3081	-11.5307	45.3560	99.9683	
   653	-14.0575	 3.4451	-10.6125	-15.7637	 4.4472	-11.3169	-16.8235	 5.3820	-11.4411	45.2554	99.9672	
   654	-14.0537	 3.5039	-10.5498	-15.7286	 4.4932	-11.2359	-16.8406	 5.4675	-11.3727	45.0926	99.9685	
   655	-14.0963	 3.5343	-10.5620	-15.8336	 4.5628	-11.2714	-16.8951	 5.4868	-11.4079	45.0414	99.9674	
   656	-14.1292	 3.5988	-10.5304	-15.8615	 4.6310	-11.2310	-16.9526	 5.5468	-11.4054	44.9227	99.9691	
   657	-14.2027	 3.6101	-10.5926	-15.9706	 4.6371	-11.3340	-17.0724	 5.5892	-11.4829	44.6568	99.9671	
   658	-14.1951	 3.7279	-10.4672	-15.9410	 4.8018	-11.1397	-16.9899	 5.7587	-11.2308	44.6504	99.9669	
   659	-14.1159	 3.8049	-10.3110	-15.8752	 4.9278	-10.9479	-16.9638	 5.9141	-11.0493	44.3046	99.9683	
   660	-14.1044	 3.8685	-10.2358	-15.8752	 4.9278	-10.9479	-16.9934	 5.8848	-11.1082	44.4068	99.9683	
   661	-14.1865	 3.8603	-10.3262	-15.9464	 4.9205	-11.0264	-17.0805	 5.9156	-11.1645	44.2384	99.9681	
   662	-14.2600	 3.8716	-10.3884	-16.0471	 4.9561	-11.0915	-17.1812	 5.9058	-11.2751	44.1624	99.9694	
   663	-14.2890	 3.8821	-10.4070	-16.0613	 4.9351	-11.1267	-17.2221	 5.9656	-11.2561	43.9722	99.9673	
   664	-14.2581	 3.9011	-10.3570	-16.0137	 4.9767	-11.0375	-17.1381	 5.9756	-11.1620	44.1495	99.9682	
   665	-14.2775	 3.9457	-10.3318	-16.0711	 5.0878	-10.9838	-17.1878	 6.0727	-11.1147	43.8866	99.9689	
   666	-14.3327	 4.0107	-10.3220	-16.1242	 5.1650	-10.9597	-17.2287	 6.1326	-11.0957	43.8591	99.9694	
   667	-14.3898	 4.0462	-10.3436	-16.1745	 5.1827	-10.9923	-17.2832	 6.1518	-11.1310	43.8468	99.9693	
   668	-14.4613	 4.0869	-10.3744	-16.2796	 5.2523	-11.0278	-17.3925	 6.2756	-11.1165	43.4498	99.9675	
   669	-14.4875	 4.1415	-10.3460	-16.3244	 5.3590	-10.9659	-17.4313	 6.3688	-11.0622	43.2609	99.9685	
   670	-14.5330	 4.2407	-10.2924	-16.3692	 5.4656	-10.9041	-17.4804	 6.4769	-11.0031	43.1331	99.9689	
   671	-14.5863	 4.3351	-10.2512	-16.4282	 5.5513	-10.8773	-17.5353	 6.5815	-10.9534	43.0053	99.9678	
   672	-14.6628	 4.4152	-10.2475	-16.4938	 5.6329	-10.8614	-17.6255	 6.6531	-10.9720	42.8856	99.9694	
   673	-14.7044	 4.4603	-10.2441	-16.5697	 5.7570	-10.8132	-17.6559	 6.7944	-10.8611	42.6087	99.9682	
   674	-14.5585	 4.5360	-10.0225	-16.3336	 5.8293	-10.5048	-17.4709	 6.9106	-10.5598	42.6655	99.9712	
   675	-14.4299	 4.5727	-9.8572	-16.2289	 5.8572	-10.3722	-17.3593	 6.9166	-10.4422	42.7654	99.9706	
   676	-14.4338	 4.6269	-9.8070	-16.2501	 5.9295	-10.3210	-17.3675	 6.9649	-10.4021	42.7321	99.9708	
   677	-14.4184	 4.6364	-9.7820	-16.2544	 5.9635	-10.2914	-17.4492	 7.0846	-10.3642	42.1865	99.9711	
   678	-14.4319	 4.6563	-9.7756	-16.2461	 5.9930	-10.2536	-17.3621	 7.0539	-10.3078	42.5711	99.9709	
   679	-14.3324	 4.7034	-9.6289	-16.1205	 6.0460	-10.0751	-17.2042	 7.0889	-10.1149	42.8010	99.9711	
   680	-14.2154	 4.6765	-9.5388	-16.0241	 6.0443	-9.9803	-17.1797	 7.1257	-10.0537	42.4834	99.9725	
   681	-14.2308	 4.6670	-9.5638	-16.0324	 6.0148	-10.0181	-17.2042	 7.0889	-10.1149	42.5240	99.9730	
   682	-14.2327	 4.6376	-9.5952	-16.0407	 5.9853	-10.0559	-17.2587	 7.1081	-10.1501	42.2721	99.9730	
   683	-14.2559	 4.6233	-9.6326	-16.0616	 5.9602	-10.1018	-17.2587	 7.1081	-10.1501	42.2916	99.9714	
   684	-14.1293	 4.6306	-9.4987	-15.8939	 5.9659	-9.9285	-17.0599	 7.0833	-9.9762	42.6545	99.9723	
   685	-14.0268	 4.6089	-9.4179	-15.8227	 5.9732	-9.8500	-17.0028	 7.1086	-9.8938	42.4954	99.9720	
   686	-14.0142	 4.5743	-9.4399	-15.8309	 5.9436	-9.8878	-17.0272	 7.0718	-9.9551	42.4300	99.9723	
   687	-14.0383	 4.5453	-9.4931	-15.8349	 5.8802	-9.9552	-17.0517	 7.0350	-10.0163	42.4502	99.9720	
   688	-14.0837	 4.5314	-9.5523	-15.8979	 5.9024	-9.9959	-17.0844	 7.0466	-10.0374	42.3969	99.9716	
   689	-13.9803	 4.5244	-9.4558	-15.7133	 5.8696	-9.8442	-16.9483	 7.0893	-9.8586	42.4348	99.9727	
   690	-13.8555	 4.5023	-9.3532	-15.6421	 5.8769	-9.7657	-16.8503	 7.0547	-9.7952	42.4945	99.9722	
   691	-13.8642	 4.4828	-9.3814	-15.6378	 5.8430	-9.7953	-16.8748	 7.0179	-9.8564	42.5018	99.9732	
   692	-13.8671	 4.4387	-9.4284	-15.6417	 5.7795	-9.8627	-16.8992	 6.9812	-9.9177	42.4494	99.9727	
   693	-13.8767	 4.4045	-9.4723	-15.6500	 5.7500	-9.9005	-16.8801	 6.9290	-9.9507	42.5883	99.9726	
   694	-13.7646	 4.4170	-9.3476	-15.5075	 5.7645	-9.7435	-16.7305	 7.0124	-9.7177	42.5788	99.9711	
   695	-13.6321	 4.3996	-9.2325	-15.3608	 5.7451	-9.6162	-16.5589	 6.9063	-9.6522	43.0139	99.9731	
   696	-13.6050	 4.3597	-9.2453	-15.3564	 5.7111	-9.6458	-16.5834	 6.8696	-9.7134	42.9101	99.9737	
   697	-13.6011	 4.3056	-9.2955	-15.3352	 5.6388	-9.6970	-16.6160	 6.8811	-9.7345	42.6789	99.9731	
   698	-13.6030	 4.2762	-9.3268	-15.3856	 5.6565	-9.7295	-16.5752	 6.8212	-9.7535	42.8897	99.9720	
   699	-13.5053	 4.2939	-9.2115	-15.2010	 5.6238	-9.5778	-16.4064	 6.8524	-9.5536	43.1031	99.9718	
   700	-13.3448	 4.2513	-9.0934	-15.0668	 5.6088	-9.4585	-16.3084	 6.8178	-9.4902	43.0515	99.9735	
   701	-13.3457	 4.2366	-9.1091	-15.0751	 5.5793	-9.4963	-16.3002	 6.7695	-9.5303	43.1708	99.9730	
   702	-13.3273	 4.1773	-9.1500	-15.0708	 5.5453	-9.5260	-16.3002	 6.7695	-9.5303	43.0185	99.9723	
   703	-13.3283	 4.1626	-9.1657	-15.0539	 5.5069	-9.5475	-16.3328	 6.7810	-9.5514	42.8742	99.9724	
   704	-13.2103	 4.1504	-9.0599	-14.8988	 5.5170	-9.3823	-16.1205	 6.7968	-9.3233	43.1449	99.9718	
   705	-13.0643	 4.1131	-8.9512	-14.7603	 5.4681	-9.2928	-16.0552	 6.7738	-9.2810	43.0153	99.9730	
   706	-13.0526	 4.0637	-8.9889	-14.7643	 5.4046	-9.3602	-16.0388	 6.6771	-9.3612	43.1876	99.9725	
   707	-13.0932	 4.0105	-9.0827	-14.8061	 5.3545	-9.4521	-16.0550	 6.5921	-9.4626	43.3398	99.9728	
   708	-13.1395	 3.9819	-9.1576	-14.8352	 5.2999	-9.5358	-16.1449	 6.5784	-9.5661	43.1708	99.9734	
   709	-13.1801	 3.9287	-9.2514	-14.9080	 5.2672	-9.6413	-16.1938	 6.5049	-9.6885	43.2057	99.9735	
   710	-13.2555	 3.9105	-9.3450	-14.9750	 5.2260	-9.7494	-16.2727	 6.4873	-9.7850	43.1540	99.9729	
   711	-13.3154	 3.9019	-9.4135	-15.0167	 5.1759	-9.8413	-16.3626	 6.4737	-9.8885	43.0503	99.9728	
   712	-13.4140	 3.8695	-9.5445	-15.1230	 5.1226	-10.0009	-16.4660	 6.4194	-10.0462	43.0457	99.9720	
   713	-13.5155	 3.7929	-9.7226	-15.2458	 5.0103	-10.2360	-16.5768	 6.2428	-10.3336	43.2570	99.9722	
   714	-13.5193	 3.7340	-9.7853	-15.1884	 4.8992	-10.2897	-16.4457	 6.1113	-10.3339	43.8449	99.9706	
   715	-13.2581	 3.6404	-9.6178	-14.9658	 4.7557	-10.2106	-16.2628	 5.9162	-10.3462	44.1389	99.9712	
   716	-13.2281	 3.5317	-9.6964	-14.9265	 4.5602	-10.3668	-16.2916	 5.7163	-10.5749	44.3106	99.9716	
   717	-13.3237	 3.4304	-9.8933	-15.0065	 4.4133	-10.5937	-16.4017	 5.5509	-10.8504	44.4405	99.9726	
   718	-13.4174	 3.3586	-10.0588	-15.1647	 4.3524	-10.8128	-16.5013	 5.4669	-11.0341	44.4383	99.9697	
   719	-13.5015	 3.3209	-10.1805	-15.2375	 4.3197	-10.9183	-16.5885	 5.4976	-11.0904	44.2143	99.9684	
   720	-13.4725	 3.3105	-10.1619	-15.2277	 4.3746	-10.8535	-16.5371	 5.5192	-11.0175	44.2168	99.9694	
   721	-13.6204	 3.3184	-10.3020	-15.3552	 4.3937	-10.9619	-16.6896	 5.5731	-11.1161	43.9752	99.9701	
   722	-13.7384	 3.3306	-10.4078	-15.4811	 4.4382	-11.0434	-16.8125	 5.6563	-11.1558	43.6849	99.9693	
   723	-13.8535	 3.3869	-10.4665	-15.5955	 4.5630	-11.0331	-16.9280	 5.8617	-11.0659	43.1773	99.9685	
   724	-13.8971	 3.5155	-10.3816	-15.5911	 4.7366	-10.8550	-16.8914	 6.0985	-10.7925	43.0033	99.9678	
   725	-13.7242	 3.6644	-10.0598	-15.3856	 4.9364	-10.4496	-16.6339	 6.2176	-10.4159	43.3359	99.9711	
   726	-13.6499	 3.7808	-9.8690	-15.2946	 5.0535	-10.2416	-16.6207	 6.3435	-10.2769	43.1246	99.9740	
   727	-13.6479	 3.8103	-9.8377	-15.3284	 5.1303	-10.1986	-16.6072	 6.3841	-10.2227	43.1102	99.9737	
   728	-13.6790	 3.9043	-9.7747	-15.3370	 5.1982	-10.1393	-16.6511	 6.4848	-10.1659	42.9778	99.9739	
   729	-13.6761	 3.9484	-9.7277	-15.3272	 5.2531	-10.0745	-16.6540	 6.6220	-10.0315	42.6980	99.9722	
   730	-13.5466	 3.9999	-9.5467	-15.1681	 5.3267	-9.8419	-16.4852	 6.6532	-9.8316	42.9134	99.9745	
   731	-13.4712	 4.0180	-9.4532	-15.0969	 5.3340	-9.7634	-16.4280	 6.6784	-9.7492	42.8868	99.9740	
   732	-13.4848	 4.0379	-9.4468	-15.1457	 5.3772	-9.7690	-16.4280	 6.6784	-9.7492	42.9527	99.9734	
   733	-13.5138	 4.0484	-9.4654	-15.1347	 5.3473	-9.7878	-16.4607	 6.6900	-9.7703	42.9134	99.9736	
   734	-13.5718	 4.0692	-9.5027	-15.1976	 5.3696	-9.8286	-16.4934	 6.7015	-9.7915	42.9527	99.9729	
   735	-13.4732	 4.1016	-9.3716	-15.0787	 5.4184	-9.6609	-16.3573	 6.7443	-9.6126	43.0747	99.9734	
   736	-13.4007	 4.0756	-9.3251	-15.0241	 5.3666	-9.6579	-16.3382	 6.6921	-9.6457	43.0640	99.9735	
   737	-13.4539	 4.0570	-9.3969	-15.0953	 5.3594	-9.7364	-16.3545	 6.6070	-9.7471	43.3089	99.9739	
   738	-13.5157	 4.0189	-9.4968	-15.1343	 5.2499	-9.8849	-16.4361	 6.5451	-9.8907	43.2986	99.9726	
   739	-13.6007	 3.9666	-9.6342	-15.2489	 5.1671	-10.0823	-16.4904	 6.3826	-10.1074	43.6403	99.9715	
   740	-13.6036	 3.9224	-9.6812	-15.1856	 5.0474	-10.1387	-16.4138	 6.2704	-10.1430	44.0563	99.9707	
   741	-13.5194	 3.8470	-9.6724	-15.1703	 4.9836	-10.1872	-16.3916	 6.1774	-10.2138	44.0414	99.9697	
   742	-13.6199	 3.7852	-9.8347	-15.2597	 4.8920	-10.3682	-16.5246	 6.0938	-10.4304	43.9810	99.9705	
   743	-13.7126	 3.7280	-9.9846	-15.3365	 4.7958	-10.5411	-16.5783	 5.9425	-10.6354	44.3059	99.9710	
   744	-13.7696	 3.6506	-10.1190	-15.4400	 4.6832	-10.7573	-16.6993	 5.7809	-10.9180	44.3658	99.9710	
   745	-13.7387	 3.6696	-10.0691	-15.4023	 4.6699	-10.7329	-16.5795	 5.7386	-10.8405	44.7765	99.9682	
   746	-13.6371	 3.6332	-10.0040	-15.2905	 4.6044	-10.6866	-16.5028	 5.6263	-10.8761	45.0043	99.9706	
   747	-13.6681	 3.6141	-10.0539	-15.3338	 4.5289	-10.8054	-16.5698	 5.5308	-11.0386	45.1031	99.9702	
   748	-13.7454	 3.5666	-10.1788	-15.4083	 4.4709	-10.9379	-16.6150	 5.4275	-11.1870	45.3165	99.9705	
   749	-13.8063	 3.5432	-10.2630	-15.4642	 4.3998	-11.0649	-16.6850	 5.3728	-11.3118	45.3496	99.9693	
   750	-13.8971	 3.5155	-10.3816	-15.5370	 4.3671	-11.1704	-16.7364	 5.3512	-11.3848	45.3950	99.9686	
   751	-13.8796	 3.4415	-10.4381	-15.5413	 4.4011	-11.1407	-16.6850	 5.3728	-11.3118	45.2891	99.9693	
   752	-13.9531	 3.4528	-10.5003	-15.5413	 4.4011	-11.1407	-16.7239	 5.4660	-11.2575	45.1052	99.9694	
   753	-14.0238	 3.5082	-10.5155	-15.5676	 4.4947	-11.0734	-16.7239	 5.4660	-11.2575	45.3578	99.9738	
   754	-14.2480	 3.4833	-10.7648	-15.7554	 4.4767	-11.2791	-16.9169	 5.4945	-11.4220	45.1619	99.9738	
   755	-14.3187	 3.5387	-10.7800	-15.8102	 4.3209	-11.4897	-16.9704	 5.1614	-11.8085	46.1694	99.9745	
   756	-14.2150	 3.3057	-10.9093	-15.8592	 3.9490	-11.9107	-16.9797	 4.8241	-12.1551	46.3780	99.9631	
   757	-13.7627	 3.5276	-10.2351	-15.3875	 4.2884	-11.0996	-16.4423	 5.2473	-11.1946	46.2173	99.9614	
   758	-13.0358	 3.6359	-9.3998	-14.6708	 4.3271	-10.3442	-15.7794	 5.1720	-10.6069	46.9660	99.9653	
   759	-11.9831	 3.8458	-8.1373	-13.8369	 4.3893	-9.4481	-15.1024	 5.0521	-10.0500	47.4526	99.9664	
   760	-11.1954	 4.2035	-6.9919	-13.0807	 4.6476	-8.4336	-14.4103	 5.0914	-9.3185	48.3767	99.9721	
   761	-10.5266	 4.4456	-6.0810	-12.3040	 5.0284	-7.2761	-13.6585	 5.3820	-8.2761	48.7371	99.9801	
   762	-10.2047	 4.4883	-5.7164	-11.8695	 5.1863	-6.6837	-13.2747	 5.4735	-7.8008	48.9430	99.9853	
   763	-10.2741	 4.3325	-5.9417	-11.9117	 5.0260	-6.8862	-13.4376	 5.2642	-8.1729	48.9117	99.9881	
   764	-10.6925	 4.0608	-6.6317	-12.1924	 4.7554	-7.4375	-13.6709	 5.0856	-8.5849	49.0361	99.9888	
   765	-10.8472	 4.0786	-6.7686	-12.3159	 4.8380	-7.4785	-13.7716	 5.0757	-8.6955	49.1376	99.9890	
   766	-10.7478	 4.2388	-6.5090	-12.2537	 5.0106	-7.2436	-13.6908	 5.3083	-8.3821	48.8464	99.9884	
   767	-10.5111	 4.4551	-6.0560	-12.0709	 5.2574	-6.8140	-13.4544	 5.4461	-8.0078	49.0723	99.9870	
   768	-10.3807	 4.5213	-5.8594	-11.9847	 5.2983	-6.6869	-13.4599	 5.5389	-7.9206	48.6924	99.9878	
   769	-10.4232	 4.5516	-5.8716	-12.0185	 5.3752	-6.6439	-13.4681	 5.5872	-7.8804	48.6825	99.9875	
   770	-10.6145	 4.3491	-6.2654	-12.1654	 5.1870	-6.9789	-13.5986	 5.4517	-8.1465	48.6631	99.9879	
   771	-10.8745	 4.2315	-6.6430	-12.3753	 5.0211	-7.3546	-13.7888	 5.3429	-8.4455	48.7257	99.9881	
   772	-10.8590	 4.2410	-6.6180	-12.4004	 5.0300	-7.3709	-13.8650	 5.3699	-8.4948	48.4463	99.9884	
   773	-10.9412	 4.2328	-6.7084	-12.5095	 5.0361	-7.4739	-13.9658	 5.3600	-8.6053	48.3543	99.9880	
   774	-11.0031	 4.3077	-6.6954	-12.6145	 5.1057	-7.5093	-14.0716	 5.3577	-8.7135	48.3635	99.9876	
   775	-11.0660	 4.3679	-6.6981	-12.7046	 5.2088	-7.4962	-14.1809	 5.4815	-8.6990	47.9852	99.9876	
   776	-11.0256	 4.5342	-6.4914	-12.6565	 5.3605	-7.2965	-14.1324	 5.6403	-8.4917	47.9424	99.9877	
   777	-10.8246	 4.6579	-6.1667	-12.4506	 5.4629	-6.9882	-13.9718	 5.7198	-8.2516	48.0102	99.9883	
   778	-10.8401	 4.6484	-6.1916	-12.5053	 5.5147	-6.9911	-14.0127	 5.7796	-8.2326	47.7493	99.9877	
   779	-10.8575	 4.7225	-6.1351	-12.4844	 5.5398	-6.9451	-13.9773	 5.8126	-8.1644	47.9386	99.9880	
   780	-10.8575	 4.7225	-6.1351	-12.5702	 5.6090	-6.9617	-14.0536	 5.8395	-8.2137	47.6664	99.9868	
   781	-10.8963	 4.8117	-6.0846	-12.5595	 5.6766	-6.8834	-14.0264	 5.9207	-8.1053	47.7745	99.9872	
   782	-10.7987	 4.8294	-5.9693	-12.4713	 5.6454	-6.8264	-13.9937	 5.9092	-8.0841	47.7392	99.9879	
   783	-10.7794	 4.8978	-5.8816	-12.4752	 5.7895	-6.6862	-14.0047	 6.0947	-7.9096	47.3066	99.9878	
   784	-10.7804	 4.9961	-5.7844	-12.4897	 5.8660	-6.6242	-13.9721	 6.0832	-7.8885	47.6292	99.9868	
   785	-10.8472	 4.9974	-5.8498	-12.5299	 5.8413	-6.6891	-14.0483	 6.1101	-7.9378	47.4888	99.9877	
   786	-10.9399	 4.9403	-5.9996	-12.6244	 5.7709	-6.8540	-14.1762	 6.0191	-8.1567	47.4662	99.9881	
   787	-11.1061	 4.7815	-6.3246	-12.7212	 5.6624	-7.0594	-14.1680	 5.9708	-8.1968	47.6124	99.9875	
   788	-11.1447	 4.7577	-6.3870	-12.8326	 5.6304	-7.2028	-14.3014	 5.9725	-8.3285	47.2860	99.9869	
   789	-11.3487	 4.7028	-6.6459	-13.0511	 5.5324	-7.5192	-14.5627	 5.8831	-8.6791	47.1296	99.9873	
   790	-11.5430	 4.6821	-6.8609	-13.2565	 5.5401	-7.7169	-14.8268	 5.9310	-8.8953	46.6399	99.9881	
   791	-11.6977	 4.6999	-6.9978	-13.4435	 5.5348	-7.9092	-14.9846	 5.8960	-9.0882	46.6594	99.9873	
   792	-11.8138	 4.7416	-7.0722	-13.5233	 5.5954	-7.9284	-15.0582	 5.9674	-9.0904	46.5842	99.9877	
   793	-11.7887	 4.7853	-7.0034	-13.4497	 5.6408	-7.8094	-14.9657	 6.0255	-8.9397	46.7115	99.9880	
   794	-11.7549	 4.8485	-6.9064	-13.4937	 5.7601	-7.7341	-15.0474	 6.1452	-8.9018	46.2319	99.9878	
   795	-11.8159	 4.9381	-6.8778	-13.5838	 5.8633	-7.7210	-15.1210	 6.2166	-8.9039	46.1473	99.9872	
   796	-11.9378	 5.0044	-6.9333	-13.7223	 5.9123	-7.8106	-15.3279	 6.2898	-9.0378	45.7736	99.9881	
   797	-12.0684	 5.0513	-7.0171	-13.9010	 5.9365	-7.9650	-15.4504	 6.2876	-9.1624	45.8079	99.9866	
   798	-12.0819	 5.0712	-7.0107	-13.8860	 5.9701	-7.9164	-15.4586	 6.3359	-9.1223	45.7225	99.9873	
   799	-12.1448	 5.1314	-7.0134	-13.9910	 6.0396	-7.9519	-15.5894	 6.3821	-9.2068	45.4944	99.9873	
   800	-12.2754	 5.1782	-7.0971	-14.1378	 6.0591	-8.0793	-15.8508	 6.4745	-9.3759	44.8925	99.9887	
   801	-12.4060	 5.2251	-7.1809	-14.3015	 6.1169	-8.1851	-15.9406	 6.4608	-9.4794	45.0465	99.9873	
   802	-12.5133	 5.2862	-7.2272	-14.4443	 6.1998	-8.2450	-16.0795	 6.5553	-9.5238	44.7536	99.9869	
   803	-12.5212	 5.3944	-7.1267	-14.4506	 6.3058	-8.1453	-16.0632	 6.6404	-9.4225	44.8060	99.9866	
   804	-12.5058	 5.5170	-6.9889	-14.4123	 6.4026	-8.0103	-16.1532	 6.8084	-9.3444	44.3230	99.9887	
   805	-12.4963	 5.6642	-6.8321	-14.4563	 6.5219	-7.9349	-16.1614	 6.8567	-9.3043	44.4522	99.9876	
   806	-12.4009	 5.9915	-6.4094	-14.4526	 6.8904	-7.5627	-16.2423	 7.2656	-8.9763	43.5943	99.9878	
   807	-12.1402	 6.3498	-5.7904	-14.3643	 7.2744	-7.0904	-16.1210	 7.5236	-8.5970	43.4270	99.9852	
   808	-11.9848	 6.5727	-5.4120	-14.2319	 7.5390	-6.6934	-15.9453	 7.7624	-8.1825	43.4069	99.9842	
   809	-11.9035	 6.5662	-5.3373	-14.1036	 7.5326	-6.5715	-15.8339	 7.6720	-8.1616	43.7792	99.9847	
   810	-12.1790	 6.4391	-5.7399	-14.3847	 7.3594	-7.0257	-16.1619	 7.5835	-8.5780	43.4141	99.9857	
   811	-12.2390	 6.5434	-5.6956	-14.5633	 7.3836	-7.1802	-16.3558	 7.5044	-8.8510	43.4223	99.9844	
   812	-12.5336	 6.2349	-6.2987	-15.0462	 6.6590	-8.3877	-16.9643	 6.6409	-10.3231	44.0558	99.9831	
   813	-13.5257	 5.3555	-8.1702	-16.0830	 5.6175	-10.4660	-17.8739	 5.6737	-12.1998	44.4170	99.9762	
   814	-14.7498	 4.4465	-10.3034	-17.3074	 4.7656	-12.5423	-19.0767	 5.0996	-13.9768	43.2255	99.9698	
   815	-16.0653	 4.0748	-11.9906	-18.4902	 4.4763	-14.0143	-20.0911	 4.9754	-15.1152	42.6722	99.9645	
   816	-16.0839	 4.2471	-11.8368	-18.2510	 4.9044	-13.3472	-19.6837	 5.4559	-14.2274	42.9343	99.9712	
   817	-15.1443	 4.4298	-10.7145	-17.2582	 4.8325	-12.4261	-18.8777	 5.1712	-13.7061	44.4326	99.9788	
   818	-15.0581	 4.2708	-10.7872	-17.1984	 4.7595	-12.4394	-18.7886	 5.1737	-13.6144	44.1563	99.9770	
   819	-14.9092	 4.2777	-10.6315	-17.0610	 4.7953	-12.2662	-18.7254	 5.2990	-13.4260	43.6805	99.9774	
   820	-14.8406	 4.3058	-10.5348	-16.9571	 4.8105	-12.1471	-18.6124	 5.3272	-13.2848	43.8401	99.9774	
   821	-14.7071	 4.3031	-10.4040	-16.8733	 4.8133	-12.0605	-18.4412	 5.3065	-13.1344	44.0995	99.9738	
   822	-14.1669	 4.5085	-9.6583	-16.4544	 5.1324	-11.3225	-17.9111	 5.8855	-12.0252	43.2920	99.9597	
   823	-13.4064	 5.0191	-8.3874	-15.3856	 5.6565	-9.7295	-16.2368	 6.2533	-9.9832	46.3952	99.9508	
   824	-12.4280	 4.9995	-7.4285	-14.2785	 5.7649	-8.5141	-15.4260	 6.3244	-9.1012	46.3807	99.9714	
   825	-12.7375	 5.1482	-7.5893	-14.7381	 5.8235	-8.9151	-16.0549	 6.4104	-9.6441	45.3860	99.9704	
   826	-12.6390	 5.2936	-7.3454	-14.8597	 5.8340	-9.0262	-16.3076	 6.1874	-10.1197	45.4092	99.9721	
   827	-12.5111	 4.9766	-7.5345	-14.8693	 5.4742	-9.3957	-16.3682	 5.8285	-10.5393	45.3072	99.9689	
   828	-12.2500	 4.8829	-7.3670	-14.4999	 5.3112	-9.1892	-16.0706	 5.5985	-10.4717	46.0411	99.9746	
   829	-11.9913	 4.4061	-7.5852	-14.0653	 4.7489	-9.3169	-15.6363	 4.9625	-10.6733	47.4855	99.9789	
   830	-11.9687	 3.9536	-8.0150	-13.6885	 4.3952	-9.2938	-15.1617	 4.7154	-10.4459	48.4400	99.9834	
   831	-11.6565	 4.0751	-7.5814	-13.1983	 4.7216	-8.4773	-14.5523	 5.2267	-9.3252	48.2524	99.9835	
   832	-10.5911	 5.1692	-5.4219	-12.2133	 6.1706	-6.0432	-13.5805	 6.6714	-6.9087	47.0400	99.9858	
   833	-10.2113	 5.3041	-4.9072	-11.9287	 6.2971	-5.6321	-13.3542	 6.6425	-6.7112	47.2466	99.9860	
   834	-10.6499	 4.9492	-5.7006	-12.2926	 5.8288	-6.4643	-13.8057	 6.1663	-7.6390	47.4847	99.9881	
   835	-11.1020	 4.6143	-6.4877	-12.6269	 5.5252	-7.1021	-14.1107	 5.8143	-8.2960	47.8348	99.9888	
   836	-11.4875	 4.2781	-7.2094	-13.0400	 4.9900	-8.0505	-14.7309	 5.1252	-9.6053	48.1694	99.9903	
   837	-12.3417	 3.8088	-8.5330	-14.1529	 4.3776	-9.7757	-16.1005	 4.5532	-11.5469	46.8049	99.9918	
   838	-13.9355	 4.1845	-9.7509	-15.8739	 5.0506	-10.8238	-17.4257	 5.6345	-11.7908	44.1918	99.9829	
   839	-14.2973	 4.4423	-9.8550	-15.8234	 5.2404	-10.5836	-16.9525	 5.8249	-11.1272	46.2319	99.9795	
   840	-14.1873	 4.6514	-9.5359	-15.6579	 5.6230	-10.0354	-16.7324	 6.3375	-10.3944	45.6440	99.9794	
   841	-13.6759	 4.7542	-8.9217	-15.2053	 5.6577	-9.5481	-16.1828	 6.3193	-9.8631	46.3458	99.9749	
   842	-12.4468	 4.4791	-7.9677	-14.1351	 5.2796	-8.8560	-15.1040	 5.8530	-9.2506	47.4685	99.9701	
   843	-11.6112	 4.2020	-7.4092	-13.2825	 4.8162	-8.4668	-14.2019	 5.3186	-8.8829	49.0747	99.9661	
   844	-11.1582	 3.7458	-7.4124	-12.6253	 4.1104	-8.5154	-13.3955	 4.4887	-8.9063	51.5940	99.9640	
   845	-10.7925	 3.4339	-7.3586	-12.2755	 3.8376	-8.4384	-13.1778	 4.1337	-9.0437	51.7969	99.9716	
   846	-11.2121	 3.4865	-7.7257	-12.7094	 4.2050	-8.5049	-13.8238	 4.7649	-9.0584	49.3128	99.9778	
   847	-11.3732	 3.0622	-8.3110	-13.0691	 3.4952	-9.5744	-14.1451	 4.0497	-10.0950	49.9006	99.9643	
   848	-10.3562	 3.1795	-7.1767	-12.1356	 3.6065	-8.5295	-13.1732	 3.9334	-9.2394	51.0260	99.9673	
   849	-10.1616	 2.9741	-7.1875	-11.8099	 3.2579	-8.5525	-12.9034	 3.6110	-9.2920	51.8144	99.9688	
   850	-9.4367	 3.1660	-6.2706	-11.1801	 3.4506	-7.7300	-12.2535	 3.6879	-8.5652	52.2846	99.9686	
   851	-9.1624	 2.4727	-6.6897	-11.1935	 2.7222	-8.4717	-13.0169	 3.3900	-9.6266	49.1720	99.9721	
   852	-11.7831	 3.0360	-8.7471	-13.0869	 4.0335	-9.0540	-13.5841	 4.6803	-8.9035	50.2544	99.9664	
   853	-10.7203	 2.8281	-7.8922	-11.1395	 3.5854	-7.5545	-11.6655	 4.1216	-7.5435	53.9805	99.9855	
   854	-10.4591	 2.6214	-7.8377	-11.4599	 3.4002	-8.0602	-12.4308	 4.0684	-8.3620	51.4722	99.9832	
   855	-11.0766	 3.2872	-7.7893	-11.9822	 4.1038	-7.8789	-12.6170	 4.6678	-7.9488	51.8592	99.9792	
   856	-10.2805	 2.9716	-7.3089	-11.4095	 3.5900	-7.8200	-12.4682	 4.0021	-8.4656	51.9815	99.9849	
   857	-10.4376	 2.3802	-8.0573	-11.6090	 2.8690	-8.7404	-12.3764	 3.3113	-9.0648	53.1623	99.9731	
   858	-9.0218	 2.1210	-6.9008	-10.2601	 2.4184	-7.8422	-11.1317	 2.8317	-8.2995	54.4200	99.9707	
   859	-8.4424	 1.7852	-6.6572	-9.8648	 2.0517	-7.8136	-10.7721	 2.5230	-8.2486	54.4099	99.9633	
   860	-7.9281	 1.9321	-5.9960	-9.1910	 2.1250	-7.0665	-10.0445	 2.4136	-7.6305	55.8447	99.9702	
   861	-7.6273	 1.7640	-5.8633	-9.0228	 1.7282	-7.2950	-9.9947	 1.8567	-8.1376	56.7036	99.9697	
   862	-8.2948	 1.1975	-7.0973	-9.6621	 1.3832	-8.2794	-10.6435	 1.7056	-8.9375	55.5334	99.9705	
   863	-8.6378	 0.9440	-7.6938	-9.9141	 1.0571	-8.8576	-10.9302	 1.4720	-9.4578	55.5812	99.9695	
   864	-8.2926	 0.8879	-7.4046	-9.5600	 0.9579	-8.6026	-10.5272	 1.3296	-9.1972	56.2143	99.9681	
   865	-7.6059	 0.7170	-6.8890	-8.9258	 0.6041	-8.3222	-10.0267	 0.9598	-9.0665	56.9040	99.9663	
   866	-7.0789	 0.6033	-6.4756	-8.4033	 0.3157	-8.0881	-9.6294	 0.6321	-8.9969	57.6418	99.9667	
   867	-6.8197	 0.4802	-6.3395	-8.1008	 0.1115	-7.9898	-9.3211	 0.3018	-9.0190	58.6234	99.9701	
   868	-6.8127	 0.2442	-6.5685	-7.9758	-0.1533	-8.1295	-9.2155	 0.0260	-9.1890	59.1461	99.9738	
   869	-6.8184	 0.1559	-6.6625	-7.8231	-0.1813	-8.0048	-8.9887	-0.0881	-9.0765	59.8038	99.9798	
   870	-6.7332	 0.0952	-6.6380	-7.6720	-0.2346	-7.9071	-8.7600	-0.1690	-8.9286	60.2731	99.9799	
   871	-6.5244	 0.1107	-6.4137	-7.4992	-0.2503	-7.7500	-8.7455	-0.0208	-8.7659	59.5498	99.9782	
   872	-6.3235	 0.3474	-5.9761	-7.4526	 0.0836	-7.3695	-8.6419	 0.3116	-8.3300	58.9851	99.9749	
   873	-6.4898	 0.3016	-6.1882	-7.8209	 0.1618	-7.6596	-8.9813	 0.4939	-8.4870	57.8494	99.9678	
   874	-6.9025	 0.1182	-6.7842	-8.1678	-0.1373	-8.3056	-9.2536	 0.1303	-9.1229	58.6027	99.9660	
   875	-7.6436	-0.3239	-7.9675	-8.9048	-0.6035	-9.5088	-9.8403	-0.2811	-10.1210	58.7538	99.9567	
   876	-7.2957	-0.1097	-7.4055	-8.2266	-0.3566	-8.5836	-8.9998	 0.0974	-8.9020	59.3884	99.9563	
   877	-6.5600	-0.0950	-6.6549	-7.6484	-0.2689	-7.9178	-8.7129	 0.1493	-8.5632	58.6986	99.9671	
   878	-7.0036	-0.2974	-7.3009	-8.2120	-0.4331	-8.6456	-9.2737	 0.0750	-9.1983	57.9475	99.9606	
   879	-7.4173	-0.3825	-7.7998	-8.5037	-0.4663	-8.9704	-9.4151	-0.0567	-9.4714	58.5185	99.9648	
   880	-7.7257	-0.4451	-8.1708	-8.6887	-0.5436	-9.2328	-9.4403	-0.1046	-9.5445	58.9693	99.9606	
   881	-7.1301	-0.4177	-7.5478	-8.1310	-0.5785	-8.7100	-9.0248	-0.1322	-9.1565	59.0552	99.9625	
   882	-6.5133	-0.4054	-6.9187	-7.5683	-0.6346	-8.2034	-8.4857	-0.2318	-8.7171	59.5587	99.9609	
   883	-6.3796	-0.6341	-7.0137	-7.5791	-0.9097	-8.4893	-8.6448	-0.4708	-9.1151	59.1904	99.9586	
   884	-6.4579	-0.6964	-7.1543	-7.6149	-0.9684	-8.5838	-8.6212	-0.5415	-9.1624	59.4417	99.9583	
   885	-6.5961	-0.7674	-7.3634	-7.7231	-0.9496	-8.6733	-8.7210	-0.4438	-9.1645	58.9922	99.9587	
   886	-6.9818	-0.7646	-7.7464	-7.9246	-0.8785	-8.8036	-8.7537	-0.4323	-9.1856	59.5187	99.9633	
   887	-7.0823	-0.8264	-7.9088	-7.9478	-0.9416	-8.8900	-8.7846	-0.4838	-9.2680	59.6272	99.9656	
   888	-6.9885	-0.8676	-7.8561	-7.8763	-1.0318	-8.9085	-8.7406	-0.5845	-9.3247	59.7796	99.9647	
   889	-6.9179	-0.9231	-7.8410	-7.8527	-1.0661	-8.9192	-8.6824	-0.6335	-9.3155	59.8131	99.9631	
   890	-7.0753	-1.0624	-8.1378	-7.9771	-1.2037	-9.1813	-8.8739	-0.7645	-9.6380	59.7282	99.9666	
   891	-7.3470	-1.1307	-8.4776	-8.2318	-1.2630	-9.4952	-9.0889	-0.8247	-9.9133	59.7249	99.9661	
   892	-7.4678	-1.1627	-8.6305	-8.2585	-1.2795	-9.5385	-9.0127	-0.8517	-9.8640	60.0916	99.9660	
   893	-6.9892	-1.1084	-8.0976	-7.7272	-1.2207	-8.9484	-8.4097	-0.8150	-9.2243	60.6329	99.9658	
   894	-6.7223	-1.2267	-7.9490	-7.5943	-1.3585	-8.9532	-8.3909	-0.9635	-9.3540	60.4286	99.9657	
   895	-7.0190	-1.3387	-8.3577	-7.8258	-1.5621	-9.3884	-8.6211	-1.1830	-9.8037	60.8137	99.9653	
   896	-7.2565	-1.6828	-8.9393	-8.2939	-1.9482	-10.2426	-9.2340	-1.5682	-10.8018	60.2504	99.9621	
   897	-7.9035	-1.4733	-9.3769	-8.6008	-1.7100	-10.3113	-9.2717	-1.2711	-10.5423	60.7842	99.9610	
   898	-7.1881	-1.4287	-8.6168	-7.7754	-1.5799	-9.3558	-8.4502	-1.3002	-9.7500	61.5874	99.9735	
   899	-6.9465	-1.3647	-8.3112	-7.4259	-1.5477	-8.9741	-8.1082	-1.2564	-9.3642	61.9393	99.9753	
   900	-6.6437	-1.5034	-8.1471	-7.4485	-1.8057	-9.2547	-8.2493	-1.4733	-9.7222	61.5146	99.9647	
   901	-6.2647	-1.4962	-7.7609	-7.1069	-1.9004	-9.0079	-8.0579	-1.6204	-9.6780	61.7913	99.9680	
   902	-6.0423	-1.5007	-7.5430	-6.8803	-1.9805	-8.8613	-7.9210	-1.7483	-9.6689	62.1158	99.9709	
   903	-5.9059	-1.5722	-7.4781	-6.7709	-2.0840	-8.8555	-7.8665	-1.9492	-9.8152	62.4733	99.9748	
   904	-5.9744	-1.7133	-7.6877	-6.9037	-2.2512	-9.1554	-8.0273	-2.1251	-10.1520	62.4563	99.9735	
   905	-6.3864	-1.6560	-8.0423	-7.4691	-2.1358	-9.6054	-8.6410	-1.8799	-10.5205	61.1616	99.9675	
   906	-6.8748	-1.5185	-8.3932	-8.0231	-1.9400	-9.9637	-9.1118	-1.6625	-10.7738	60.5713	99.9634	
   907	-7.0053	-1.4716	-8.4769	-8.0593	-1.9013	-9.9611	-8.9641	-1.6125	-10.5762	61.0603	99.9580	
   908	-6.6378	-1.6411	-8.2789	-7.7056	-2.1106	-9.8167	-8.6676	-1.7683	-10.4355	61.1971	99.9555	
   909	-6.3804	-1.7936	-8.1741	-7.5357	-2.2744	-9.8106	-8.5041	-2.0077	-10.5114	61.5229	99.9559	
   910	-6.6220	-1.9706	-8.5926	-7.8475	-2.5275	-10.3756	-8.9371	-2.2691	-11.2058	61.3701	99.9560	
   911	-6.9535	-2.0475	-9.0010	-8.1892	-2.6404	-10.8301	-9.3147	-2.4422	-11.7565	61.4441	99.9590	
   912	-7.1198	-2.0933	-9.2131	-8.3349	-2.7057	-11.0410	-9.4208	-2.5410	-11.9614	61.6857	99.9589	
   913	-7.2338	-2.1353	-9.3691	-8.3951	-2.7428	-11.1384	-9.4891	-2.6588	-12.1475	61.9958	99.9651	
   914	-7.0908	-2.1037	-9.1945	-8.1034	-2.7096	-10.8135	-9.0791	-2.5936	-11.6723	62.5237	99.9637	
   915	-6.3146	-1.9227	-8.2373	-7.3481	-2.4640	-9.8126	-8.2852	-2.1589	-10.4437	62.0546	99.9544	
   916	-5.8680	-1.7891	-7.6571	-6.8277	-2.1678	-8.9959	-7.6256	-1.8299	-9.4551	62.0451	99.9558	
   917	-6.2071	-2.0968	-8.3039	-7.3202	-2.5322	-9.8529	-8.5384	-2.1148	-10.6528	60.7880	99.9625	
   918	-7.9863	-1.8353	-9.8216	-8.2750	-1.8510	-10.1265	-8.7427	-1.5374	-10.2797	61.9961	99.9771	
   919	-7.5870	-1.8580	-9.4450	-7.7748	-1.9823	-9.7577	-8.4267	-1.8307	-10.2570	62.8686	99.9861	
   920	-7.5142	-2.1100	-9.6243	-7.7647	-2.2324	-9.9977	-8.3189	-2.0731	-10.3917	63.1348	99.9822	
   921	-7.4927	-2.3512	-9.8439	-7.6968	-2.4835	-10.1808	-8.3497	-2.3064	-10.6557	63.1944	99.9851	
   922	-7.5169	-2.3802	-9.8971	-7.7546	-2.4825	-10.2377	-8.4802	-2.1638	-10.6435	62.4647	99.9835	
   923	-7.6431	-1.8077	-9.4509	-7.9019	-1.8531	-9.7555	-8.6337	-1.5759	-10.2093	61.8741	99.9854	
   924	-8.0851	-1.6417	-9.7268	-8.6386	-1.9042	-10.5433	-9.3817	-1.6182	-10.9995	61.5043	99.9737	
   925	-8.1459	-1.7780	-9.9239	-8.7419	-2.1143	-10.8566	-9.4196	-1.8773	-11.2965	61.9973	99.9698	
   926	-7.5068	-1.7662	-9.2731	-8.0846	-2.0999	-10.1851	-8.9411	-1.8760	-10.8168	62.0301	99.9768	
   927	-7.3104	-1.9421	-9.2525	-8.2556	-2.3639	-10.6200	-9.2979	-2.1644	-11.4619	61.4363	99.9713	
   928	-7.3443	-1.8923	-9.2366	-8.3488	-2.3115	-10.6608	-9.3959	-2.1297	-11.5252	61.2871	99.9705	
   929	-7.3819	-2.0144	-9.3963	-8.4863	-2.5549	-11.0417	-9.6333	-2.3751	-12.0080	61.3091	99.9673	
   930	-7.5201	-2.0853	-9.6054	-8.6142	-2.6459	-11.2606	-9.7925	-2.4324	-12.2245	61.1952	99.9667	
   931	-7.3422	-2.0889	-9.4310	-8.3376	-2.6463	-10.9844	-9.3759	-2.5342	-11.9096	62.1328	99.9688	
   932	-6.9370	-2.1363	-9.0733	-7.8972	-2.7046	-10.6023	-9.0260	-2.6351	-11.6607	62.4460	99.9743	
   933	-6.8490	-2.1528	-9.0018	-7.7339	-2.6650	-10.3994	-8.8681	-2.6000	-11.4678	62.4945	99.9782	
   934	-6.6509	-2.0732	-8.7241	-7.4827	-2.5591	-10.0424	-8.6351	-2.5177	-11.1524	62.6089	99.9813	
   935	-6.3967	-1.9309	-8.3276	-7.3835	-2.4125	-9.7965	-8.5665	-2.3036	-10.8697	62.0156	99.9763	
   936	-7.0801	-2.1678	-9.2479	-8.3052	-2.5410	-10.8467	-9.5282	-2.2022	-11.7300	60.1355	99.9653	
   937	-8.2860	-1.8784	-10.1644	-8.7607	-2.0038	-10.7650	-9.3792	-1.6701	-11.0490	61.4371	99.9738	
   938	-8.1353	-1.7291	-9.8644	-8.4399	-1.9160	-10.3564	-9.1384	-1.5509	-10.6889	61.6883	99.9781	
   939	-8.2271	-1.7715	-9.9986	-8.6461	-1.9210	-10.5677	-9.2871	-1.5267	-10.8134	61.3499	99.9733	
   940	-8.1509	-1.6256	-9.7765	-8.5595	-1.7700	-10.3300	-9.2933	-1.4451	-10.7380	61.3048	99.9790	
   941	-8.3132	-1.7256	-10.0388	-8.8716	-1.9257	-10.7978	-9.6516	-1.5739	-11.2251	60.9619	99.9743	
   942	-8.2621	-1.6234	-9.8855	-8.8023	-1.8464	-10.6492	-9.6019	-1.4893	-11.0908	60.9645	99.9746	
   943	-8.0611	-1.4997	-9.5608	-8.9850	-1.8856	-10.8711	-9.9871	-1.6030	-11.5896	60.4423	99.9686	
   944	-8.1287	-1.6261	-9.7547	-9.2527	-2.0506	-11.3037	-10.2768	-1.7958	-12.0722	60.2130	99.9629	
   945	-8.0019	-1.7318	-9.7337	-9.1036	-2.2395	-11.3436	-10.2145	-1.9597	-12.1738	60.4051	99.9629	
   946	-8.0492	-1.7750	-9.8243	-9.3071	-2.3038	-11.6114	-10.5046	-2.0672	-12.5715	60.0663	99.9625	
   947	-8.0338	-1.7655	-9.7993	-9.2441	-2.3260	-11.5707	-10.4842	-2.0972	-12.5810	60.2042	99.9650	
   948	-8.1923	-1.8066	-9.9989	-9.4756	-2.3221	-11.7982	-10.6856	-2.1168	-12.8021	59.9776	99.9641	
   949	-8.2929	-1.7554	-10.0483	-9.5463	-2.2193	-11.7661	-10.7429	-1.9603	-12.7029	59.6450	99.9641	
   950	-8.2399	-1.6238	-9.8637	-9.4211	-2.0689	-11.4905	-10.5181	-1.8297	-12.3474	59.9684	99.9640	
   951	-8.0851	-1.6417	-9.7268	-9.2527	-2.0506	-11.3037	-10.2973	-1.7658	-12.0627	59.9646	99.9614	
   952	-8.0610	-1.6127	-9.6737	-9.0944	-1.9897	-11.0846	-10.0911	-1.6684	-11.7591	60.1497	99.9635	
   953	-7.9653	-1.6244	-9.5897	-9.0023	-1.9574	-10.9602	-9.9411	-1.6703	-11.6110	60.3031	99.9641	
   954	-7.9730	-1.6292	-9.6022	-9.0023	-1.9574	-10.9602	-9.9737	-1.6588	-11.6321	60.1967	99.9653	
   955	-8.0282	-1.5642	-9.5924	-9.0830	-1.9094	-10.9929	-9.9942	-1.6288	-11.6226	60.3016	99.9622	
   956	-8.0523	-1.5932	-9.6455	-9.0578	-1.9183	-10.9766	-9.9217	-1.6261	-11.5474	60.4242	99.9621	
   957	-8.0001	-1.5893	-9.5894	-8.9070	-1.8743	-10.7818	-9.8016	-1.5720	-11.3732	60.4448	99.9675	
   958	-8.0329	-1.6378	-9.6707	-8.9873	-1.9237	-10.9116	-9.9299	-1.5778	-11.5073	60.1216	99.9660	
   959	-8.2013	-1.4870	-9.6883	-9.0116	-1.6946	-10.7067	-9.9080	-1.3074	-11.2149	59.9659	99.9697	
   960	-8.1908	-1.3251	-9.5159	-8.9796	-1.4918	-10.4719	-9.8523	-1.1227	-10.9746	59.8817	99.9715	
   961	-8.1455	-1.1983	-9.3438	-8.9607	-1.3947	-10.3559	-9.8707	-1.0594	-10.9297	59.8672	99.9724	
   962	-8.0547	-1.1706	-9.2253	-9.0556	-1.5752	-10.6314	-10.0485	-1.3315	-11.3796	60.2265	99.9669	
   963	-7.8310	-1.4993	-9.3303	-8.9594	-1.9920	-10.9519	-9.9073	-1.7560	-11.6630	60.7185	99.9576	
   964	-7.5156	-1.6727	-9.1883	-8.6309	-2.1924	-10.8238	-9.5237	-1.9427	-11.4659	61.2205	99.9536	
   965	-7.0620	-1.8881	-8.9501	-8.0745	-2.3500	-10.4251	-8.8118	-1.9444	-10.7558	61.5306	99.9439	
   966	-6.9004	-2.0289	-8.9293	-7.8353	-2.4346	-10.2704	-8.4837	-2.0376	-10.5209	61.9318	99.9457	
   967	-6.4913	-2.1305	-8.6217	-7.5698	-2.8203	-10.3906	-8.4526	-2.6276	-11.0798	62.9559	99.9496	
   968	-6.6196	-2.3932	-9.0128	-7.7956	-3.2401	-11.0361	-8.8006	-3.2313	-12.0315	63.7147	99.9546	
   969	-6.8902	-2.5598	-9.4499	-8.1597	-3.4033	-11.5635	-9.1874	-3.4636	-12.6506	63.6613	99.9559	
   970	-6.9029	-2.4121	-9.3150	-8.0907	-3.2266	-11.3178	-9.1293	-3.3308	-12.4597	63.7380	99.9626	
   971	-6.5989	-1.8433	-8.4422	-7.6764	-2.5686	-10.2454	-8.8190	-2.7082	-11.5268	63.2959	99.9744	
   972	-6.7827	-1.7021	-8.4848	-7.7069	-2.2334	-9.9408	-8.8298	-2.4262	-11.2556	63.0030	99.9835	
   973	-7.0503	-1.9375	-8.9878	-7.9258	-2.4415	-10.3678	-9.2441	-2.6545	-11.8982	62.6989	99.9898	
   974	-7.7994	-2.1584	-9.9578	-8.7909	-2.4862	-11.2776	-10.4784	-2.5533	-13.0313	60.3277	99.9945	
   975	-9.1686	-1.9836	-11.1523	-10.0925	-2.1041	-12.1972	-11.0724	-1.8893	-12.9613	59.6096	99.9781	
   976	-8.9471	-2.1158	-11.0629	-9.4303	-2.3187	-11.7495	-10.3154	-2.0660	-12.3810	61.1490	99.9827	
   977	-8.8254	-1.9561	-10.7815	-9.2101	-1.9877	-11.1984	-10.0258	-1.6915	-11.7169	60.8016	99.9852	
   978	-8.9332	-1.5559	-10.4891	-9.5213	-1.7156	-11.2374	-10.4843	-1.4557	-11.9396	60.1868	99.9833	
   979	-9.0987	-1.3610	-10.4597	-9.9003	-1.7050	-11.6057	-10.8103	-1.5108	-12.3207	60.3644	99.9740	
   980	-8.7813	-1.6179	-10.3992	-9.5174	-1.8597	-11.3776	-10.3199	-1.5876	-11.9070	60.5603	99.9720	
   981	-8.6969	-1.9193	-10.6162	-9.3047	-2.2657	-11.5709	-10.4761	-1.9638	-12.4395	60.5383	99.9833	
   982	-8.7973	-2.0942	-10.8915	-9.5989	-2.5446	-12.1439	-10.6337	-2.3622	-12.9955	61.1874	99.9754	
   983	-8.8716	-2.2106	-11.0822	-9.8806	-2.5228	-12.4040	-10.7648	-2.2307	-12.9952	60.3311	99.9635	
   984	-8.4909	-1.9480	-10.4389	-9.5208	-2.3256	-11.8469	-10.5918	-2.0364	-12.6278	60.1007	99.9681	
   985	-8.3488	-1.9312	-10.2800	-9.4228	-2.3018	-11.7251	-10.5210	-1.9706	-12.4913	59.8569	99.9661	
   986	-8.1720	-1.8365	-10.0084	-9.3476	-2.2311	-11.5792	-10.4966	-1.9338	-12.4300	59.7251	99.9654	
   987	-8.1246	-1.7932	-9.9178	-9.3677	-2.2435	-11.6116	-10.5537	-1.9591	-12.5124	59.6976	99.9632	
   988	-8.0986	-1.7348	-9.8333	-9.4055	-2.2301	-11.6361	-10.6518	-1.9244	-12.5758	59.4598	99.9608	
   989	-8.0561	-1.6521	-9.7082	-9.4408	-2.1787	-11.6200	-10.7062	-1.9052	-12.6110	59.3989	99.9593	
   990	-8.0310	-1.6084	-9.6394	-9.4585	-2.1530	-11.6120	-10.7511	-1.9120	-12.6628	59.3787	99.9598	
   991	-7.9595	-1.5361	-9.4956	-9.3857	-2.1203	-11.5065	-10.7307	-1.9420	-12.6722	59.5723	99.9636	
   992	-8.0852	-1.5287	-9.6139	-9.5793	-2.1298	-11.7096	-10.9335	-1.9838	-12.9169	59.4699	99.9626	
   993	-8.0891	-1.5875	-9.6766	-9.5188	-2.1901	-11.7094	-10.7960	-1.9189	-12.7145	59.4461	99.9551	
   994	-8.0289	-1.8049	-9.8338	-9.2598	-2.1648	-11.4251	-10.3013	-1.8325	-12.1335	59.6845	99.9586	
   995	-8.5663	-1.9662	-10.5325	-9.5389	-2.2025	-11.7418	-10.5385	-1.7998	-12.3379	59.5682	99.9671	
   996	-8.6972	-1.5803	-10.2775	-9.6757	-1.9206	-11.5967	-10.7152	-1.6863	-12.4011	59.9429	99.9720	
   997	-9.0004	-2.0214	-11.0217	-10.0695	-2.4561	-12.5261	-11.2246	-2.1989	-13.4231	59.8615	99.9697	
   998	-9.5245	-1.9765	-11.5010	-10.2157	-2.1190	-12.3352	-10.8709	-1.8697	-12.7402	60.5944	99.9719	
   999	-8.0767	-2.3150	-10.3917	-8.9372	-3.0768	-12.0144	-10.2604	-3.2718	-13.5318	63.2202	99.9864	
  1000	-7.4265	-1.9005	-9.3270	-8.2525	-2.5207	-10.7737	-9.3748	-2.6083	-11.9827	62.9604	99.9815	
  1001	-6.6312	-1.4251	-8.0563	-7.6312	-2.0525	-9.6843	-8.7296	-2.1494	-10.8786	62.7626	99.9763	
  1002	-6.1318	-0.9339	-7.0657	-7.0981	-1.5532	-8.6518	-8.1015	-1.6050	-9.7061	62.7652	99.9725	
  1003	-5.5135	-0.4401	-5.9537	-6.5178	-1.1225	-7.6408	-7.6247	-1.2626	-8.8869	62.9017	99.9762	
  1004	-5.3665	-0.4627	-5.8293	-6.5520	-1.1558	-7.7083	-7.7421	-1.2722	-9.0139	62.3961	99.9729	
  1005	-5.3493	-0.3108	-5.6600	-6.4764	-0.9750	-7.4518	-7.6326	-1.1179	-8.7501	62.4789	99.9751	
  1006	-5.2960	-0.4052	-5.7012	-6.5697	-1.1301	-7.7003	-7.7924	-1.3680	-9.1599	62.6174	99.9748	
  1007	-5.6379	-0.7570	-6.3950	-7.0911	-1.6465	-8.7381	-8.4242	-1.8827	-10.3065	62.5939	99.9688	
  1008	-6.2456	-1.2018	-7.4475	-7.6591	-1.9843	-9.6439	-8.9826	-2.0090	-10.9911	61.6769	99.9645	
  1009	-6.8757	-1.5332	-8.4089	-8.3842	-2.2601	-10.6448	-9.9232	-2.3862	-12.3090	61.0189	99.9759	
  1010	-8.5816	-2.2017	-10.7833	-10.1842	-2.7465	-12.9311	-11.5605	-2.6024	-14.1625	59.2143	99.9620	
  1011	-9.6086	-1.9011	-11.5098	-10.8207	-2.2232	-13.0443	-11.9299	-1.9043	-13.8338	58.6384	99.9648	
  1012	-9.3634	-1.5523	-10.9157	-10.6989	-2.0261	-12.7256	-11.9521	-1.8113	-13.7630	58.7004	99.9657	
  1013	-9.2476	-1.3679	-10.6154	-10.6193	-1.7818	-12.4016	-11.8145	-1.4682	-13.2823	58.1799	99.9597	
  1014	-9.1772	-1.1973	-10.3745	-10.5669	-1.6641	-12.2315	-11.7734	-1.4316	-13.2046	58.4446	99.9614	
  1015	-8.9739	-1.3832	-10.3571	-10.2674	-1.7115	-11.9794	-11.3361	-1.4669	-12.8026	58.7804	99.9633	
  1016	-9.0637	-1.5091	-10.5728	-10.2089	-1.9073	-12.1167	-11.4684	-1.5394	-13.0074	58.5573	99.9680	
  1017	-8.8105	-1.3815	-10.1920	-10.1514	-1.8109	-11.9628	-11.4224	-1.6067	-13.0287	58.7413	99.9681	
  1018	-8.8134	-1.4257	-10.2391	-10.2341	-1.8984	-12.1330	-11.5272	-1.6833	-13.2100	58.6373	99.9644	
  1019	-8.8020	-1.2490	-10.0510	-10.3076	-1.7362	-12.0443	-11.6865	-1.5588	-13.2449	58.2706	99.9663	
  1020	-8.9229	-1.1680	-10.0909	-10.4233	-1.7343	-12.1581	-11.8335	-1.5977	-13.4308	58.4538	99.9668	
  1021	-8.8407	-1.1598	-10.0005	-10.3127	-1.7150	-12.0282	-11.6796	-1.6294	-13.3086	58.7946	99.9685	
  1022	-8.7750	-1.1759	-9.9508	-10.2321	-1.7629	-11.9955	-11.6252	-1.6486	-13.2734	58.8306	99.9677	
  1023	-8.6638	-1.1781	-9.8419	-10.0912	-1.7738	-11.8654	-11.4523	-1.7324	-13.1843	59.3059	99.9701	
  1024	-8.4220	-1.2271	-9.6491	-9.8570	-1.8370	-11.6946	-11.2453	-1.8055	-13.0505	59.4856	99.9707	
  1025	-8.2393	-1.1571	-9.3964	-9.5906	-1.7949	-11.3860	-10.9567	-1.8167	-12.7730	60.0468	99.9735	
  1026	-8.0296	-1.1269	-9.1564	-9.3753	-1.7477	-11.1235	-10.8340	-1.7181	-12.5517	59.7278	99.9755	
  1027	-7.9928	-1.1325	-9.1253	-9.4043	-1.5948	-10.9996	-10.6477	-1.3979	-12.0453	59.0660	99.9636	
  1028	-8.0064	-1.1126	-9.1190	-9.3940	-1.4297	-10.8242	-10.6234	-1.1795	-11.8025	58.5098	99.9666	
  1029	-8.4037	-1.1735	-9.5771	-9.6538	-1.4677	-11.1220	-10.7468	-1.2891	-12.0356	59.1014	99.9693	
  1030	-8.8029	-1.2637	-10.0667	-10.0048	-1.5253	-11.5307	-11.0954	-1.1660	-12.2610	58.3893	99.9645	
  1031	-8.8225	-0.9931	-9.8156	-10.0956	-1.2273	-11.3234	-11.1619	-0.8870	-12.0486	58.0414	99.9630	
  1032	-8.8235	-1.0078	-9.8313	-10.0929	-1.2866	-11.3800	-11.1486	-0.9428	-12.0910	58.2110	99.9609	
  1033	-8.8370	-0.9879	-9.8249	-9.9874	-1.2460	-11.2339	-11.0554	-0.8736	-11.9286	58.2819	99.9650	
  1034	-8.8864	-0.9476	-9.8340	-10.1133	-1.2015	-11.3153	-11.1824	-0.8571	-12.0391	58.1174	99.9639	
  1035	-8.8236	-0.8948	-9.7184	-10.0613	-1.1939	-11.2558	-11.1535	-0.8389	-11.9920	58.1436	99.9623	
  1036	-8.7607	-0.9550	-9.7157	-10.0503	-1.2238	-11.2746	-11.1401	-0.8947	-12.0345	58.0979	99.9627	
  1037	-8.8225	-0.9931	-9.8156	-10.0578	-1.2406	-11.2989	-11.1606	-0.8648	-12.0250	57.9762	99.9638	
  1038	-8.8912	-0.9082	-9.7995	-10.0625	-1.1092	-11.1722	-11.0954	-0.7062	-11.8012	57.9553	99.9635	
  1039	-8.7617	-0.8568	-9.6185	-9.9428	-1.0477	-10.9910	-10.9055	-0.6938	-11.5989	58.2507	99.9628	
  1040	-8.7859	-0.8858	-9.6716	-9.8999	-1.0823	-10.9827	-10.8933	-0.6754	-11.5683	58.1967	99.9638	
  1041	-8.8004	-0.8806	-9.6809	-9.8724	-1.0531	-10.9260	-10.8606	-0.6870	-11.5471	58.3425	99.9675	
  1042	-8.8477	-0.9238	-9.7715	-9.8763	-1.1166	-10.9934	-10.8401	-0.7169	-11.5566	58.4599	99.9658	
  1043	-8.7994	-0.8658	-9.6653	-9.8901	-1.0274	-10.9180	-10.8861	-0.6496	-11.5353	58.2030	99.9671	
  1044	-8.7762	-0.8516	-9.6278	-9.9176	-1.0566	-10.9747	-10.8861	-0.6496	-11.5353	58.1967	99.9615	
  1045	-8.6825	-0.7797	-9.4623	-9.8644	-0.9262	-10.7911	-10.8331	-0.5093	-11.3421	57.8982	99.9618	
  1046	-8.7134	-0.7988	-9.5122	-9.8861	-0.9639	-10.8505	-10.8270	-0.5910	-11.4176	58.1686	99.9622	
  1047	-8.7743	-0.8221	-9.5964	-9.8684	-0.9896	-10.8585	-10.8270	-0.5910	-11.4176	58.2178	99.9644	
  1048	-8.7888	-0.8169	-9.6058	-9.8408	-0.9605	-10.8018	-10.8076	-0.5467	-11.3539	58.1640	99.9663	
  1049	-8.7840	-0.8563	-9.6403	-9.8180	-1.0074	-10.8260	-10.7616	-0.6141	-11.3753	58.3735	99.9665	
  1050	-8.7327	-0.8672	-9.5999	-9.7350	-1.0173	-10.7528	-10.6891	-0.6113	-11.3000	58.4179	99.9674	
  1051	-8.7714	-0.8910	-9.6623	-9.8094	-1.0754	-10.8853	-10.7952	-0.7101	-11.5049	58.4881	99.9681	
  1052	-8.8535	-0.8991	-9.7527	-9.9251	-1.0734	-10.9990	-10.8728	-0.7054	-11.5778	58.4174	99.9658	
  1053	-8.8903	-0.8935	-9.7838	-10.0132	-1.0423	-11.0560	-11.0035	-0.6592	-11.6623	58.0548	99.9661	
  1054	-9.0034	-0.9207	-9.9241	-10.1270	-1.1124	-11.2399	-11.2005	-0.6974	-11.8975	57.8495	99.9666	
  1055	-9.0895	-0.8748	-9.9643	-10.2565	-1.0212	-11.2782	-11.3203	-0.6551	-11.9750	57.6977	99.9684	
  1056	-9.0355	-0.7285	-9.7639	-10.2954	-0.9231	-11.2190	-11.4317	-0.5647	-11.9959	57.4084	99.9670	
  1057	-9.1187	-0.6383	-9.7571	-10.4681	-0.9075	-11.3761	-11.6484	-0.5619	-12.2099	57.2460	99.9639	
  1058	-9.3063	-0.6690	-9.9753	-10.6633	-0.9423	-11.6062	-11.7947	-0.5897	-12.3840	57.2436	99.9612	
  1059	-9.3023	-0.7231	-10.0255	-10.5867	-1.0538	-11.6409	-11.6895	-0.7801	-12.4692	57.9445	99.9639	
  1060	-8.9260	-0.9861	-9.9121	-10.1169	-1.3624	-11.4799	-11.0964	-1.0918	-12.1879	59.0158	99.9602	
  1061	-8.3100	-1.1016	-9.4116	-9.5691	-1.4522	-11.0218	-10.4673	-1.0814	-11.5482	59.1034	99.9496	
  1062	-7.5598	-0.9790	-8.5389	-8.7632	-1.5293	-10.2930	-9.5861	-1.3189	-10.9046	60.8473	99.9478	
  1063	-6.3413	-0.2713	-6.6126	-7.6546	-0.8830	-8.5381	-8.6200	-0.7974	-9.4170	61.0264	99.9540	
  1064	-5.6313	 0.3778	-5.2535	-6.9647	-0.1407	-7.1059	-8.0702	-0.2594	-8.3292	60.9311	99.9708	
  1065	-5.7455	 0.4489	-5.2966	-6.9851	-0.0556	-7.0413	-8.2536	-0.2571	-8.5102	60.8750	99.9812	
  1066	-6.1987	 0.2123	-5.9864	-7.3352	-0.4055	-7.7412	-8.7080	-0.5960	-9.3036	61.1164	99.9841	
  1067	-6.7330	-0.1308	-6.8638	-7.9568	-0.7763	-8.7336	-9.3253	-0.9626	-10.2875	60.9647	99.9815	
  1068	-7.2432	-0.4449	-7.6881	-8.4430	-1.0391	-9.4826	-9.7930	-1.2458	-11.0384	60.9102	99.9832	
  1069	-7.6172	-0.6045	-8.2217	-8.7319	-1.1317	-9.8641	-10.0679	-1.3758	-11.4432	60.9455	99.9865	
  1070	-7.8772	-0.7221	-8.5993	-8.9212	-1.1751	-10.0968	-10.2904	-1.3766	-11.6666	60.5984	99.9888	
  1071	-7.9150	-0.6182	-8.5332	-8.8373	-0.9647	-9.8025	-10.0909	-1.1122	-11.2027	60.5216	99.9888	
  1072	-7.5865	-0.3594	-7.9459	-8.4802	-0.7081	-9.1888	-9.7368	-0.8683	-10.6047	60.6159	99.9894	
  1073	-7.5285	-0.3802	-7.9087	-8.4389	-0.7681	-9.2075	-9.8850	-1.1111	-10.9957	60.9054	99.9929	
  1074	-8.1796	-0.9224	-9.1021	-9.4975	-1.3348	-10.8327	-11.4219	-1.4139	-12.8354	58.1250	99.9940	
  1075	-9.7461	-0.6995	-10.4457	-10.9781	-0.8311	-11.8097	-12.2752	-0.6242	-12.8991	56.9153	99.9806	
  1076	-9.7035	-0.8429	-10.5463	-10.4292	-1.0056	-11.4353	-11.5043	-0.8455	-12.3494	58.9747	99.9860	
  1077	-9.6309	-0.8689	-10.4998	-10.3824	-0.9767	-11.3596	-11.4911	-0.7196	-12.2103	58.4374	99.9851	
  1078	-9.9031	-0.3721	-10.2752	-10.9363	-0.5734	-11.5102	-12.0165	-0.3013	-12.3174	57.5662	99.9751	
  1079	-9.4884	-0.2723	-9.7607	-10.5254	-0.5888	-11.1148	-11.5808	-0.4552	-12.0356	58.5653	99.9756	
  1080	-9.5140	-0.7828	-10.2968	-10.6469	-1.0909	-11.7383	-11.6969	-0.9024	-12.5988	58.5305	99.9709	
  1081	-9.5923	-0.8451	-10.4374	-10.7702	-1.3133	-12.0840	-12.1173	-1.0490	-13.1659	57.9960	99.9727	
  1082	-9.6450	-0.2839	-9.9289	-11.2677	-0.7288	-11.9970	-12.6979	-0.6225	-13.3200	56.6907	99.9694	
  1083	-8.9991	-0.3951	-9.3941	-10.4391	-1.0605	-11.5001	-11.9635	-1.0806	-13.0438	58.4959	99.9762	
  1084	-9.1100	-0.6189	-9.7289	-10.7202	-1.2336	-11.9543	-12.2170	-1.1330	-13.3496	57.7100	99.9668	
  1085	-9.0163	-0.5470	-9.5634	-10.5981	-1.1340	-11.7327	-12.0751	-1.0866	-13.1613	57.9100	99.9701	
  1086	-9.0009	-0.5375	-9.5384	-10.5588	-1.1220	-11.6813	-12.0098	-1.1097	-13.1191	58.1363	99.9713	
  1087	-9.0105	-0.5717	-9.5822	-10.5552	-1.1687	-11.7244	-11.9965	-1.1655	-13.1616	58.2810	99.9713	
  1088	-8.9196	-0.5441	-9.4637	-10.4053	-1.1373	-11.5431	-11.8110	-1.1345	-12.9451	58.5301	99.9718	
  1089	-8.6577	-0.5100	-9.1676	-10.0877	-1.1003	-11.1885	-11.4769	-1.1277	-12.6042	58.9206	99.9739	
  1090	-8.3744	-0.4911	-8.8655	-9.7917	-1.1011	-10.8933	-11.2274	-1.1420	-12.3691	59.1039	99.9758	
  1091	-8.2622	-0.4786	-8.7408	-9.6771	-1.0183	-10.6959	-11.0566	-1.0775	-12.1337	59.1329	99.9763	
  1092	-8.2641	-0.5080	-8.7722	-9.6846	-1.0351	-10.7202	-11.0882	-1.1401	-12.2280	59.1909	99.9787	
  1093	-8.4246	-0.5785	-9.0031	-9.8763	-1.1166	-10.9934	-11.3788	-1.1623	-12.5408	58.6888	99.9791	
  1094	-8.8075	-0.5316	-9.3391	-10.4150	-0.9846	-11.4002	-12.0348	-0.8795	-12.9139	57.0106	99.9763	
  1095	-9.5620	-0.1480	-9.7100	-11.2357	-0.5260	-11.7622	-12.6045	-0.2752	-12.8793	56.0019	99.9613	
  1096	-9.6556	-0.3328	-9.9884	-11.1229	-0.6762	-11.7995	-12.1324	-0.4704	-12.6024	57.4765	99.9562	
  1097	-10.2518	-0.7140	-10.9658	-11.4249	-1.0820	-12.5074	-12.4572	-0.7814	-13.2381	57.8235	99.9625	
  1098	-10.1301	-0.5543	-10.6844	-11.2918	-0.8046	-12.0969	-12.2522	-0.4280	-12.6798	57.3760	99.9607	
  1099	-9.2382	-0.0758	-9.3140	-10.4706	-0.4330	-10.9042	-11.6401	-0.3321	-11.9718	58.0782	99.9741	
  1100	-8.9786	-0.5380	-9.5166	-10.3509	-1.0916	-11.4431	-11.6753	-1.0065	-12.6814	58.5618	99.9702	
  1101	-8.7300	-0.7100	-9.4400	-10.2656	-1.2710	-11.5371	-11.7688	-1.1721	-12.9405	58.0145	99.9711	
  1102	-8.8761	-0.5597	-9.4358	-10.4328	-1.1665	-11.5998	-11.9553	-1.1290	-13.0839	58.0526	99.9723	
  1103	-9.0018	-0.5522	-9.5541	-10.5100	-1.1652	-11.6757	-12.0547	-1.1165	-13.1708	58.0164	99.9740	
  1104	-9.1362	-0.5643	-9.7005	-10.6434	-1.1375	-11.7814	-12.1623	-1.0558	-13.2177	57.7747	99.9730	
  1105	-9.1575	-0.5491	-9.7066	-10.6611	-1.1118	-11.7734	-12.1500	-1.0375	-13.1871	57.8202	99.9727	
  1106	-9.1565	-0.5344	-9.6909	-10.6595	-1.0864	-11.7464	-12.1296	-1.0674	-13.1966	57.9985	99.9744	
  1107	-9.3024	-0.6101	-9.9126	-10.9075	-1.1415	-12.0495	-12.4580	-1.0706	-13.5281	57.2934	99.9731	
  1108	-9.7455	-0.3458	-10.0913	-11.3307	-0.7066	-12.0377	-12.6940	-0.3741	-13.0677	55.9590	99.9611	
  1109	-9.9224	-0.4405	-10.3629	-10.9031	-0.4554	-11.3590	-11.6155	-0.0172	-11.6323	57.5054	99.9622	
  1110	-8.6196	 0.0789	-8.5407	-9.3563	-0.0029	-9.3596	-10.4516	 0.3720	-10.0793	57.9604	99.9823	
  1111	-8.7799	-0.1047	-8.8845	-9.9393	-0.3742	-10.3140	-11.1693	-0.0897	-11.2586	57.5685	99.9741	
  1112	-9.4032	-0.4460	-9.8491	-10.2846	-0.6480	-10.9331	-11.3896	-0.4206	-11.8098	58.3479	99.9810	
  1113	-9.7653	-0.8809	-10.6462	-10.9791	-1.2589	-12.2386	-12.1416	-0.9894	-13.1305	57.9701	99.9673	
  1114	-9.7074	-0.7887	-10.4961	-10.9720	-1.1447	-12.1172	-12.0892	-0.8603	-12.9491	57.8075	99.9639	
  1115	-9.9954	-0.8812	-10.8767	-11.2853	-1.2156	-12.5014	-12.4441	-0.9335	-13.3773	57.4856	99.9658	
  1116	-10.1898	-0.7889	-10.9788	-11.2136	-1.0982	-12.3123	-12.3615	-0.7640	-13.1252	57.7106	99.9724	
  1117	-9.9263	-0.3864	-10.3127	-11.0206	-0.6864	-11.7074	-12.1253	-0.4445	-12.5694	57.7593	99.9725	
  1118	-8.9653	-0.3319	-9.2972	-10.2347	-0.7759	-11.0111	-11.5164	-0.5858	-12.1018	58.0803	99.9711	
  1119	-8.4619	-0.9266	-9.3886	-9.9029	-1.4381	-11.3414	-11.3246	-1.2780	-12.6022	58.4126	99.9699	
  1120	-8.9470	-1.1970	-10.1440	-10.2477	-1.6017	-11.8499	-11.5621	-1.3417	-12.9034	58.2574	99.9697	
  1121	-8.7452	-0.9455	-9.6907	-10.2264	-1.4665	-11.6934	-11.7242	-1.2617	-12.9855	57.8668	99.9695	
  1122	-8.7175	-0.6316	-9.3491	-10.2617	-1.2075	-11.4697	-11.8764	-1.1114	-12.9874	57.7290	99.9746	
  1123	-8.9526	-0.4795	-9.4321	-10.5111	-1.0805	-11.5921	-12.0749	-0.9902	-13.0647	57.6519	99.9719	
  1124	-9.0551	-0.4578	-9.5129	-10.6496	-1.0315	-11.6816	-12.1960	-0.9701	-13.1657	57.5310	99.9722	
  1125	-9.2253	-0.4495	-9.6748	-10.8535	-0.9984	-11.8524	-12.4030	-0.8970	-13.2996	57.1220	99.9706	
  1126	-9.3114	-0.4036	-9.7149	-10.9290	-0.9717	-11.9012	-12.4694	-0.7997	-13.2687	56.9174	99.9669	
  1127	-9.3385	-0.3637	-9.7022	-10.9971	-0.9282	-11.9258	-12.5103	-0.7399	-13.2497	56.7725	99.9638	
  1128	-9.3385	-0.3637	-9.7022	-11.0525	-0.8892	-11.9422	-12.5429	-0.7283	-13.2709	56.6557	99.9637	
  1129	-9.4081	-0.2935	-9.7017	-11.1155	-0.8669	-11.9829	-12.5903	-0.6832	-13.2731	56.6920	99.9604	
  1130	-9.3878	-0.3234	-9.7112	-11.1080	-0.8501	-11.9586	-12.5889	-0.6610	-13.2495	56.5162	99.9617	
  1131	-9.3646	-0.3092	-9.6738	-11.0686	-0.8381	-11.9072	-12.5478	-0.6244	-13.1718	56.4938	99.9609	
  1132	-9.3201	-0.3100	-9.6302	-11.0486	-0.8257	-11.8748	-12.5151	-0.6360	-13.1507	56.5272	99.9612	
  1133	-9.3482	-0.2849	-9.6331	-11.0738	-0.8168	-11.8910	-12.5478	-0.6244	-13.1718	56.5217	99.9609	
  1134	-9.3327	-0.2754	-9.6081	-11.0663	-0.8000	-11.8667	-12.5478	-0.6244	-13.1718	56.5162	99.9620	
  1135	-9.3337	-0.2901	-9.6238	-11.0561	-0.8425	-11.8991	-12.5440	-0.6542	-13.1978	56.5860	99.9610	
  1136	-9.2911	-0.3205	-9.6116	-11.0234	-0.8346	-11.8585	-12.4896	-0.6734	-13.1626	56.6303	99.9624	
  1137	-9.2235	-0.3071	-9.5305	-10.8975	-0.8791	-11.7770	-12.4024	-0.7042	-13.1062	56.8502	99.9633	
  1138	-9.1886	-0.3422	-9.5308	-10.8562	-0.9391	-11.7958	-12.3942	-0.7525	-13.1463	56.8759	99.9634	
  1139	-9.1596	-0.3526	-9.5122	-10.8385	-0.9648	-11.8038	-12.3687	-0.7899	-13.1582	56.9794	99.9626	
  1140	-9.1025	-0.3881	-9.4906	-10.8007	-0.9781	-11.7793	-12.2624	-0.8729	-13.1349	57.3135	99.9630	
  1141	-9.0745	-0.4132	-9.4877	-10.7578	-1.0127	-11.7711	-12.2696	-0.8987	-13.1679	57.2672	99.9649	
  1142	-9.0686	-0.4379	-9.5065	-10.7401	-1.0385	-11.7791	-12.2165	-0.9402	-13.1562	57.4585	99.9645	
  1143	-9.0097	-0.4440	-9.4536	-10.6319	-1.0572	-11.6897	-12.0966	-0.9825	-13.0788	57.7629	99.9662	
  1144	-8.9680	-0.4890	-9.4571	-10.6016	-1.0874	-11.6895	-12.0762	-1.0124	-13.0882	57.7243	99.9668	
  1145	-9.0067	-0.5128	-9.5195	-10.6217	-1.0998	-11.7220	-12.1160	-1.0268	-13.1424	57.6857	99.9686	
  1146	-9.0367	-0.5172	-9.5538	-10.6394	-1.0740	-11.7140	-12.1089	-1.0009	-13.1094	57.6638	99.9691	
  1147	-9.0221	-0.5224	-9.5445	-10.6142	-1.0829	-11.6977	-12.0833	-1.0383	-13.1212	57.8061	99.9704	
  1148	-9.0598	-0.5314	-9.5913	-10.6595	-1.0864	-11.7464	-12.1160	-1.0268	-13.1424	57.7362	99.9693	
  1149	-9.0753	-0.5410	-9.6163	-10.6595	-1.0864	-11.7464	-12.1378	-1.0191	-13.1565	57.6638	99.9706	
  1150	-9.1565	-0.5344	-9.6909	-10.7224	-1.0642	-11.7871	-12.1827	-1.0259	-13.2082	57.7385	99.9721	
  1151	-9.2049	-0.4794	-9.6843	-10.7452	-1.0172	-11.7629	-12.2287	-0.9586	-13.1869	57.6325	99.9727	
  1152	-9.1943	-0.4305	-9.6248	-10.7555	-0.9747	-11.7306	-12.2491	-0.9286	-13.1774	57.5867	99.9728	
  1153	-9.2437	-0.3902	-9.6339	-10.8042	-0.9315	-11.7362	-12.3240	-0.8795	-13.2031	57.4346	99.9737	
  1154	-9.2651	-0.2620	-9.5271	-10.8030	-0.8087	-11.6121	-12.3905	-0.7822	-13.1723	57.3110	99.9774	
  1155	-9.2304	-0.1841	-9.4144	-10.7538	-0.7417	-11.4960	-12.3626	-0.6899	-13.0521	57.2098	99.9774	
  1156	-9.2902	-0.3057	-9.5959	-10.8872	-0.7140	-11.6017	-12.4410	-0.5146	-12.9552	56.2827	99.9723	
  1157	-9.5870	-0.3047	-9.8917	-11.0170	-0.7330	-11.7506	-12.4750	-0.5253	-12.9999	56.7730	99.9729	
  1158	-9.2631	-0.3456	-9.6086	-10.6731	-0.7897	-11.4633	-12.0404	-0.6050	-12.6451	57.3922	99.9704	
  1159	-9.0665	-0.6345	-9.7010	-10.6056	-1.1509	-11.7570	-12.0555	-0.9460	-13.0011	57.3904	99.9661	
  1160	-9.2830	-0.7677	-10.0507	-10.7815	-1.1860	-11.9681	-12.0299	-0.9834	-13.0129	57.6368	99.9627	
  1161	-8.7263	-0.5381	-9.2644	-10.0636	-1.0245	-11.0886	-11.3131	-0.8109	-12.1236	58.3560	99.9651	
  1162	-7.7416	-0.0026	-7.7441	-9.1964	-0.6367	-9.8336	-10.6371	-0.5786	-11.2153	58.7707	99.9702	
  1163	-7.3262	 0.3380	-6.9882	-8.7933	-0.3640	-9.1577	-10.2534	-0.3054	-10.5585	58.8972	99.9682	
  1164	-6.7175	 0.7975	-5.9200	-8.1892	 0.2400	-7.9497	-9.5715	 0.2086	-9.3625	58.9074	99.9731	
  1165	-6.2789	 1.1523	-5.1266	-7.6916	 0.5832	-7.1089	-9.1613	 0.3702	-8.7907	59.4346	99.9823	
  1166	-6.6818	 0.8901	-5.7917	-7.8573	 0.5055	-7.3523	-9.2446	 0.3712	-8.8730	59.3034	99.9865	
  1167	-6.7291	 0.8469	-5.8823	-7.7829	 0.5636	-7.2198	-9.0521	 0.4281	-8.6236	59.5375	99.9873	
  1168	-6.7929	 0.7794	-6.0135	-7.8747	 0.4338	-7.4414	-9.1557	 0.2774	-8.8779	59.7179	99.9866	
  1169	-6.9147	 0.7327	-6.1820	-8.0600	 0.4539	-7.6066	-9.2902	 0.3533	-8.9365	59.2779	99.9842	
  1170	-6.8645	 0.8201	-6.0444	-7.9439	 0.5621	-7.3823	-9.1539	 0.4924	-8.6610	59.2761	99.9847	
  1171	-6.8471	 0.8591	-5.9881	-7.9592	 0.6259	-7.3338	-9.1539	 0.4924	-8.6610	59.3374	99.9851	
  1172	-6.8906	 0.8747	-6.0160	-7.9691	 0.5710	-7.3986	-9.2175	 0.4525	-8.7646	59.4260	99.9859	
  1173	-6.8935	 0.8305	-6.0630	-8.0194	 0.5888	-7.4312	-9.2175	 0.4525	-8.7646	59.3284	99.9849	
  1174	-6.7747	 0.9460	-5.8286	-7.9057	 0.6589	-7.2473	-9.1974	 0.5078	-8.6892	59.2743	99.9866	
  1175	-6.8288	 0.9127	-5.9161	-7.9943	 0.5799	-7.4149	-9.3209	 0.3982	-8.9223	59.3470	99.9867	
  1176	-7.2373	 0.4492	-6.7881	-8.6298	-0.1168	-8.7471	-10.0536	-0.4044	-10.4576	59.7853	99.9834	
  1177	-8.0778	-0.2661	-8.3439	-9.4279	-0.8404	-10.2688	-10.7807	-1.0217	-11.8020	59.7897	99.9799	
  1178	-8.4633	-0.4893	-8.9526	-9.8255	-1.0243	-10.8503	-11.1607	-1.1429	-12.3032	59.4204	99.9783	
  1179	-8.5010	-0.4984	-8.9994	-9.8255	-1.0243	-10.8503	-11.1536	-1.1170	-12.2702	59.3977	99.9785	
  1180	-8.4633	-0.4893	-8.9526	-9.7980	-0.9951	-10.7935	-11.0964	-1.0918	-12.1879	59.4069	99.9778	
  1181	-8.2991	-0.3599	-8.6590	-9.5921	-0.8927	-10.4852	-10.8981	-1.0313	-11.9290	59.7021	99.9797	
  1182	-8.3048	-0.4483	-8.7531	-9.6343	-1.0529	-10.6877	-11.0107	-1.1448	-12.1551	59.6008	99.9779	
  1183	-8.4826	-0.5577	-9.0403	-9.8637	-1.1210	-10.9853	-11.2059	-1.2461	-12.4516	59.5131	99.9775	
  1184	-8.6034	-0.5897	-9.1931	-10.0046	-1.1102	-11.1153	-11.3039	-1.2115	-12.5150	59.3058	99.9759	
  1185	-8.5348	-0.5616	-9.0964	-9.8637	-1.1210	-10.9853	-11.1743	-1.1835	-12.3574	59.4671	99.9760	
  1186	-8.4671	-0.5482	-9.0153	-9.8346	-1.0665	-10.9016	-11.1280	-1.1544	-12.2821	59.3977	99.9762	
  1187	-8.4294	-0.5391	-8.9686	-9.7641	-1.0719	-10.8365	-11.0556	-1.1517	-12.2068	59.5136	99.9764	
  1188	-8.3695	-0.5305	-8.9000	-9.7173	-1.0430	-10.7608	-10.9984	-1.1264	-12.1245	59.4835	99.9763	
  1189	-8.3318	-0.5214	-8.8532	-9.6594	-1.0440	-10.7040	-10.9695	-1.1083	-12.0774	59.4498	99.9770	
  1190	-8.2787	-0.5028	-8.7815	-9.5874	-1.0240	-10.6120	-10.8399	-1.0803	-11.9198	59.6133	99.9753	
  1191	-8.1220	-0.4912	-8.6132	-9.4449	-1.0095	-10.4550	-10.6898	-1.0822	-11.7716	59.7248	99.9752	
  1192	-8.0631	-0.4973	-8.5604	-9.3820	-1.0318	-10.4142	-10.6571	-1.0938	-11.7505	59.7213	99.9756	
  1193	-8.0476	-0.4878	-8.5354	-9.3316	-1.0495	-10.3817	-10.6173	-1.0794	-11.6964	59.7636	99.9751	
  1194	-8.0254	-0.4882	-8.5136	-9.2938	-1.0629	-10.3572	-10.5591	-1.1284	-11.6871	60.0129	99.9756	
  1195	-7.9896	-0.5086	-8.4982	-9.2687	-1.0718	-10.3410	-10.5264	-1.1399	-11.6660	60.0146	99.9755	
  1196	-7.9228	-0.5099	-8.4328	-9.1907	-1.0604	-10.2516	-10.4090	-1.1303	-11.5390	60.1352	99.9748	
