OxySoft export of:	C:\Users\TO3 TechSupport\Documents\Train2Adapt\Post_tests\T2A_40_POST_NIRS
Export date:	2022/12/22 19:06:36
Start of measurement:	2022-12-22 18:12:27.146

Datafile sample rate:	10.00	Hz
Datafile duration:	3234.800	s
Datafile total number of samples:	32348

Description:	

Optode-template:	PortaMon TSI Fit Factor
Optode distance (mm):	 35.00
Optode gradients (mm):	 5.00
DPF:	5.85

Device id:	291
# Receivers:	1
# Light sources:	6
# ADC:	2

Light source wavelengths:
device	index	wavelength
1	1	847	nm
1	2	761	nm
1	3	848	nm
1	4	761	nm
1	5	848	nm
1	6	762	nm

Export sample rate:	10.00	Hz
Selected time span:	0	3234.800
Selected time span (sample numbers):	0	32348


Legend:
Column	Trace (Measurement)
1	(Sample number)
2	Rx1-Tx1 O2Hb (T2A_40_POST_NIRS)
3	Rx1-Tx1 HHb (T2A_40_POST_NIRS)
4	Rx1-Tx1 tHb (T2A_40_POST_NIRS)
5	Rx1-Tx1 HbDiff (T2A_40_POST_NIRS)
6	Rx1-Tx2 O2Hb (T2A_40_POST_NIRS)
7	Rx1-Tx2 HHb (T2A_40_POST_NIRS)
8	Rx1-Tx2 tHb (T2A_40_POST_NIRS)
9	Rx1-Tx2 HbDiff (T2A_40_POST_NIRS)
10	Rx1-Tx3 O2Hb (T2A_40_POST_NIRS)
11	Rx1-Tx3 HHb (T2A_40_POST_NIRS)
12	Rx1-Tx3 tHb (T2A_40_POST_NIRS)
13	Rx1-Tx3 HbDiff (T2A_40_POST_NIRS)
14	Rx1-Tx1,Tx2,Tx3 TSI% (T2A_40_POST_NIRS)
15	Rx1-Tx1,Tx2,Tx3 TSI Fit Factor (T2A_40_POST_NIRS)
16	(Event)


1	2	3	4	5	6	7	8	9	10	11	12	13	14	15	16
     0	142.8821	76.2513	219.1335	66.6308	115.2907	61.5946	176.8853	53.6960	97.5249	55.5541	153.0790	41.9710	43.7250	98.5201	
     1	 0.5717	 0.1647	 0.7366	 0.4070	 0.5882	 0.1343	 0.7224	 0.4538	 0.4288	 0.1615	 0.5903	 0.2674	65.9194	99.9626	
     2	 0.4864	 0.1621	 0.6486	 0.3243	 0.5297	 0.1266	 0.6563	 0.4030	 0.3900	 0.1503	 0.5402	 0.2398	66.0116	99.9627	
     3	 0.4433	 0.1524	 0.5957	 0.2909	 0.4996	 0.1084	 0.6080	 0.3911	 0.3637	 0.1343	 0.4980	 0.2294	66.0576	99.9629	
     4	 0.4001	 0.1427	 0.5429	 0.2574	 0.4771	 0.0948	 0.5718	 0.3822	 0.3505	 0.1264	 0.4769	 0.2243	66.1037	99.9632	
     5	 0.3903	 0.1207	 0.5111	 0.2696	 0.4545	 0.0811	 0.5356	 0.3733	 0.3367	 0.1058	 0.4425	 0.2311	66.1037	99.9632	
     6	 0.3217	 0.1118	 0.4336	 0.2098	 0.3893	 0.0832	 0.4725	 0.3060	 0.3098	 0.0772	 0.3870	 0.2327	66.2416	99.9623	
     7	 0.2952	 0.0960	 0.3913	 0.1992	 0.3810	 0.0643	 0.4453	 0.3166	 0.2841	 0.0739	 0.3580	 0.2103	66.1956	99.9621	
     8	 0.2609	 0.0916	 0.3525	 0.1693	 0.3442	 0.0559	 0.4002	 0.2882	 0.2710	 0.0660	 0.3369	 0.2051	66.2416	99.9634	
     9	 0.2609	 0.0916	 0.3525	 0.1693	 0.3517	 0.0605	 0.4122	 0.2912	 0.2775	 0.0699	 0.3475	 0.2077	66.2416	99.9629	
    10	 0.2510	 0.0696	 0.3207	 0.1815	 0.3367	 0.0514	 0.3881	 0.2853	 0.2637	 0.0493	 0.3131	 0.2145	66.2416	99.9618	
    11	 0.2157	 0.0484	 0.2643	 0.1673	 0.2857	 0.0482	 0.3340	 0.2374	 0.2124	 0.0428	 0.2552	 0.1697	66.1496	99.9612	
    12	 0.1559	 0.0449	 0.2009	 0.1110	 0.2482	 0.0255	 0.2737	 0.2226	 0.1736	 0.0316	 0.2052	 0.1421	66.1956	99.9620	
    13	 0.1285	 0.0123	 0.1409	 0.1161	 0.1964	 0.0080	 0.2044	 0.1883	 0.1157	 0.0210	 0.1368	 0.0948	66.0574	99.9623	
    14	 0.1039	 0.0299	 0.1340	 0.0740	 0.1897	 0.0178	 0.2075	 0.1718	 0.1348	 0.0203	 0.1551	 0.1146	66.1956	99.9625	
    15	 0.1030	 0.0132	 0.1163	 0.0897	 0.1805	-0.0154	 0.1651	 0.1958	 0.1085	 0.0044	 0.1129	 0.1042	66.1495	99.9639	
    16	 0.0598	 0.0035	 0.0634	 0.0563	 0.1086	-0.0035	 0.1051	 0.1121	 0.0697	-0.0068	 0.0629	 0.0766	66.1494	99.9638	
    17	 0.0333	-0.0124	 0.0211	 0.0457	 0.0644	-0.0165	 0.0479	 0.0808	 0.0250	-0.0094	 0.0156	 0.0344	66.0572	99.9648	
    18	-0.0088	-0.0053	-0.0141	-0.0035	 0.0276	-0.0249	 0.0027	 0.0524	-0.0007	-0.0126	-0.0133	 0.0120	66.1032	99.9661	
    19	-0.0177	-0.0106	-0.0282	-0.0071	-0.0075	-0.0046	-0.0121	-0.0030	 0.0059	-0.0087	-0.0028	 0.0146	66.1034	99.9665	
    20	-0.0000	-0.0000	 0.0000	 0.0000	 0.0000	-0.0000	-0.0000	-0.0000	-0.0000	 0.0000	-0.0000	 0.0000	66.0572	99.9668	
    21	-0.0088	-0.0053	-0.0141	-0.0035	-0.0142	 0.0052	-0.0090	-0.0195	-0.0250	 0.0094	-0.0156	-0.0343	65.9649	99.9663	
    22	-0.0245	 0.0176	-0.0069	-0.0421	-0.0058	 0.0241	 0.0183	-0.0300	-0.0112	 0.0300	 0.0188	-0.0411	66.0113	99.9661	
    23	-0.0235	 0.0343	 0.0108	-0.0578	-0.0259	 0.0535	 0.0276	-0.0794	 0.0019	 0.0380	 0.0399	-0.0360	66.0574	99.9662	
    24	-0.0069	 0.0281	 0.0213	-0.0350	 0.0025	 0.0430	 0.0455	-0.0405	-0.0099	 0.0553	 0.0454	-0.0651	65.9193	99.9661	
    25	 0.0108	 0.0387	 0.0496	-0.0279	 0.0242	 0.0423	 0.0665	-0.0181	 0.0157	 0.0586	 0.0743	-0.0428	65.9654	99.9669	
    26	 0.0029	 0.0501	 0.0532	-0.0472	 0.0251	 0.0566	 0.0817	-0.0316	-0.0020	 0.0846	 0.0826	-0.0865	65.8734	99.9665	
    27	-0.0137	 0.0563	 0.0426	-0.0700	 0.0184	 0.0664	 0.0848	-0.0481	 0.0230	 0.0752	 0.0982	-0.0522	66.0117	99.9662	
    28	-0.0216	 0.0677	 0.0462	-0.0893	 0.0117	 0.0762	 0.0879	-0.0646	 0.0052	 0.1012	 0.1064	-0.0959	65.9198	99.9667	
    29	 0.0049	 0.0836	 0.0886	-0.0787	 0.0627	 0.0794	 0.1420	-0.0168	 0.0322	 0.1298	 0.1620	-0.0976	65.8742	99.9671	
    30	 0.0314	 0.0994	 0.1309	-0.0681	 0.0794	 0.1171	 0.1965	-0.0378	 0.0650	 0.1497	 0.2147	-0.0846	65.8745	99.9661	
    31	 0.0412	 0.1214	 0.1627	-0.0803	 0.1161	 0.1255	 0.2416	-0.0095	 0.0907	 0.1530	 0.2437	-0.0622	65.9664	99.9651	
    32	 0.0500	 0.1267	 0.1768	-0.0767	 0.1027	 0.1451	 0.2478	-0.0424	 0.0913	 0.1656	 0.2570	-0.0742	65.9205	99.9653	
    33	 0.0157	 0.1223	 0.1381	-0.1066	 0.0952	 0.1406	 0.2358	-0.0454	 0.0663	 0.1750	 0.2414	-0.1086	65.8748	99.9646	
    34	 0.0500	 0.1267	 0.1768	-0.0767	 0.1169	 0.1399	 0.2568	-0.0230	 0.0854	 0.1743	 0.2597	-0.0888	65.8746	99.9651	
    35	 0.0500	 0.1267	 0.1768	-0.0767	 0.1027	 0.1451	 0.2478	-0.0424	 0.0854	 0.1743	 0.2597	-0.0888	65.8746	99.9656	
    36	 0.0324	 0.1162	 0.1486	-0.0838	 0.0501	 0.1133	 0.1634	-0.0632	 0.0065	 0.1265	 0.1330	-0.1199	65.8731	99.9654	
    37	-0.1981	-0.0380	-0.2360	-0.1602	-0.3718	-0.0312	-0.4029	-0.3406	-0.4401	-0.0089	-0.4490	-0.4311	65.3096	99.9700	
    38	-0.5934	-0.2423	-0.8355	-0.3511	-0.8621	-0.2309	-1.0930	-0.6313	-0.9321	-0.2821	-1.2142	-0.6498	65.2984	99.9677	
    39	-1.0406	-0.6068	-1.6473	-0.4338	-1.3332	-0.5988	-1.9320	-0.7344	-1.3825	-0.6160	-1.9986	-0.7664	65.2446	99.9712	
    40	-1.5486	-0.7011	-2.2497	-0.8475	-1.8086	-0.5404	-2.3490	-1.2682	-1.8726	-0.4836	-2.3563	-1.3889	64.2055	99.9674	
    41	-1.8909	-0.5833	-2.4741	-1.3076	-1.9599	-0.3967	-2.3566	-1.5632	-1.9437	-0.3796	-2.3233	-1.5640	64.5971	99.9612	
    42	-2.2243	-0.7507	-2.9749	-1.4737	-2.1703	-0.7730	-2.9433	-1.3973	-2.2508	-0.6512	-2.9021	-1.5995	65.0112	99.9693	
    43	-2.5294	-1.0139	-3.5432	-1.5154	-2.3874	-1.0151	-3.4025	-1.3724	-2.4145	-0.8606	-3.2752	-1.5538	65.2026	99.9699	
    44	-2.6932	-1.3379	-4.0310	-1.3553	-2.5953	-1.3484	-3.9437	-1.2470	-2.6578	-1.2530	-3.9108	-1.4047	65.4779	99.9664	
    45	-3.1140	-1.8318	-4.9457	-1.2822	-3.0981	-1.8877	-4.9857	-1.2104	-3.3700	-1.8434	-5.2134	-1.5265	65.3613	99.9575	
    46	-3.8878	-2.2466	-6.1343	-1.6412	-3.9409	-2.2868	-6.2277	-1.6542	-4.1803	-2.2357	-6.4160	-1.9445	65.1034	99.9608	
    47	-4.3213	-2.2318	-6.5529	-2.0895	-4.3837	-2.2917	-6.6754	-2.0921	-4.4816	-2.1484	-6.6300	-2.3331	64.8621	99.9739	
    48	-4.5281	-1.9845	-6.5125	-2.5436	-4.4899	-1.9962	-6.4861	-2.4939	-4.5264	-1.7833	-6.3098	-2.7430	64.4392	99.9755	
    49	-4.6301	-1.6906	-6.3205	-2.9395	-4.4809	-1.7139	-6.1948	-2.7670	-4.5654	-1.4269	-5.9923	-3.1384	64.0147	99.9750	
    50	-4.2280	-1.6596	-5.8875	-2.5684	-4.1892	-1.8143	-6.0035	-2.3750	-4.3213	-1.6346	-5.9559	-2.6865	64.7737	99.9756	
    51	-3.6759	-1.8293	-5.5051	-1.8466	-3.6653	-2.0370	-5.7023	-1.6283	-3.7199	-1.9571	-5.6770	-1.7627	65.9934	99.9762	
    52	-2.9394	-1.4691	-4.4084	-1.4703	-3.0539	-1.6257	-4.6796	-1.4282	-3.1089	-1.5996	-4.7085	-1.5092	65.8014	99.9748	
    53	-2.3332	-1.0095	-3.3426	-1.3238	-2.4224	-1.1193	-3.5417	-1.3032	-2.4263	-1.0884	-3.5147	-1.3378	65.7134	99.9747	
    54	-1.8389	-0.7136	-2.5524	-1.1254	-1.8519	-0.7881	-2.6400	-1.0639	-1.8771	-0.8173	-2.6945	-1.0597	65.9553	99.9668	
    55	-1.6928	-0.6906	-2.3833	-1.0022	-1.8461	-0.8122	-2.6583	-1.0340	-1.9811	-0.8557	-2.8368	-1.1253	65.6646	99.9675	
    56	-2.0194	-0.8861	-2.9054	-1.1333	-2.1551	-1.1375	-3.2925	-1.0177	-2.3368	-1.2058	-3.5426	-1.1309	66.1891	99.9690	
    57	-2.6138	-1.4355	-4.0492	-1.1782	-2.8450	-1.5271	-4.3721	-1.3180	-3.0754	-1.4445	-4.5199	-1.6309	64.7773	99.9718	
    58	-3.1002	-1.3072	-4.4073	-1.7930	-3.2036	-1.2043	-4.4079	-1.9994	-3.3190	-0.9790	-4.2980	-2.3399	63.6518	99.9729	
    59	-3.3365	-1.2712	-4.6076	-2.0653	-3.3506	-1.2379	-4.5885	-2.1128	-3.3972	-1.1367	-4.5339	-2.2605	64.6073	99.9687	
    60	-3.8769	-1.4817	-5.3585	-2.3952	-3.6622	-1.4817	-5.1438	-2.1806	-3.5675	-1.3500	-4.9176	-2.2174	65.3821	99.9709	
    61	-3.7622	-1.7035	-5.4656	-2.0587	-3.6504	-1.7789	-5.4293	-1.8715	-3.7148	-1.6108	-5.3255	-2.1039	65.1779	99.9726	
    62	-3.8319	-2.0195	-5.8513	-1.8124	-3.7455	-2.0440	-5.7895	-1.7015	-3.8765	-1.9048	-5.7813	-1.9716	65.1224	99.9665	
    63	-4.1291	-2.4394	-6.5684	-1.6897	-4.1397	-2.4623	-6.6020	-1.6774	-4.3861	-2.3971	-6.7832	-1.9889	65.1015	99.9589	
    64	-4.7627	-2.7864	-7.5490	-1.9763	-4.8472	-2.9041	-7.7512	-1.9432	-5.1905	-2.7981	-7.9886	-2.3923	64.8279	99.9637	
    65	-5.2530	-2.7250	-7.9778	-2.5281	-5.3126	-2.7981	-8.1107	-2.5145	-5.4609	-2.6063	-8.0672	-2.8545	64.4923	99.9748	
    66	-5.3637	-2.2911	-7.6547	-3.0727	-5.2927	-2.3295	-7.6222	-2.9633	-5.2861	-2.0592	-7.3453	-3.2268	64.2793	99.9799	
    67	-5.3784	-1.9610	-7.3393	-3.4174	-5.2369	-1.8668	-7.1037	-3.3702	-5.1810	-1.6279	-6.8089	-3.5530	63.8642	99.9732	
    68	-4.8811	-1.7602	-6.6412	-3.1210	-4.7774	-1.8241	-6.6015	-2.9534	-4.8975	-1.6892	-6.5866	-3.2082	64.4756	99.9676	
    69	-4.4850	-1.9748	-6.4597	-2.5102	-4.4556	-2.1553	-6.6109	-2.3004	-4.5566	-2.1203	-6.6768	-2.4362	65.6450	99.9698	
    70	-3.7436	-1.8214	-5.5649	-1.9222	-3.8149	-1.9891	-5.8040	-1.8258	-3.8844	-1.9341	-5.8184	-1.9502	65.6498	99.9749	
    71	-3.0639	-1.2693	-4.3331	-1.7945	-3.1409	-1.3739	-4.5148	-1.7670	-3.1491	-1.3910	-4.5402	-1.7580	65.7070	99.9709	
    72	-2.4774	-0.9989	-3.4762	-1.4784	-2.4433	-1.1042	-3.5476	-1.3392	-2.5158	-1.0935	-3.6093	-1.4222	65.8091	99.9669	
    73	-2.2891	-0.9830	-3.2720	-1.3061	-2.3865	-1.1252	-3.5117	-1.2614	-2.5690	-1.1380	-3.7070	-1.4309	65.5632	99.9663	
    74	-2.5804	-1.1574	-3.7377	-1.4230	-2.7624	-1.3526	-4.1150	-1.4099	-2.8860	-1.4769	-4.3629	-1.4090	66.1393	99.9666	
    75	-3.0159	-1.6117	-4.6275	-1.4042	-3.2218	-1.6443	-4.8661	-1.5776	-3.4359	-1.5155	-4.9514	-1.9202	64.3869	99.9718	
    76	-3.6552	-1.4781	-5.1333	-2.1771	-3.6680	-1.4575	-5.1256	-2.2106	-3.8668	-1.3473	-5.2141	-2.5194	64.2490	99.9628	
    77	-4.1270	-1.5346	-5.6615	-2.5924	-3.9913	-1.5285	-5.5199	-2.4629	-3.9681	-1.3351	-5.3032	-2.6329	64.6565	99.9735	
    78	-4.3457	-1.6333	-5.9788	-2.7124	-4.1249	-1.7062	-5.8312	-2.4188	-4.1180	-1.5239	-5.6419	-2.5941	65.1325	99.9729	
    79	-4.3359	-1.9017	-6.2375	-2.4342	-4.1817	-1.9342	-6.1159	-2.2475	-4.2534	-1.8020	-6.0554	-2.4514	65.0744	99.9668	
    80	-4.4498	-2.3894	-6.8390	-2.0604	-4.4839	-2.3938	-6.8777	-2.0902	-4.6822	-2.3311	-7.0132	-2.3510	64.8528	99.9609	
    81	-5.0176	-2.7777	-7.7952	-2.2400	-5.1129	-2.8572	-7.9701	-2.2557	-5.4490	-2.7462	-8.1952	-2.7028	64.4739	99.9629	
    82	-5.5688	-2.7365	-8.3052	-2.8323	-5.6601	-2.7870	-8.4471	-2.8733	-5.8694	-2.6206	-8.4900	-3.2487	64.0776	99.9706	
    83	-5.8776	-2.4858	-8.3633	-3.3919	-5.8917	-2.5257	-8.4174	-3.3660	-5.9215	-2.2721	-8.1936	-3.6493	63.9071	99.9798	
    84	-5.9099	-2.0210	-7.9309	-3.8889	-5.7039	-1.9140	-7.6179	-3.7900	-5.6389	-1.6108	-7.2496	-4.0280	63.4749	99.9747	
    85	-5.2116	-1.7321	-6.9436	-3.4795	-5.0857	-1.7615	-6.8472	-3.3243	-5.1580	-1.6752	-6.8332	-3.4827	64.4742	99.9642	
    86	-4.7243	-1.9890	-6.7131	-2.7353	-4.7079	-2.1280	-6.8360	-2.5800	-4.7533	-2.1045	-6.8577	-2.6487	65.4974	99.9700	
    87	-3.9210	-1.6534	-5.5743	-2.2677	-3.9403	-1.7744	-5.7147	-2.1659	-4.0186	-1.6966	-5.7153	-2.3219	65.2137	99.9724	
    88	-3.1747	-1.1259	-4.3005	-2.0488	-3.1301	-1.1875	-4.3176	-1.9426	-3.1005	-1.1900	-4.2905	-1.9104	65.6641	99.9680	
    89	-2.7284	-0.9233	-3.6516	-1.8051	-2.5646	-0.9423	-3.5069	-1.6223	-2.6191	-0.8741	-3.4933	-1.7449	65.3870	99.9633	
    90	-2.6490	-0.8758	-3.5246	-1.7732	-2.5412	-0.9143	-3.4555	-1.6269	-2.6836	-0.8886	-3.5722	-1.7948	65.2857	99.9591	
    91	-2.8304	-0.9198	-3.7501	-1.9106	-2.9764	-1.0392	-4.0156	-1.9373	-3.0775	-1.1148	-4.1923	-1.9626	65.4142	99.9661	
    92	-3.2924	-1.3900	-4.6823	-1.9024	-3.3923	-1.4568	-4.8491	-1.9356	-3.6175	-1.3313	-4.9488	-2.2861	64.3899	99.9694	
    93	-3.8239	-1.3048	-5.1286	-2.5191	-3.8569	-1.2120	-5.0690	-2.6450	-3.9932	-1.0806	-5.0738	-2.9125	63.7260	99.9643	
    94	-4.4005	-1.4080	-5.8084	-2.9926	-4.2212	-1.3631	-5.5843	-2.8581	-4.1780	-1.2047	-5.3827	-2.9732	64.5142	99.9693	
    95	-4.8272	-1.5665	-6.3936	-3.2607	-4.5753	-1.5912	-6.1665	-2.9842	-4.5753	-1.3716	-5.9468	-3.2036	64.5059	99.9718	
    96	-4.7596	-1.8649	-6.6243	-2.8947	-4.6638	-1.8661	-6.5298	-2.7978	-4.7744	-1.7741	-6.5485	-3.0003	64.5754	99.9626	
    97	-5.1195	-2.3385	-7.4580	-2.7810	-5.1423	-2.3631	-7.5054	-2.7793	-5.3854	-2.2541	-7.6395	-3.1312	64.1956	99.9622	
    98	-5.6050	-2.4839	-8.0888	-3.1211	-5.6227	-2.5152	-8.1379	-3.1075	-5.8741	-2.3415	-8.2156	-3.5325	63.7862	99.9660	
    99	-5.9855	-2.2922	-8.2775	-3.6933	-5.9895	-2.3358	-8.3253	-3.6538	-6.0459	-2.0900	-8.1359	-3.9558	63.6576	99.9784	
   100	-6.1982	-2.0000	-8.1981	-4.1982	-6.0406	-1.9654	-8.0061	-4.0752	-6.0368	-1.6678	-7.7046	-4.3690	63.3008	99.9761	
   101	-5.9667	-1.6840	-7.6506	-4.2828	-5.7567	-1.5723	-7.3290	-4.1845	-5.7817	-1.2927	-7.0744	-4.4889	62.9832	99.9694	
   102	-5.3224	-1.5887	-6.9110	-3.7337	-5.2537	-1.6555	-6.9093	-3.5982	-5.3054	-1.5683	-6.8737	-3.7370	64.3220	99.9687	
   103	-4.6428	-1.6175	-6.2602	-3.0253	-4.6354	-1.7520	-6.3875	-2.8834	-4.7225	-1.6323	-6.3548	-3.0901	64.6685	99.9740	
   104	-3.8101	-1.0707	-4.8807	-2.7395	-3.8629	-1.0634	-4.9262	-2.7995	-3.8235	-1.0024	-4.8259	-2.8210	64.5052	99.9718	
   105	-3.1344	-0.7307	-3.8650	-2.4037	-3.0517	-0.7112	-3.7629	-2.3406	-3.0777	-0.6246	-3.7023	-2.4530	64.6240	99.9665	
   106	-2.9480	-0.6030	-3.5510	-2.3450	-2.7978	-0.5853	-3.3830	-2.2126	-2.9442	-0.5070	-3.4512	-2.4371	64.5297	99.9583	
   107	-2.9814	-0.5907	-3.5720	-2.3907	-3.0083	-0.5881	-3.5964	-2.4203	-3.1895	-0.5697	-3.7592	-2.6197	64.2702	99.9591	
   108	-3.3089	-0.8029	-4.1118	-2.5060	-3.4477	-0.9091	-4.3568	-2.5386	-3.5907	-0.9351	-4.5257	-2.6555	64.6820	99.9665	
   109	-3.7964	-1.1270	-4.9233	-2.6694	-3.8762	-1.0438	-4.9200	-2.8325	-4.0775	-0.8619	-4.9394	-3.2154	63.1410	99.9666	
   110	-4.3505	-0.9908	-5.3411	-3.3597	-4.2756	-0.9256	-5.2012	-3.3501	-4.3867	-0.8039	-5.1906	-3.5827	63.5843	99.9625	
   111	-5.0909	-1.2726	-6.3635	-3.8183	-4.8930	-1.1883	-6.0812	-3.7048	-4.8543	-0.9766	-5.8309	-3.8776	63.6448	99.9699	
   112	-5.4577	-1.4277	-6.8853	-4.0301	-5.2997	-1.4482	-6.7479	-3.8517	-5.3232	-1.2972	-6.6204	-4.0259	63.9482	99.9691	
   113	-5.6216	-1.8969	-7.5183	-3.7247	-5.6563	-1.8437	-7.5001	-3.8127	-5.8098	-1.7143	-7.5241	-4.0955	63.2640	99.9645	
   114	-5.8707	-2.0782	-7.9488	-3.7925	-5.8935	-2.0564	-7.9499	-3.8372	-6.1446	-1.9046	-8.0492	-4.2399	63.0903	99.9622	
   115	-6.4611	-2.1251	-8.5861	-4.3360	-6.5602	-2.1690	-8.7292	-4.3913	-6.7912	-1.9650	-8.7562	-4.8261	62.6568	99.9717	
   116	-6.8396	-1.8999	-8.7394	-4.9397	-6.8193	-1.8829	-8.7023	-4.9365	-6.8400	-1.5532	-8.3933	-5.2867	62.3231	99.9808	
   117	-6.6953	-1.4747	-8.1700	-5.2206	-6.4603	-1.3198	-7.7801	-5.1405	-6.4271	-0.9601	-7.3873	-5.4669	62.0653	99.9737	
   118	-6.0137	-1.1797	-7.1933	-4.8341	-5.8914	-1.1418	-7.0332	-4.7497	-6.0285	-0.8905	-6.9190	-5.1379	62.3695	99.9686	
   119	-5.4744	-1.2763	-6.7505	-4.1981	-5.4978	-1.3604	-6.8582	-4.1375	-5.6048	-1.1979	-6.8027	-4.4068	63.3299	99.9742	
   120	-4.7201	-0.9055	-5.6256	-3.8147	-4.8179	-0.8938	-5.7117	-3.9242	-4.8932	-0.7427	-5.6359	-4.1504	63.0229	99.9733	
   121	-3.9914	-0.3886	-4.3799	-3.6028	-4.0018	-0.3310	-4.3329	-3.6709	-4.0810	-0.1899	-4.2709	-3.8910	63.0740	99.9684	
   122	-3.6079	-0.2397	-3.8476	-3.3682	-3.6377	-0.0554	-3.6931	-3.5823	-3.6982	-0.0563	-3.7545	-3.6418	63.2317	99.9543	
   123	-3.7511	-0.2125	-3.9635	-3.5386	-3.8674	-0.1390	-4.0064	-3.7284	-4.0185	-0.0908	-4.1094	-3.9276	62.9111	99.9619	
   124	-4.2347	-0.6149	-4.8495	-3.6198	-4.5021	-0.7028	-5.2050	-3.7994	-4.7696	-0.6924	-5.4620	-4.0770	63.0726	99.9661	
   125	-4.9388	-0.7137	-5.6524	-4.2251	-5.0361	-0.5276	-5.5637	-4.5085	-5.1414	-0.2433	-5.3846	-4.8980	61.4507	99.9726	
   126	-4.9594	-0.4840	-5.4432	-4.4754	-4.9743	-0.3381	-5.3124	-4.6363	-5.1408	-0.1081	-5.2488	-5.0326	61.6420	99.9660	
   127	-5.6125	-0.7298	-6.3422	-4.8828	-5.4463	-0.5959	-6.0421	-4.8505	-5.4794	-0.3743	-5.8538	-5.1050	62.3334	99.9661	
   128	-6.2520	-0.8866	-7.1385	-5.3653	-6.0937	-0.8767	-6.9704	-5.2170	-6.1700	-0.6697	-6.8397	-5.5002	62.4732	99.9687	
   129	-6.4325	-1.3497	-7.7820	-5.0828	-6.4210	-1.2684	-7.6895	-5.1527	-6.5554	-1.0990	-7.6544	-5.4562	62.1270	99.9650	
   130	-6.5482	-1.5803	-8.1284	-4.9680	-6.6282	-1.4629	-8.0911	-5.1653	-6.8717	-1.3027	-8.1744	-5.5689	61.6328	99.9603	
   131	-7.0239	-1.5585	-8.5822	-5.4654	-7.1779	-1.4356	-8.6136	-5.7424	-7.4328	-1.1888	-8.6217	-6.2439	60.7014	99.9675	
   132	-7.4406	-1.2593	-8.6998	-6.1813	-7.4646	-1.1247	-8.5894	-6.3400	-7.5020	-0.8017	-8.3037	-6.7003	60.7356	99.9766	
   133	-7.4170	-0.8580	-8.2749	-6.5590	-7.2050	-0.6494	-7.8544	-6.5556	-7.2036	-0.2043	-7.4079	-6.9992	60.3624	99.9755	
   134	-6.7226	-0.4907	-7.2132	-6.2319	-6.6462	-0.2699	-6.9161	-6.3763	-6.7544	-0.0182	-6.7726	-6.7360	60.5251	99.9631	
   135	-6.2696	-0.6068	-6.8762	-5.6628	-6.3144	-0.5536	-6.8680	-5.7609	-6.4523	-0.3380	-6.7903	-6.1142	61.3127	99.9708	
   136	-5.5183	-0.2861	-5.8043	-5.2322	-5.6353	-0.2258	-5.8611	-5.4095	-5.8032	 0.0181	-5.7851	-5.8212	61.1036	99.9733	
   137	-4.8209	 0.2765	-4.5443	-5.0975	-4.9605	 0.5282	-4.4323	-5.4888	-4.9871	 0.6468	-4.3402	-5.6338	61.1005	99.9642	
   138	-4.2943	 0.5434	-3.7508	-4.8377	-4.4226	 0.9227	-3.4998	-5.3454	-4.4426	 1.0744	-3.3681	-5.5169	60.6442	99.9606	
   139	-4.1422	 0.6666	-3.4755	-4.8089	-4.1920	 1.0207	-3.1714	-5.2128	-4.3005	 1.2340	-3.0666	-5.5344	60.4725	99.9595	
   140	-4.2060	 0.7414	-3.4644	-4.9474	-4.4494	 1.0864	-3.3630	-5.5359	-4.5979	 1.2746	-3.3232	-5.8724	59.8870	99.9626	
   141	-4.6993	 0.4623	-4.2369	-5.1616	-5.0340	 0.6359	-4.3981	-5.6700	-5.1318	 0.6818	-4.4500	-5.8135	60.8890	99.9659	
   142	-5.4937	 0.2772	-5.2164	-5.7709	-5.7008	 0.6478	-5.0530	-6.3486	-5.8792	 1.0140	-4.8652	-6.8931	58.7123	99.9698	
   143	-5.8055	 0.4777	-5.3277	-6.2833	-5.8629	 0.8541	-5.0088	-6.7171	-6.0095	 1.0822	-4.9272	-7.0916	59.3027	99.9571	
   144	-6.4057	 0.2637	-6.1419	-6.6694	-6.2404	 0.4736	-5.7668	-6.7141	-6.3028	 0.8312	-5.4716	-7.1339	60.0469	99.9697	
   145	-6.8549	 0.1561	-6.6986	-7.0110	-6.6706	 0.3103	-6.3604	-6.9810	-6.6921	 0.5711	-6.1210	-7.2630	60.5802	99.9673	
   146	-6.8677	-0.3517	-7.2193	-6.5160	-6.8835	-0.1091	-6.9926	-6.7745	-7.0406	 0.1150	-6.9256	-7.1555	59.9479	99.9608	
   147	-7.3189	-0.6379	-7.9567	-6.6810	-7.4131	-0.4847	-7.8978	-6.9284	-7.7450	-0.2010	-7.9460	-7.5439	59.3309	99.9630	
   148	-7.9965	-0.5756	-8.5720	-7.4209	-8.0773	-0.4298	-8.5071	-7.6475	-8.3318	-0.0903	-8.4221	-8.2413	58.8705	99.9698	
   149	-8.4230	-0.2985	-8.7215	-8.1245	-8.3732	-0.1522	-8.5253	-8.2211	-8.4839	 0.2957	-8.1882	-8.7794	58.6647	99.9778	
   150	-8.3465	 0.1345	-8.2118	-8.4810	-8.1830	 0.5026	-7.6804	-8.6856	-8.2124	 0.9870	-7.2254	-9.1993	57.8924	99.9713	
   151	-7.5609	 0.4596	-7.1012	-8.0205	-7.5196	 0.6823	-6.8373	-8.2021	-7.7434	 1.0625	-6.6810	-8.8058	58.2015	99.9668	
   152	-6.9352	 0.3823	-6.5528	-7.3176	-7.1060	 0.5589	-6.5471	-7.6650	-7.2796	 0.9142	-6.3655	-8.1937	58.5222	99.9757	
   153	-6.1084	 0.9740	-5.1343	-7.0825	-6.4196	 1.3892	-5.0304	-7.8089	-6.5280	 1.6510	-4.8771	-8.1789	57.8087	99.9672	
   154	-5.3120	 1.4830	-3.8289	-6.7951	-5.4598	 1.9282	-3.5316	-7.3881	-5.5909	 2.2794	-3.3114	-7.8702	57.8415	99.9661	
   155	-4.8501	 1.8080	-3.0420	-6.6581	-4.8450	 2.1478	-2.6972	-6.9929	-5.0436	 2.5125	-2.5311	-7.5561	58.4232	99.9642	
   156	-4.8481	 1.8414	-3.0066	-6.6895	-4.8943	 2.1734	-2.7209	-7.0677	-5.0864	 2.5480	-2.5385	-7.6343	58.2706	99.9671	
   157	-5.0344	 1.8590	-3.1754	-6.8934	-5.0230	 2.2062	-2.8167	-7.2293	-5.1305	 2.5580	-2.5724	-7.6884	58.5344	99.9669	
   158	-5.1639	 1.8299	-3.3339	-6.9938	-5.1968	 2.2118	-2.9849	-7.4087	-5.2838	 2.5511	-2.7327	-7.8348	58.3324	99.9668	
   159	-5.3777	 1.6696	-3.7080	-7.0473	-5.4348	 2.1093	-3.3255	-7.5442	-5.5126	 2.4371	-3.0755	-7.9496	58.1236	99.9645	
   160	-5.5827	 1.5146	-4.0680	-7.0973	-5.5751	 1.9415	-3.6337	-7.5167	-5.7053	 2.2837	-3.4216	-7.9889	58.1494	99.9615	
   161	-5.7514	 1.3975	-4.3538	-7.1489	-5.8073	 1.8149	-3.9925	-7.6223	-6.0414	 2.1906	-3.8508	-8.2319	57.6038	99.9613	
   162	-6.0270	 1.3455	-4.6814	-7.3725	-6.3153	 1.8120	-4.5033	-8.1274	-6.7124	 2.2748	-4.4376	-8.9871	55.8772	99.9645	
   163	-6.8880	 1.4755	-5.4124	-8.3635	-7.2779	 2.1016	-5.1763	-9.3796	-7.6894	 2.7254	-4.9640	-10.4148	53.6656	99.9696	
   164	-7.2312	 1.7218	-5.5092	-8.9530	-7.4961	 2.3432	-5.1528	-9.8394	-7.7480	 2.9474	-4.8007	-10.6953	54.1147	99.9715	
   165	-7.0056	 1.7923	-5.2132	-8.7979	-7.1109	 2.3548	-4.7561	-9.4658	-7.2250	 2.8349	-4.3902	-10.0598	55.7017	99.9679	
   166	-6.5006	 1.6912	-4.8092	-8.1918	-6.7048	 2.2268	-4.4780	-8.9317	-6.8375	 2.6894	-4.1481	-9.5268	55.9708	99.9702	
   167	-6.0769	 1.6544	-4.4224	-7.7314	-6.2586	 2.1646	-4.0941	-8.4233	-6.3435	 2.6329	-3.7106	-8.9763	56.5557	99.9730	
   168	-5.5002	 2.1933	-3.3068	-7.6935	-5.6021	 2.6032	-2.9990	-8.2054	-5.6740	 3.0136	-2.6604	-8.6875	57.2980	99.9723	
   169	-5.2844	 2.3870	-2.8973	-7.6714	-5.3031	 2.7564	-2.5467	-8.0595	-5.3622	 3.1287	-2.2335	-8.4909	57.8107	99.9701	
   170	-5.1206	 2.5657	-2.5548	-7.6863	-5.0191	 2.9005	-2.1186	-7.9196	-5.1327	 3.2554	-1.8773	-8.3880	58.1237	99.9647	
   171	-5.1245	 2.6440	-2.4804	-7.7685	-5.0066	 2.9910	-2.0155	-7.9977	-5.1347	 3.3400	-1.7947	-8.4746	58.0369	99.9626	
   172	-5.0529	 2.7030	-2.3498	-7.7559	-4.9080	 3.0645	-1.8435	-7.9726	-5.0091	 3.4283	-1.5808	-8.4373	58.0701	99.9633	
   173	-5.0235	 2.7690	-2.2543	-7.7925	-4.8529	 3.1393	-1.7136	-7.9923	-4.9479	 3.5020	-1.4459	-8.4499	58.0880	99.9624	
   174	-5.1500	 2.7901	-2.3598	-7.9401	-4.9966	 3.1631	-1.8335	-8.1598	-5.1624	 3.5439	-1.6185	-8.7062	57.6845	99.9606	
   175	-5.5030	 2.7240	-2.7789	-8.2270	-5.3007	 3.1729	-2.1278	-8.4737	-5.3788	 3.5477	-1.8311	-8.9264	57.6204	99.9591	
   176	-5.6707	 2.6236	-3.0470	-8.2944	-5.4686	 3.0298	-2.4388	-8.4985	-5.4807	 3.3022	-2.1785	-8.7828	58.2837	99.9572	
   177	-6.5230	 2.1780	-4.3450	-8.7010	-6.8563	 2.7441	-4.1122	-9.6004	-7.3798	 3.4154	-3.9645	-10.7951	53.2156	99.9686	
   178	-7.6291	 2.6291	-4.9999	-10.2583	-7.5282	 3.2924	-4.2358	-10.8207	-7.3280	 3.9248	-3.4033	-11.2527	55.1076	99.9785	
   179	-7.0770	 2.7499	-4.3270	-9.8269	-6.9726	 3.3655	-3.6071	-10.3382	-7.0176	 4.0146	-3.0030	-11.0321	54.8311	99.9724	
   180	-7.1986	 2.8546	-4.3439	-10.0532	-7.3018	 3.4432	-3.8587	-10.7451	-7.3557	 4.0061	-3.3496	-11.3617	54.4567	99.9740	
   181	-7.2231	 2.7269	-4.4961	-9.9501	-7.3386	 3.3103	-4.0283	-10.6489	-7.4254	 3.8904	-3.5350	-11.3156	54.3790	99.9742	
   182	-7.1555	 2.7190	-4.4363	-9.8745	-7.2324	 3.2637	-3.9687	-10.4962	-7.2695	 3.8254	-3.4441	-11.0947	54.8782	99.9755	
   183	-7.0093	 2.7420	-4.2673	-9.7513	-7.0269	 3.3050	-3.7219	-10.3320	-7.1123	 3.9082	-3.2040	-11.0204	54.7804	99.9737	
   184	-6.9368	 2.8177	-4.1190	-9.7545	-6.9434	 3.3694	-3.5740	-10.3128	-7.0820	 4.0001	-3.0820	-11.0820	54.5937	99.9733	
   185	-6.8995	 2.8723	-4.0271	-9.7718	-6.9041	 3.4208	-3.4834	-10.3250	-7.0354	 4.0406	-2.9947	-11.0759	54.6490	99.9731	
   186	-6.8808	 2.8996	-3.9812	-9.7804	-6.8657	 3.4579	-3.4079	-10.3237	-6.9880	 4.0938	-2.8942	-11.0817	54.6282	99.9734	
   187	-6.8092	 2.9586	-3.8506	-9.7678	-6.8023	 3.5516	-3.2507	-10.3539	-6.8769	 4.1488	-2.7281	-11.0255	54.7510	99.9720	
   188	-6.7455	 3.0290	-3.7164	-9.7745	-6.7472	 3.6264	-3.1207	-10.3737	-6.8164	 4.2099	-2.6065	-11.0262	54.7595	99.9716	
   189	-6.7514	 3.0739	-3.6774	-9.8253	-6.7455	 3.6551	-3.0904	-10.4007	-6.8276	 4.2399	-2.5876	-11.0674	54.7553	99.9716	
   190	-6.8426	 3.1161	-3.7264	-9.9587	-6.8516	 3.7016	-3.1500	-10.5533	-6.9585	 4.2955	-2.6630	-11.2539	54.5017	99.9713	
   191	-7.0093	 3.1777	-3.8315	-10.1869	-7.0288	 3.7744	-3.2544	-10.8032	-7.1269	 4.3652	-2.7617	-11.4920	54.3027	99.9713	
   192	-7.0661	 3.2243	-3.8417	-10.2904	-7.0772	 3.8142	-3.2630	-10.8916	-7.1572	 4.3959	-2.7613	-11.5530	54.3535	99.9715	
   193	-7.0740	 3.2357	-3.8381	-10.3097	-7.0981	 3.8293	-3.2689	-10.9275	-7.1822	 4.4053	-2.7769	-11.5874	54.2982	99.9713	
   194	-7.1161	 3.2428	-3.8733	-10.3589	-7.1491	 3.8261	-3.3230	-10.9753	-7.2460	 4.4034	-2.8425	-11.6493	54.2339	99.9715	
   195	-7.1505	 3.2383	-3.9120	-10.3888	-7.1925	 3.8275	-3.3650	-11.0201	-7.3091	 4.4142	-2.8949	-11.7233	54.0807	99.9712	
   196	-7.2005	 3.2568	-3.9436	-10.4573	-7.2210	 3.8380	-3.3829	-11.0590	-7.3341	 4.4236	-2.9105	-11.7577	54.1318	99.9710	
   197	-7.1563	 3.2832	-3.8730	-10.4396	-7.1683	 3.8698	-3.2985	-11.0382	-7.2618	 4.4674	-2.7944	-11.7291	54.1587	99.9720	
   198	-7.0955	 3.3035	-3.7919	-10.3990	-7.0881	 3.8768	-3.2113	-10.9650	-7.1973	 4.4819	-2.7154	-11.6791	54.2141	99.9718	
   199	-7.0690	 3.3193	-3.7496	-10.3884	-7.0865	 3.9055	-3.1810	-10.9921	-7.2019	 4.5159	-2.6861	-11.7177	54.0702	99.9721	
   200	-7.0838	 3.3589	-3.7247	-10.4427	-7.0781	 3.9244	-3.1537	-11.0026	-7.2066	 4.5499	-2.6567	-11.7563	54.0747	99.9725	
   201	-7.0739	 3.3810	-3.6929	-10.4549	-7.0623	 3.9478	-3.1144	-11.0102	-7.1737	 4.5698	-2.6039	-11.7433	54.1346	99.9728	
   202	-6.9876	 3.4003	-3.5872	-10.3880	-6.9595	 3.9685	-2.9910	-10.9280	-7.0579	 4.5908	-2.4671	-11.6486	54.2540	99.9729	
   203	-6.9268	 3.4206	-3.5061	-10.3475	-6.9010	 3.9762	-2.9249	-10.8773	-7.0066	 4.5973	-2.4093	-11.6038	54.3003	99.9731	
   204	-6.9268	 3.4206	-3.5061	-10.3475	-6.9152	 3.9814	-2.9338	-10.8967	-7.0132	 4.5934	-2.4198	-11.6064	54.2959	99.9731	
   205	-6.9268	 3.4206	-3.5061	-10.3475	-6.9085	 3.9716	-2.9369	-10.8802	-7.0382	 4.6027	-2.4354	-11.6408	54.1943	99.9731	
   206	-6.9347	 3.4320	-3.5025	-10.3667	-6.9152	 3.9814	-2.9338	-10.8967	-7.0191	 4.6020	-2.4171	-11.6210	54.2959	99.9735	
   207	-6.8827	 3.4470	-3.4356	-10.3297	-6.9052	 4.0290	-2.8762	-10.9343	-6.9974	 4.6519	-2.3455	-11.6492	54.1150	99.9740	
   208	-6.8964	 3.5034	-3.3930	-10.3998	-6.9311	 4.0825	-2.8487	-11.0137	-7.0330	 4.7040	-2.3290	-11.7368	54.0134	99.9740	
   209	-6.8072	 3.5729	-3.2342	-10.3801	-6.8284	 4.1031	-2.7253	-10.9316	-6.9073	 4.6697	-2.2376	-11.5769	54.4770	99.9735	
   210	-6.7503	 3.5263	-3.2239	-10.2766	-6.7765	 3.9961	-2.7804	-10.7727	-6.8882	 4.5464	-2.3417	-11.4345	54.7170	99.9738	
   211	-6.6414	 3.4946	-3.1467	-10.1361	-6.6412	 3.9534	-2.6877	-10.5947	-6.6882	 4.4714	-2.2168	-11.1594	55.2193	99.9743	
   212	-6.5738	 3.3415	-3.2322	-9.9153	-6.5993	 3.7989	-2.8005	-10.3983	-6.6710	 4.3101	-2.3609	-10.9811	55.2839	99.9737	
   213	-6.4728	 3.3213	-3.1514	-9.7941	-6.4849	 3.7712	-2.7136	-10.2562	-6.5776	 4.2686	-2.3090	-10.8461	55.4235	99.9721	
   214	-6.5160	 3.3116	-3.2043	-9.8276	-6.6069	 3.7943	-2.8125	-10.4012	-6.7197	 4.3542	-2.3655	-11.0738	54.7974	99.9755	
   215	-6.5836	 3.3195	-3.2640	-9.9031	-6.7247	 3.8891	-2.8356	-10.6139	-6.7895	 4.4836	-2.3059	-11.2730	54.3159	99.9771	
   216	-6.4630	 3.3433	-3.1196	-9.8063	-6.5568	 3.9076	-2.6491	-10.4645	-6.5724	 4.4924	-2.0800	-11.0647	54.6966	99.9774	
   217	-6.2502	 3.3416	-2.9085	-9.5918	-6.2760	 3.8699	-2.4062	-10.1460	-6.2270	 4.3950	-1.8321	-10.6219	55.5345	99.9763	
   218	-5.7010	 3.2670	-2.4339	-8.9680	-5.5382	 3.7073	-1.8310	-9.2456	-5.4921	 4.0675	-1.4246	-9.5595	57.3366	99.9654	
   219	-5.0223	 3.6571	-1.3651	-8.6795	-4.8441	 4.0441	-0.8000	-8.8882	-4.8344	 4.3430	-0.4915	-9.1773	57.7964	99.9622	
   220	-4.6742	 3.7848	-0.8892	-8.4590	-4.3997	 4.2022	-0.1975	-8.6019	-4.4431	 4.5185	 0.0754	-8.9615	57.8573	99.9565	
   221	-4.5133	 3.7682	-0.7451	-8.2815	-4.3169	 4.1277	-0.1892	-8.4447	-4.4161	 4.4245	 0.0084	-8.8405	57.8999	99.9579	
   222	-4.6712	 3.6898	-0.9814	-8.3611	-4.4882	 4.0518	-0.4363	-8.5400	-4.5411	 4.3489	-0.1921	-8.8899	57.9396	99.9604	
   223	-4.9056	 3.6140	-1.2915	-8.5197	-4.7873	 4.0231	-0.7641	-8.8104	-4.7976	 4.3162	-0.4813	-9.1137	57.6437	99.9618	
   224	-5.1518	 3.4828	-1.6689	-8.6346	-4.9151	 3.9458	-0.9692	-8.8609	-4.8706	 4.2598	-0.6108	-9.1303	57.7814	99.9593	
   225	-5.6040	 2.8894	-2.7145	-8.4935	-5.5689	 3.1767	-2.3922	-8.7457	-5.9939	 3.4819	-2.5119	-9.4757	56.8653	99.9503	
   226	-7.0986	 2.8176	-4.2808	-9.9162	-7.1506	 3.4239	-3.7267	-10.5746	-7.2340	 4.0184	-3.2156	-11.2523	54.4450	99.9725	
   227	-6.7053	 2.8433	-3.8619	-9.5486	-6.5231	 3.3607	-3.1625	-9.8839	-6.5321	 3.9162	-2.6159	-10.4482	55.9804	99.9705	
   228	-6.5062	 2.8979	-3.6082	-9.4042	-6.4613	 3.4257	-3.0356	-9.8871	-6.5801	 3.9729	-2.6072	-10.5529	55.3930	99.9691	
   229	-6.8759	 2.9832	-3.8926	-9.8591	-6.9343	 3.5271	-3.4072	-10.4614	-7.0808	 4.1479	-2.9328	-11.2286	54.3940	99.9742	
   230	-6.5925	 3.1690	-3.4234	-9.7615	-6.5817	 3.6020	-2.9797	-10.1838	-6.5347	 3.9881	-2.5466	-10.5227	56.3625	99.9713	
   231	-5.8953	 2.8603	-3.0349	-8.7556	-6.0009	 3.2337	-2.7672	-9.2347	-5.9511	 3.5691	-2.3820	-9.5201	57.1777	99.9742	
   232	-5.2970	 3.0409	-2.2560	-8.3380	-5.2590	 3.2673	-1.9917	-8.5264	-5.3644	 3.5810	-1.7834	-8.9452	57.9912	99.9691	
   233	-5.1950	 3.0374	-2.1575	-8.2325	-5.1579	 3.2593	-1.8986	-8.4173	-5.2762	 3.5608	-1.7154	-8.8369	58.0845	99.9681	
   234	-5.2284	 3.0497	-2.1785	-8.2781	-5.1345	 3.2873	-1.8473	-8.4219	-5.2177	 3.5840	-1.6337	-8.8015	58.2543	99.9669	
   235	-5.2097	 3.0770	-2.1326	-8.2868	-5.0894	 3.3145	-1.7749	-8.4040	-5.1782	 3.6078	-1.5704	-8.7860	58.3096	99.9657	
   236	-5.0813	 3.0894	-1.9918	-8.1707	-4.9290	 3.3285	-1.6005	-8.2576	-5.0059	 3.6141	-1.3918	-8.6199	58.5184	99.9648	
   237	-4.9871	 3.0973	-1.8897	-8.0845	-4.8831	 3.3702	-1.5129	-8.2533	-4.9217	 3.6405	-1.2812	-8.5621	58.4806	99.9655	
   238	-4.9195	 3.0894	-1.8299	-8.0089	-4.8263	 3.3492	-1.4771	-8.1755	-4.8914	 3.6098	-1.2816	-8.5011	58.5155	99.9647	
   239	-4.9028	 3.0833	-1.8194	-7.9861	-4.7970	 3.3530	-1.4440	-8.1501	-4.8658	 3.6131	-1.2527	-8.4787	58.5212	99.9637	
   240	-4.8949	 3.0719	-1.8230	-7.9668	-4.7678	 3.3569	-1.4109	-8.1247	-4.8020	 3.6149	-1.1870	-8.4168	58.6335	99.9637	
   241	-4.7694	 3.0340	-1.7353	-7.8035	-4.6374	 3.3527	-1.2847	-7.9902	-4.6309	 3.5959	-1.0351	-8.2267	58.7969	99.9630	
   242	-4.7381	 2.9883	-1.7497	-7.7264	-4.5681	 3.2978	-1.2703	-7.8659	-4.5638	 3.5384	-1.0254	-8.1021	58.9892	99.9619	
   243	-4.7587	 2.9276	-1.8310	-7.6862	-4.5923	 3.2555	-1.3368	-7.8478	-4.6039	 3.5019	-1.1020	-8.1057	58.8917	99.9608	
   244	-4.7793	 2.8668	-1.9124	-7.6461	-4.6240	 3.2086	-1.4154	-7.8327	-4.6256	 3.4520	-1.1736	-8.0775	58.8890	99.9608	
   245	-4.7822	 2.8166	-1.9655	-7.5989	-4.6182	 3.1845	-1.4337	-7.8027	-4.6072	 3.4386	-1.1686	-8.0457	58.8538	99.9606	
   246	-4.7165	 2.7753	-1.9411	-7.4918	-4.5337	 3.1387	-1.3951	-7.6725	-4.5013	 3.3924	-1.1089	-7.8936	59.0510	99.9612	
   247	-4.7028	 2.7190	-1.9837	-7.4218	-4.5153	 3.0806	-1.4347	-7.5960	-4.5164	 3.3465	-1.1699	-7.8628	58.9971	99.9603	
   248	-4.7313	 2.6697	-2.0615	-7.4009	-4.5680	 3.0488	-1.5192	-7.6168	-4.5815	 3.3193	-1.2622	-7.9007	58.8484	99.9600	
   249	-4.7675	 2.6318	-2.1356	-7.3994	-4.5914	 3.0208	-1.5706	-7.6122	-4.6144	 3.2994	-1.3149	-7.9137	58.8023	99.9592	
   250	-4.7440	 2.5975	-2.1464	-7.3415	-4.5638	 2.9960	-1.5678	-7.5598	-4.5644	 3.2807	-1.2837	-7.8449	58.8592	99.9601	
   251	-4.6773	 2.5729	-2.1044	-7.2502	-4.5003	 2.9652	-1.5351	-7.4655	-4.4959	 3.2485	-1.2474	-7.7444	58.9538	99.9606	
   252	-4.6626	 2.5333	-2.1293	-7.1959	-4.5086	 2.9463	-1.5623	-7.4550	-4.5032	 3.2319	-1.2713	-7.7350	58.8592	99.9606	
   253	-4.6646	 2.4998	-2.1647	-7.1644	-4.5094	 2.9320	-1.5775	-7.4415	-4.5104	 3.2153	-1.2952	-7.7256	58.8132	99.9592	
   254	-4.6823	 2.4893	-2.1929	-7.1715	-4.5245	 2.9229	-1.6016	-7.4474	-4.4920	 3.2019	-1.2901	-7.6938	58.9132	99.9603	
   255	-4.6156	 2.4646	-2.1508	-7.0802	-4.4167	 2.9050	-1.5117	-7.3218	-4.3216	 3.1702	-1.1514	-7.4917	59.2654	99.9606	
   256	-4.5244	 2.4224	-2.1019	-6.9468	-4.3457	 2.8788	-1.4669	-7.2245	-4.2525	 3.1507	-1.1018	-7.4031	59.2222	99.9609	
   257	-4.5263	 2.3890	-2.1373	-6.9153	-4.3398	 2.8547	-1.4851	-7.1945	-4.2473	 3.1294	-1.1179	-7.3765	59.2247	99.9604	
   258	-4.4567	 2.4145	-2.0421	-6.8713	-4.2588	 2.8760	-1.3828	-7.1348	-4.1440	 3.1551	-0.9889	-7.2990	59.3312	99.9615	
   259	-4.3675	 2.4841	-1.8833	-6.8516	-4.1259	 2.9148	-1.2111	-7.0408	-4.0078	 3.2007	-0.8071	-7.2085	59.5308	99.9623	
   260	-4.1654	 2.5889	-1.5764	-6.7543	-3.8611	 2.9781	-0.8830	-6.8393	-3.7441	 3.2500	-0.4940	-6.9940	59.9179	99.9614	
   261	-3.9683	 2.6101	-1.3581	-6.5784	-3.6506	 2.9810	-0.6696	-6.6316	-3.6092	 3.2703	-0.3389	-6.8795	59.8702	99.9596	
   262	-3.9448	 2.5758	-1.3689	-6.5205	-3.6305	 2.9516	-0.6789	-6.5822	-3.6105	 3.2450	-0.3655	-6.8555	59.8202	99.9587	
   263	-3.9732	 2.5265	-1.4467	-6.4997	-3.6622	 2.9047	-0.7575	-6.5670	-3.6454	 3.1872	-0.4582	-6.8325	59.8587	99.9578	
   264	-4.0282	 2.4613	-1.5667	-6.4895	-3.7449	 2.8547	-0.8902	-6.5997	-3.6921	 3.1467	-0.5454	-6.8386	59.8132	99.9603	
   265	-3.9781	 2.4428	-1.5352	-6.4210	-3.6739	 2.8285	-0.8454	-6.5024	-3.6355	 3.1319	-0.5036	-6.7673	59.8633	99.9601	
   266	-3.9978	 2.3988	-1.5988	-6.3966	-3.7399	 2.8162	-0.9237	-6.5562	-3.6940	 3.1087	-0.5853	-6.8026	59.7176	99.9597	
   267	-4.0233	 2.3997	-1.6235	-6.4230	-3.7324	 2.8208	-0.9116	-6.5532	-3.6868	 3.1253	-0.5615	-6.8120	59.7270	99.9592	
   268	-3.9889	 2.4041	-1.5847	-6.3931	-3.6889	 2.8194	-0.8696	-6.5084	-3.6552	 3.1199	-0.5353	-6.7751	59.7724	99.9584	
   269	-4.0007	 2.3487	-1.6520	-6.3494	-3.7516	 2.7400	-1.0116	-6.4916	-3.7446	 2.9923	-0.7524	-6.7368	59.8742	99.9566	
   270	-4.3764	 2.0431	-2.3331	-6.4195	-4.3103	 2.2360	-2.0743	-6.5464	-4.6153	 2.2937	-2.3216	-6.9090	60.0651	99.9420	
   271	-6.1996	 1.3067	-4.8928	-7.5063	-6.6771	 1.9530	-4.7242	-8.6302	-6.9283	 2.5364	-4.3918	-9.4646	54.5838	99.9754	
   272	-6.3760	 1.6367	-4.7392	-8.0128	-6.3372	 2.3108	-4.0265	-8.6481	-6.3054	 2.8766	-3.4288	-9.1819	56.3525	99.9703	
   273	-6.1220	 1.9017	-4.2202	-8.0237	-6.0641	 2.5175	-3.5467	-8.5816	-6.1049	 3.0593	-3.0456	-9.1640	56.4453	99.9680	
   274	-6.1376	 2.0698	-4.0677	-8.2075	-6.0458	 2.5839	-3.4619	-8.6297	-6.0911	 3.0799	-3.0112	-9.1709	56.8923	99.9684	
   275	-5.9739	 2.1033	-3.8704	-8.0772	-5.8720	 2.5783	-3.2937	-8.4504	-5.8332	 3.0153	-2.8179	-8.8484	57.5695	99.9697	
   276	-5.3816	 1.8932	-3.4883	-7.2748	-5.2853	 2.1859	-3.0994	-7.4713	-5.2061	 2.4510	-2.7551	-7.6570	59.4963	99.9692	
   277	-4.8099	 1.6223	-3.1875	-6.4322	-4.8666	 1.8995	-2.9671	-6.7662	-4.8192	 2.1703	-2.6489	-6.9894	59.6586	99.9733	
   278	-4.3499	 1.7685	-2.5813	-6.1185	-4.2584	 2.0045	-2.2540	-6.2630	-4.3016	 2.3243	-1.9773	-6.6257	59.9448	99.9703	
   279	-4.0037	 1.8628	-2.1408	-5.8666	-3.9852	 2.0867	-1.8986	-6.0720	-4.0260	 2.3562	-1.6697	-6.3821	60.1286	99.9701	
   280	-3.8439	 1.9746	-1.8691	-5.8185	-3.8023	 2.2388	-1.5635	-6.0412	-3.7208	 2.4674	-1.2534	-6.1881	60.5012	99.9704	
   281	-3.7193	 1.9201	-1.7991	-5.6395	-3.7279	 2.1454	-1.5825	-5.8734	-3.7359	 2.2989	-1.4369	-6.0347	60.6892	99.9653	
   282	-4.1166	 1.3919	-2.7246	-5.5085	-4.1639	 1.6327	-2.5312	-5.7966	-4.3981	 1.9349	-2.4633	-6.3329	59.6215	99.9650	
   283	-5.2228	 1.2621	-3.9606	-6.4850	-5.4840	 1.8859	-3.5982	-7.3700	-5.5580	 2.4219	-3.1361	-7.9798	56.6352	99.9749	
   284	-5.4425	 1.4372	-4.0051	-6.8797	-5.4064	 2.0989	-3.3076	-7.5053	-5.3015	 2.5771	-2.7244	-7.8785	57.6760	99.9690	
   285	-5.1551	 1.8352	-3.3198	-6.9902	-4.9245	 2.4042	-2.5203	-7.3287	-4.8629	 2.9284	-1.9345	-7.7912	58.0825	99.9685	
   286	-4.9579	 2.0016	-2.9562	-6.9595	-4.6647	 2.5060	-2.1587	-7.1707	-4.6636	 2.9632	-1.7004	-7.6267	58.5364	99.9628	
   287	-5.1070	 1.9285	-3.1784	-7.0355	-4.9896	 2.4063	-2.5833	-7.3960	-5.0319	 2.8629	-2.1691	-7.8947	58.0329	99.9673	
   288	-5.4022	 1.8324	-3.5697	-7.2346	-5.4575	 2.3447	-3.1128	-7.8023	-5.4128	 2.7672	-2.6456	-8.1799	57.6962	99.9721	
   289	-5.1648	 1.9584	-3.2064	-7.1232	-5.0247	 2.4266	-2.5982	-7.4514	-4.9846	 2.9160	-2.0686	-7.9005	58.1609	99.9722	
   290	-4.8187	 1.9074	-2.9111	-6.7261	-4.6620	 2.1755	-2.4866	-6.8376	-4.6740	 2.5156	-2.1583	-7.1895	59.5826	99.9694	
   291	-4.0930	 1.6480	-2.4449	-5.7411	-3.9250	 1.8740	-2.0510	-5.7991	-3.8240	 2.1966	-1.6274	-6.0204	60.7923	99.9744	
   292	-3.4683	 1.6993	-1.7690	-5.1676	-3.4204	 1.9440	-1.4764	-5.3645	-3.3582	 2.2087	-1.1495	-5.5669	60.8805	99.9724	
   293	-3.1829	 1.7733	-1.4095	-4.9563	-3.1623	 2.0171	-1.1452	-5.1794	-3.1261	 2.2635	-0.8626	-5.3894	60.9305	99.9712	
   294	-3.0888	 1.7813	-1.3074	-4.8701	-3.1046	 2.0105	-1.0941	-5.1151	-3.1083	 2.2374	-0.8708	-5.3456	60.9149	99.9702	
   295	-3.1339	 1.7381	-1.3957	-4.8721	-3.1597	 1.9356	-1.2241	-5.0954	-3.1517	 2.1376	-1.0140	-5.2892	61.1347	99.9708	
   296	-3.1888	 1.6730	-1.5158	-4.8618	-3.2349	 1.8901	-1.3448	-5.1251	-3.1859	 2.0924	-1.0934	-5.2782	61.1366	99.9721	
   297	-3.1535	 1.6941	-1.4593	-4.8477	-3.1472	 1.9017	-1.2455	-5.0489	-3.0964	 2.0975	-0.9989	-5.1938	61.3327	99.9708	
   298	-3.0368	 1.6510	-1.3857	-4.6879	-3.0979	 1.8762	-1.2217	-4.9741	-3.0734	 2.0502	-1.0232	-5.1235	61.2255	99.9696	
   299	-3.1084	 1.5920	-1.5163	-4.7005	-3.1480	 1.7629	-1.3851	-4.9109	-3.1279	 1.9804	-1.1475	-5.1082	61.3145	99.9735	
   300	-3.2046	 1.5506	-1.6538	-4.7552	-3.2298	 1.7272	-1.5027	-4.9571	-3.2437	 1.9594	-1.2843	-5.2030	61.1679	99.9724	
   301	-3.2399	 1.5295	-1.7103	-4.7694	-3.2816	 1.7097	-1.5719	-4.9914	-3.2759	 1.9521	-1.3238	-5.2279	61.1214	99.9740	
   302	-3.2212	 1.5568	-1.6644	-4.7780	-3.2432	 1.7468	-1.4964	-4.9900	-3.1865	 1.9572	-1.2292	-5.1436	61.3663	99.9733	
   303	-3.1104	 1.5586	-1.5517	-4.6690	-3.1555	 1.7583	-1.3972	-4.9139	-3.1345	 1.9764	-1.1581	-5.1108	61.2236	99.9726	
   304	-3.1438	 1.5709	-1.5728	-4.7147	-3.2048	 1.7838	-1.4210	-4.9887	-3.1786	 1.9865	-1.1921	-5.1650	61.1735	99.9718	
   305	-3.2026	 1.5841	-1.6184	-4.7867	-3.2691	 1.8003	-1.4689	-5.0695	-3.2602	 2.0107	-1.2495	-5.2708	61.0286	99.9716	
   306	-3.2859	 1.6148	-1.6710	-4.9008	-3.3335	 1.8167	-1.5168	-5.1502	-3.3292	 2.0302	-1.2991	-5.3593	61.0266	99.9716	
   307	-3.2938	 1.6263	-1.6674	-4.9201	-3.3184	 1.8258	-1.4926	-5.1443	-3.2904	 2.0414	-1.2490	-5.3317	61.1290	99.9721	
   308	-3.1996	 1.6342	-1.5653	-4.8339	-3.2591	 1.8478	-1.4113	-5.1070	-3.2260	 2.0559	-1.1701	-5.2818	61.0826	99.9723	
   309	-3.2075	 1.6457	-1.5617	-4.8532	-3.2859	 1.8870	-1.3989	-5.1729	-3.2622	 2.0953	-1.1669	-5.3573	60.8952	99.9713	
   310	-3.2487	 1.6694	-1.5791	-4.9181	-3.3143	 1.8975	-1.4168	-5.2118	-3.3062	 2.1054	-1.2009	-5.4115	60.8912	99.9709	
   311	-3.3153	 1.6940	-1.6212	-5.0094	-3.3778	 1.9283	-1.4495	-5.3061	-3.3806	 2.1462	-1.2344	-5.5267	60.7500	99.9707	
   312	-3.3134	 1.7275	-1.5858	-5.0409	-3.3544	 1.9562	-1.3982	-5.3107	-3.3345	 2.1741	-1.1605	-5.5085	60.8528	99.9712	
   313	-3.2104	 1.7407	-1.4696	-4.9512	-3.2876	 1.9828	-1.3047	-5.2705	-3.2767	 2.1846	-1.0921	-5.4611	60.8024	99.9704	
   314	-3.1937	 1.7346	-1.4591	-4.9283	-3.2951	 1.9783	-1.3168	-5.2734	-3.3207	 2.1947	-1.1261	-5.5153	60.6065	99.9704	
   315	-3.3036	 1.7495	-1.5540	-5.0531	-3.3962	 1.9863	-1.4099	-5.3826	-3.3918	 2.1762	-1.2156	-5.5679	60.7439	99.9701	
   316	-3.3899	 1.7301	-1.6597	-5.1200	-3.4630	 1.9597	-1.5033	-5.4228	-3.4872	 2.1798	-1.3074	-5.6668	60.6003	99.9704	
   317	-3.4252	 1.7090	-1.7161	-5.1342	-3.4864	 1.9318	-1.5546	-5.4182	-3.5003	 2.1718	-1.3285	-5.6720	60.6045	99.9719	
   318	-3.3399	 1.7116	-1.6281	-5.0515	-3.3912	 1.9478	-1.4433	-5.3391	-3.3786	 2.1841	-1.1945	-5.5627	60.7117	99.9719	
   319	-3.2614	 1.7425	-1.5188	-5.0039	-3.3444	 2.0038	-1.3406	-5.3483	-3.3313	 2.2373	-1.0940	-5.5685	60.5748	99.9717	
   320	-3.2428	 1.7698	-1.4729	-5.0125	-3.3285	 2.0272	-1.3013	-5.3558	-3.3293	 2.2753	-1.0540	-5.6045	60.4821	99.9722	
   321	-3.2839	 1.7935	-1.4903	-5.0775	-3.3645	 2.0332	-1.3313	-5.3977	-3.3747	 2.2601	-1.1146	-5.6347	60.5664	99.9712	
   322	-3.3781	 1.7856	-1.5924	-5.1637	-3.4371	 2.0307	-1.4064	-5.4680	-3.4254	 2.2662	-1.1592	-5.6914	60.5727	99.9717	
   323	-3.3281	 1.7671	-1.5609	-5.0952	-3.4012	 2.0248	-1.3764	-5.4261	-3.3681	 2.2640	-1.1041	-5.6321	60.5790	99.9726	
   324	-3.2516	 1.7645	-1.4870	-5.0161	-3.3218	 2.0174	-1.3044	-5.3394	-3.3168	 2.2706	-1.0462	-5.5873	60.5327	99.9725	
   325	-3.2594	 1.7759	-1.4834	-5.0354	-3.3352	 2.0370	-1.2982	-5.3723	-3.3102	 2.2746	-1.0357	-5.5847	60.5810	99.9722	
   326	-3.2673	 1.7874	-1.4798	-5.0547	-3.3352	 2.0370	-1.2982	-5.3723	-3.3227	 2.2793	-1.0435	-5.6019	60.5790	99.9722	
   327	-3.2761	 1.7821	-1.4939	-5.0582	-3.3645	 2.0332	-1.3313	-5.3977	-3.3550	 2.2720	-1.0830	-5.6269	60.5263	99.9724	
   328	-3.2839	 1.7935	-1.4903	-5.0775	-3.3427	 2.0325	-1.3102	-5.3753	-3.2925	 2.2485	-1.0439	-5.5409	60.8145	99.9724	
   329	-3.1761	 1.7451	-1.4308	-4.9212	-3.2508	 1.9912	-1.2596	-5.2421	-3.2241	 2.2164	-1.0076	-5.4404	60.7662	99.9721	
   330	-3.1594	 1.7390	-1.4203	-4.8984	-3.2508	 1.9912	-1.2596	-5.2421	-3.2300	 2.2251	-1.0049	-5.4550	60.6716	99.9726	
   331	-3.1506	 1.7443	-1.4062	-4.8949	-3.2366	 1.9860	-1.2506	-5.2227	-3.2116	 2.2117	-0.9998	-5.4232	60.7642	99.9726	
   332	-3.1584	 1.7557	-1.4026	-4.9142	-3.2433	 1.9958	-1.2475	-5.2391	-3.2168	 2.2330	-0.9838	-5.4498	60.7199	99.9733	
   333	-3.1064	 1.7707	-1.3357	-4.8772	-3.1698	 2.0126	-1.1572	-5.1824	-3.1267	 2.2508	-0.8759	-5.3774	60.8245	99.9734	
   334	-3.0123	 1.7786	-1.2336	-4.7910	-3.0394	 2.0084	-1.0311	-5.0479	-3.0122	 2.2465	-0.7657	-5.2587	60.9708	99.9723	
   335	-2.9721	 1.7382	-1.2338	-4.7103	-3.0344	 1.9699	-1.0645	-5.0044	-3.0333	 2.2093	-0.8240	-5.2425	60.8667	99.9723	
   336	-3.0153	 1.7285	-1.2867	-4.7437	-3.0787	 1.9570	-1.1217	-5.0357	-3.0287	 2.1753	-0.8534	-5.2039	61.0555	99.9731	
   337	-3.0084	 1.7003	-1.3080	-4.7087	-3.0728	 1.9328	-1.1400	-5.0057	-3.0293	 2.1627	-0.8667	-5.1919	61.0093	99.9734	
   338	-3.0260	 1.6897	-1.3362	-4.7158	-3.0946	 1.9335	-1.1610	-5.0282	-3.0168	 2.1580	-0.8589	-5.1747	61.0612	99.9740	
   339	-2.9241	 1.6863	-1.2377	-4.6103	-2.9291	 1.9090	-1.0201	-4.8382	-2.8826	 2.1656	-0.7170	-5.0482	61.1666	99.9738	
   340	-2.8309	 1.6775	-1.1533	-4.5084	-2.8431	 1.8919	-0.9511	-4.7350	-2.8142	 2.1335	-0.6807	-4.9476	61.2550	99.9728	
   341	-2.8407	 1.6555	-1.1851	-4.4962	-2.8589	 1.8685	-0.9904	-4.7275	-2.8352	 2.0962	-0.7390	-4.9314	61.2956	99.9721	
   342	-2.8339	 1.6273	-1.2064	-4.4612	-2.8673	 1.8496	-1.0177	-4.7169	-2.8306	 2.0623	-0.7684	-4.8928	61.3399	99.9718	
   343	-2.8339	 1.6273	-1.2064	-4.4612	-2.8389	 1.8391	-0.9998	-4.6780	-2.8056	 2.0529	-0.7527	-4.8584	61.4358	99.9714	
   344	-2.7485	 1.6300	-1.1184	-4.3785	-2.7236	 1.8258	-0.8977	-4.5494	-2.7043	 2.0406	-0.6637	-4.7449	61.5793	99.9707	
   345	-2.6495	 1.5763	-1.0731	-4.2258	-2.6617	 1.7664	-0.8953	-4.4281	-2.6569	 1.9713	-0.6857	-4.6281	61.6168	99.9709	
   346	-2.6515	 1.5429	-1.1085	-4.1944	-2.6784	 1.7286	-0.9498	-4.4071	-2.6780	 1.9340	-0.7440	-4.6119	61.6117	99.9713	
   347	-2.6603	 1.5376	-1.1226	-4.1979	-2.7001	 1.7293	-0.9708	-4.4295	-2.6859	 1.9047	-0.7811	-4.5905	61.7008	99.9702	
   348	-2.6701	 1.5156	-1.1544	-4.1857	-2.7093	 1.6961	-1.0132	-4.4054	-2.7010	 1.8588	-0.8422	-4.5597	61.7884	99.9697	
   349	-2.6985	 1.4663	-1.2322	-4.1649	-2.7485	 1.6447	-1.1039	-4.3933	-2.7279	 1.8302	-0.8977	-4.5581	61.7421	99.9719	
   350	-2.6662	 1.4373	-1.2288	-4.1035	-2.6917	 1.6237	-1.0681	-4.3155	-2.6661	 1.7941	-0.8720	-4.4601	61.8858	99.9702	
   351	-2.6858	 1.3932	-1.2925	-4.0791	-2.7318	 1.5579	-1.1739	-4.2898	-2.7700	 1.7557	-1.0143	-4.5257	61.6840	99.9707	
   352	-2.7976	 1.3747	-1.4228	-4.1724	-2.8488	 1.5425	-1.3062	-4.3914	-2.8726	 1.7427	-1.1299	-4.6152	61.6341	99.9714	
   353	-2.9026	 1.3280	-1.5744	-4.2306	-2.9524	 1.5076	-1.4448	-4.4600	-2.9575	 1.7036	-1.2539	-4.6609	61.6324	99.9713	
   354	-3.0575	 1.2998	-1.7576	-4.3573	-3.0835	 1.4974	-1.5861	-4.5810	-3.0667	 1.6865	-1.3801	-4.7531	61.6341	99.9703	
   355	-3.0222	 1.3210	-1.7011	-4.3432	-3.0242	 1.5194	-1.5048	-4.5437	-2.9943	 1.7303	-1.2640	-4.7245	61.6461	99.9714	
   356	-2.9359	 1.3404	-1.5954	-4.2763	-2.9582	 1.5317	-1.4265	-4.4900	-2.9608	 1.7629	-1.1979	-4.7235	61.5036	99.9722	
   357	-2.8996	 1.3782	-1.5213	-4.2778	-2.9265	 1.5785	-1.3479	-4.5051	-2.9022	 1.7860	-1.1162	-4.6882	61.6015	99.9717	
   358	-2.9143	 1.4178	-1.4964	-4.3321	-2.9465	 1.6079	-1.3386	-4.5545	-2.9582	 1.8135	-1.1447	-4.7715	61.5001	99.9707	
   359	-3.0398	 1.3104	-1.7294	-4.3503	-3.0701	 1.4778	-1.5923	-4.5480	-3.1206	 1.6294	-1.4912	-4.7499	61.7068	99.9667	
   360	-3.4812	 0.9010	-2.5802	-4.3822	-3.6340	 1.1368	-2.4972	-4.7708	-3.8743	 1.3448	-2.5295	-5.2190	60.5410	99.9623	
   361	-4.1952	 0.7802	-3.4149	-4.9754	-4.3575	 1.1697	-3.1879	-5.5272	-4.5335	 1.4117	-3.1218	-5.9451	59.6364	99.9603	
   362	-4.6590	 0.8575	-3.8015	-5.5165	-4.7995	 1.3036	-3.4960	-6.1032	-5.0525	 1.6001	-3.4524	-6.6525	58.7114	99.9567	
   363	-4.9287	 0.9058	-4.0228	-5.8345	-4.9992	 1.3627	-3.6366	-6.3620	-5.2203	 1.6824	-3.5379	-6.9026	58.6366	99.9569	
   364	-5.0317	 0.8925	-4.1390	-5.9242	-4.9541	 1.3900	-3.5642	-6.3442	-4.9802	 1.7664	-3.2138	-6.7466	59.1255	99.9632	
   365	-5.0876	 0.8107	-4.2768	-5.8983	-4.8480	 1.3434	-3.5046	-6.1915	-4.7217	 1.7145	-3.0072	-6.4361	59.8573	99.9629	
   366	-5.0954	 0.8221	-4.2732	-5.9176	-4.7077	 1.3868	-3.3208	-6.0946	-4.4645	 1.7599	-2.7047	-6.2243	60.3854	99.9622	
   367	-4.7904	 0.9402	-3.8502	-5.7306	-4.5272	 1.4959	-3.0313	-6.0233	-4.4599	 1.8484	-2.6115	-6.3083	59.8276	99.9573	
   368	-4.7482	 0.9331	-3.8150	-5.6814	-4.5924	 1.4980	-3.0944	-6.0905	-4.5310	 1.8299	-2.7010	-6.3608	59.6145	99.9586	
   369	-4.7306	 0.9437	-3.7868	-5.6743	-4.4688	 1.5036	-2.9651	-5.9725	-4.3448	 1.8568	-2.4880	-6.2015	59.9840	99.9599	
   370	-4.6433	 0.9798	-3.6634	-5.6231	-4.3301	 1.5183	-2.8117	-5.8485	-4.3238	 1.8941	-2.4297	-6.2177	59.8370	99.9552	
   371	-4.4815	 0.9799	-3.5015	-5.4614	-4.2833	 1.4498	-2.8335	-5.7331	-4.4382	 1.7758	-2.6624	-6.2139	59.6633	99.9509	
   372	-4.4894	 0.8461	-3.6432	-5.3355	-4.4487	 1.3498	-3.0989	-5.7985	-4.6474	 1.6737	-2.9736	-6.3210	59.1405	99.9523	
   373	-4.6129	 0.7721	-3.8407	-5.3851	-4.5631	 1.2529	-3.3102	-5.8160	-4.6829	 1.6032	-3.0797	-6.2860	59.3409	99.9589	
   374	-4.8062	 0.6726	-4.1335	-5.4788	-4.7193	 1.1861	-3.5332	-5.9054	-4.6993	 1.5320	-3.1673	-6.2311	59.6560	99.9622	
   375	-4.9788	 0.6338	-4.3449	-5.6126	-4.8296	 1.1609	-3.6687	-5.9905	-4.6993	 1.5320	-3.1673	-6.2311	59.8800	99.9661	
   376	-4.9709	 0.7676	-4.2032	-5.7385	-4.8213	 1.3043	-3.5170	-6.1256	-4.6836	 1.7131	-2.9705	-6.3965	59.6194	99.9683	
   377	-4.7110	 0.9877	-3.7232	-5.6987	-4.6117	 1.5418	-3.0699	-6.1535	-4.4619	 1.9330	-2.5289	-6.3949	59.4982	99.9685	
   378	-4.4393	 1.1181	-3.3211	-5.5574	-4.1037	 1.6691	-2.4346	-5.7729	-3.8858	 2.1101	-1.7757	-5.9958	60.1535	99.9679	
   379	-3.7744	 1.4193	-2.3550	-5.1937	-3.4195	 1.8338	-1.5857	-5.2534	-3.1951	 2.1604	-1.0347	-5.3554	61.2561	99.9668	
   380	-4.1010	 1.2238	-2.8771	-5.3248	-3.9517	 1.6642	-2.2875	-5.6159	-3.9969	 2.0551	-1.9418	-6.0519	59.7213	99.9640	
   381	-4.6335	 1.1470	-3.4863	-5.7805	-4.5607	 1.6694	-2.8913	-6.2302	-4.4567	 2.0342	-2.4225	-6.4909	59.4347	99.9672	
   382	-4.7541	 0.9780	-3.7760	-5.7322	-4.5908	 1.5267	-3.0640	-6.1175	-4.3810	 1.8962	-2.4848	-6.2771	59.8899	99.9681	
   383	-4.7747	 0.9173	-3.8574	-5.6920	-4.5364	 1.4627	-3.0737	-5.9992	-4.3067	 1.8554	-2.4513	-6.1620	60.0960	99.9683	
   384	-4.7414	 0.9050	-3.8363	-5.6464	-4.5506	 1.4680	-3.0827	-6.0187	-4.3442	 1.8695	-2.4747	-6.2135	59.8557	99.9685	
   385	-4.7571	 0.9278	-3.8291	-5.6849	-4.5557	 1.5064	-3.0492	-6.0622	-4.3297	 1.9027	-2.4270	-6.2323	59.8650	99.9680	
   386	-4.7316	 0.9270	-3.8045	-5.6586	-4.4763	 1.4991	-2.9772	-5.9755	-4.2534	 1.8999	-2.3535	-6.1532	60.0158	99.9669	
   387	-4.6816	 0.9085	-3.7730	-5.5901	-4.3342	 1.4466	-2.8876	-5.7809	-4.1284	 1.8529	-2.2755	-5.9813	60.3504	99.9653	
   388	-4.5306	 0.8698	-3.6606	-5.4004	-4.1913	 1.4085	-2.7828	-5.5999	-4.0034	 1.8060	-2.1974	-5.8093	60.4415	99.9643	
   389	-4.4796	 0.8681	-3.6114	-5.3477	-4.1621	 1.4124	-2.7497	-5.5746	-4.0087	 1.8274	-2.1813	-5.8359	60.2528	99.9643	
   390	-4.4619	 0.8787	-3.5831	-5.3406	-4.1604	 1.4411	-2.7194	-5.6016	-3.9824	 1.8433	-2.1391	-5.8255	60.2571	99.9642	
   391	-4.4511	 0.9174	-3.5336	-5.3685	-4.1087	 1.4585	-2.6501	-5.5673	-3.9488	 1.8758	-2.0730	-5.8246	60.3092	99.9641	
   392	-4.4158	 0.9385	-3.4772	-5.3543	-4.0644	 1.4715	-2.5929	-5.5359	-3.9107	 1.8744	-2.0363	-5.7850	60.4002	99.9631	
   393	-4.3893	 0.9544	-3.4348	-5.3437	-4.0485	 1.4949	-2.5536	-5.5435	-3.8778	 1.8943	-1.9835	-5.7720	60.4044	99.9636	
   394	-4.3373	 0.9693	-3.3679	-5.3067	-3.9541	 1.4967	-2.4574	-5.4508	-3.7936	 1.9207	-1.8729	-5.7143	60.4625	99.9640	
   395	-4.2334	 0.9993	-3.2340	-5.2327	-3.8714	 1.5467	-2.3247	-5.4182	-3.6963	 1.9551	-1.7411	-5.6513	60.4687	99.9635	
   396	-4.2059	 1.0319	-3.1739	-5.2378	-3.8271	 1.5596	-2.2675	-5.3868	-3.6640	 1.9624	-1.7017	-5.6263	60.5594	99.9630	
   397	-4.1892	 1.0257	-3.1634	-5.2150	-3.8263	 1.5740	-2.2523	-5.4003	-3.6575	 1.9664	-1.6911	-5.6237	60.5141	99.9621	
   398	-4.1971	 1.0372	-3.1598	-5.2343	-3.8121	 1.5687	-2.2434	-5.3809	-3.6384	 1.9657	-1.6727	-5.6039	60.6088	99.9627	
   399	-4.1206	 1.0346	-3.0859	-5.1552	-3.7319	 1.5757	-2.1562	-5.3077	-3.5180	 1.9527	-1.5653	-5.4706	60.8019	99.9627	
   400	-4.0608	 1.0381	-3.0226	-5.0989	-3.6809	 1.5789	-2.1021	-5.2599	-3.4358	 1.9412	-1.4946	-5.3769	60.9433	99.9634	
   401	-4.0274	 1.0258	-3.0016	-5.0532	-3.6734	 1.5834	-2.0900	-5.2569	-3.4226	 1.9491	-1.4735	-5.3717	60.8530	99.9639	
   402	-3.9911	 1.0636	-2.9274	-5.0548	-3.6358	 1.6061	-2.0297	-5.2420	-3.3713	 1.9557	-1.4156	-5.3269	60.9904	99.9641	
   403	-3.9647	 1.0795	-2.8851	-5.0442	-3.6208	 1.6152	-2.0055	-5.2361	-3.3707	 1.9683	-1.4023	-5.3389	60.9414	99.9644	
   404	-3.9029	 1.1165	-2.7863	-5.0194	-3.5398	 1.6366	-1.9032	-5.1764	-3.2490	 1.9807	-1.2683	-5.2296	61.1802	99.9657	
   405	-3.7685	 1.2292	-2.5392	-4.9977	-3.2975	 1.6863	-1.6112	-4.9838	-2.9549	 1.9993	-0.9556	-4.9541	61.8821	99.9656	
   406	-3.2850	 1.1959	-2.0890	-4.4810	-3.0209	 1.5768	-1.4441	-4.5978	-2.9404	 1.9100	-1.0304	-4.8503	61.2691	99.9654	
   407	-3.4517	 1.2574	-2.1942	-4.7092	-3.1964	 1.6782	-1.5182	-4.8747	-3.1115	 2.0516	-1.0599	-5.1630	60.8179	99.9665	
   408	-3.7303	 1.1553	-2.5749	-4.8855	-3.4980	 1.6065	-1.8915	-5.1045	-3.4601	 1.9632	-1.4969	-5.4232	60.5119	99.9626	
   409	-3.9676	 1.0293	-2.9382	-4.9970	-3.7151	 1.4890	-2.2262	-5.2042	-3.7028	 1.8286	-1.8742	-5.5313	60.4910	99.9591	
   410	-4.1059	 0.8497	-3.2561	-4.9557	-3.7435	 1.2505	-2.4930	-4.9940	-3.6218	 1.5467	-2.0751	-5.1684	61.4709	99.9605	
   411	-4.0452	 0.5795	-3.4655	-4.6247	-3.6188	 0.8969	-2.7219	-4.5158	-3.4888	 1.1614	-2.3274	-4.6501	62.3354	99.9606	
   412	-4.0531	 0.3005	-3.7524	-4.3536	-3.5987	 0.7430	-2.8557	-4.3418	-3.3927	 1.0479	-2.3448	-4.4405	62.2242	99.9600	
   413	-3.9197	 0.3965	-3.5231	-4.3162	-3.4500	 0.8053	-2.6448	-4.2554	-3.3546	 1.1691	-2.1855	-4.5235	61.9004	99.9599	
   414	-3.6225	 0.5260	-3.0964	-4.1485	-3.2153	 0.9749	-2.2404	-4.1903	-3.0171	 1.1649	-1.8522	-4.1819	62.5461	99.9530	
   415	-3.6431	 0.4652	-3.1778	-4.1084	-3.3013	 0.8675	-2.4338	-4.1689	-3.2039	 1.1254	-2.0785	-4.3292	62.1090	99.9574	
   416	-3.8039	 0.4819	-3.3219	-4.2859	-3.3933	 0.9088	-2.4845	-4.3021	-3.2434	 1.2241	-2.0194	-4.4674	61.9948	99.9603	
   417	-3.5254	 0.5841	-2.9412	-4.1095	-3.2070	 0.9938	-2.2132	-4.2008	-3.0744	 1.1670	-1.9073	-4.2413	62.3855	99.9536	
   418	-4.0158	 0.3551	-3.6606	-4.3709	-3.8285	 0.7839	-3.0446	-4.6125	-3.7216	 0.9715	-2.7501	-4.6929	61.7834	99.9565	
   419	-4.3306	 0.3603	-3.9702	-4.6909	-4.0073	 0.8280	-3.1793	-4.8354	-3.7880	 1.0416	-2.7465	-4.8295	61.9589	99.9572	
   420	-4.1403	 0.4096	-3.7306	-4.5500	-3.8035	 0.8406	-2.9629	-4.6441	-3.6631	 1.1172	-2.5459	-4.7802	61.7767	99.9593	
   421	-4.1089	 0.5091	-3.5997	-4.6181	-3.6907	 0.9088	-2.7819	-4.5995	-3.6013	 1.2036	-2.3977	-4.8048	61.8307	99.9570	
   422	-4.1168	 0.5205	-3.5961	-4.6373	-3.7717	 0.8874	-2.8843	-4.6592	-3.7111	 1.1739	-2.5372	-4.8849	61.7158	99.9590	
   423	-4.2325	 0.5804	-3.6520	-4.8129	-3.8277	 0.9228	-2.9050	-4.7505	-3.7532	 1.2220	-2.5313	-4.9751	61.8162	99.9597	
   424	-4.1589	 0.6728	-3.4860	-4.8317	-3.8160	 0.9990	-2.8170	-4.8151	-3.7500	 1.2852	-2.4647	-5.0351	61.7142	99.9613	
   425	-4.1550	 0.7397	-3.4152	-4.8947	-3.8320	 1.1001	-2.7319	-4.9321	-3.6947	 1.3677	-2.3271	-5.0623	61.7275	99.9624	
   426	-4.1589	 0.8180	-3.3408	-4.9769	-3.8830	 1.2214	-2.6615	-5.1045	-3.7770	 1.5018	-2.2753	-5.2787	61.2623	99.9613	
   427	-4.2059	 0.8867	-3.3192	-5.0926	-3.9332	 1.3571	-2.5760	-5.2904	-3.8738	 1.7251	-2.1487	-5.5988	60.4931	99.9619	
   428	-4.3216	 1.0917	-3.2298	-5.4133	-3.9750	 1.5117	-2.4633	-5.4868	-3.8804	 1.8437	-2.0367	-5.7240	60.8261	99.9612	
   429	-4.0294	 1.2828	-2.7465	-5.3122	-3.6701	 1.6408	-2.0293	-5.3109	-3.4930	 1.9433	-1.5497	-5.4362	61.4022	99.9655	
   430	-3.7410	 1.4070	-2.3339	-5.1480	-3.3543	 1.7072	-1.6471	-5.0616	-3.1220	 1.9717	-1.1503	-5.0936	62.0132	99.9673	
   431	-3.5812	 1.3736	-2.2075	-4.9548	-3.2858	 1.6380	-1.6478	-4.9238	-3.1713	 1.8806	-1.2907	-5.0518	61.8404	99.9653	
   432	-3.9078	 1.1781	-2.7296	-5.0859	-3.6024	 1.5572	-2.0452	-5.1596	-3.5120	 1.8215	-1.6906	-5.3334	61.2841	99.9599	
   433	-4.0039	 1.1367	-2.8671	-5.1406	-3.6467	 1.5442	-2.1024	-5.1910	-3.4792	 1.8414	-1.6378	-5.3204	61.3567	99.9626	
   434	-3.7969	 1.3251	-2.4717	-5.1221	-3.3585	 1.6355	-1.7229	-4.9941	-3.1575	 1.9012	-1.2563	-5.0586	62.0586	99.9640	
   435	-3.5360	 1.4167	-2.1192	-4.9528	-3.0995	 1.7230	-1.3765	-4.8225	-2.8615	 1.9578	-0.9037	-4.8192	62.3451	99.9641	
   436	-3.1977	 1.5225	-1.6751	-4.7202	-2.8556	 1.8013	-1.0542	-4.6570	-2.8089	 1.9896	-0.8193	-4.7984	62.0358	99.9566	
   437	-3.4135	 1.4740	-1.9394	-4.8875	-3.2081	 1.7265	-1.4816	-4.9346	-3.1680	 1.9439	-1.2242	-5.1118	61.5878	99.9638	
   438	-3.7067	 1.4114	-2.2952	-5.1181	-3.5105	 1.6404	-1.8701	-5.1510	-3.4963	 1.8801	-1.6162	-5.3762	61.3807	99.9652	
   439	-4.2912	 1.1744	-3.1167	-5.4657	-4.0527	 1.5477	-2.5050	-5.6005	-4.0146	 1.8360	-2.1786	-5.8505	60.6900	99.9613	
   440	-4.5530	 1.2113	-3.3416	-5.7644	-4.2148	 1.6296	-2.5853	-5.8445	-4.0910	 1.9614	-2.1295	-6.0523	60.6389	99.9628	
   441	-4.4569	 1.3979	-3.0589	-5.8549	-4.0035	 1.7712	-2.2323	-5.7748	-3.8292	 2.0953	-1.7339	-5.9244	61.1344	99.9631	
   442	-4.2264	 1.5520	-2.6743	-5.7785	-3.7571	 1.8926	-1.8645	-5.6497	-3.5135	 2.1638	-1.3496	-5.6772	61.6551	99.9639	
   443	-4.1146	 1.5706	-2.5440	-5.6852	-3.7278	 1.8964	-1.8314	-5.6243	-3.5970	 2.1500	-1.4470	-5.7470	61.3478	99.9609	
   444	-4.1744	 1.5670	-2.6073	-5.7415	-3.8089	 1.8751	-1.9338	-5.6840	-3.7628	 2.1478	-1.6150	-5.9105	61.0494	99.9597	
   445	-4.3912	 1.5018	-2.8893	-5.8930	-4.1556	 1.7761	-2.3795	-5.9317	-4.1837	 2.0156	-2.1681	-6.1992	60.7056	99.9597	
   446	-5.1669	 1.1988	-3.9680	-6.3658	-5.0043	 1.5257	-3.4787	-6.5300	-5.0026	 1.8264	-3.1762	-6.8290	59.9563	99.9646	
   447	-5.5877	 1.1406	-4.4470	-6.7283	-5.3795	 1.5617	-3.8178	-6.9412	-5.3605	 1.9285	-3.4320	-7.2889	59.3173	99.9638	
   448	-5.4886	 1.2321	-4.2564	-6.7208	-5.3294	 1.6750	-3.6544	-7.0044	-5.2934	 1.9936	-3.2998	-7.2870	59.3147	99.9620	
   449	-5.4268	 1.2691	-4.1576	-6.6960	-5.1581	 1.7509	-3.4073	-6.9091	-4.9383	 2.0860	-2.8522	-7.0242	59.8713	99.9661	
   450	-4.6962	 1.2386	-3.4576	-5.9348	-4.2750	 1.7177	-2.5573	-5.9928	-4.0206	 2.0898	-1.9308	-6.1103	60.6935	99.9657	
   451	-4.2608	 1.2572	-3.0035	-5.5180	-3.7111	 1.6852	-2.0259	-5.3963	-3.3246	 1.9962	-1.3284	-5.3207	61.9688	99.9661	
   452	-4.1970	 1.3276	-2.8693	-5.5247	-3.6635	 1.7555	-1.9080	-5.4190	-3.2102	 2.1145	-1.0957	-5.3246	61.8976	99.9721	
   453	-3.7028	 1.4783	-2.2244	-5.1811	-3.0703	 1.8513	-1.2190	-4.9217	-2.6189	 2.2149	-0.4039	-4.8337	62.4652	99.9720	
   454	-3.3389	 1.5831	-1.7557	-4.9221	-2.6058	 1.9801	-0.6258	-4.5859	-2.0512	 2.3501	 0.2989	-4.4012	62.9509	99.9728	
   455	-2.7563	 1.7866	-0.9696	-4.5430	-2.1848	 2.2347	 0.0499	-4.4196	-1.7342	 2.5665	 0.8322	-4.3006	62.4582	99.9691	
   456	-2.3748	 2.0473	-0.3274	-4.4221	-1.7914	 2.3896	 0.5983	-4.1811	-1.4692	 2.7636	 1.2944	-4.2327	62.4116	99.9706	
   457	-2.2228	 2.1706	-0.0521	-4.3934	-1.6427	 2.4519	 0.8092	-4.0946	-1.3403	 2.7926	 1.4523	-4.1328	62.6717	99.9705	
   458	-2.0580	 2.2208	 0.1629	-4.2788	-1.4355	 2.5218	 1.0863	-3.9574	-1.1982	 2.8296	 1.6314	-4.0277	62.7182	99.9639	
   459	-1.9904	 2.2129	 0.2226	-4.2033	-1.3946	 2.4774	 1.0829	-3.8721	-1.2206	 2.7670	 1.5465	-3.9875	62.7476	99.9624	
   460	-2.0188	 2.1636	 0.1449	-4.1824	-1.4196	 2.4208	 1.0012	-3.8404	-1.2317	 2.6745	 1.4428	-3.9061	62.9651	99.9610	
   461	-2.1081	 2.0940	-0.0139	-4.2021	-1.5616	 2.3487	 0.7871	-3.9104	-1.3264	 2.5681	 1.2417	-3.8944	63.0901	99.9626	
   462	-2.2307	 2.0368	-0.1938	-4.2675	-1.6944	 2.3099	 0.6155	-4.0044	-1.4119	 2.5164	 1.1045	-3.9282	63.1344	99.9633	
   463	-2.2748	 2.0104	-0.2643	-4.2852	-1.7470	 2.2781	 0.5310	-4.0252	-1.4329	 2.4791	 1.0462	-3.9120	63.2231	99.9648	
   464	-2.2238	 2.0086	-0.2151	-4.2324	-1.6886	 2.2858	 0.5972	-3.9744	-1.3882	 2.4817	 1.0935	-3.8698	63.2242	99.9633	
   465	-2.1640	 2.0122	-0.1517	-4.1762	-1.6317	 2.2648	 0.6330	-3.8966	-1.3823	 2.4730	 1.0907	-3.8552	63.1744	99.9630	
   466	-2.2248	 1.9919	-0.2328	-4.2167	-1.7195	 2.2532	 0.5338	-3.9728	-1.4467	 2.4585	 1.0118	-3.9052	63.1278	99.9643	
   467	-2.2591	 1.9875	-0.2715	-4.2466	-1.7571	 2.2305	 0.4734	-3.9876	-1.5119	 2.4314	 0.9195	-3.9431	63.1212	99.9637	
   468	-2.2925	 1.9998	-0.2926	-4.2923	-1.7629	 2.2546	 0.4917	-4.0176	-1.4842	 2.4726	 0.9884	-3.9568	63.1300	99.9649	
   469	-2.1522	 2.0676	-0.0845	-4.2198	-1.6293	 2.3078	 0.6785	-3.9371	-1.4001	 2.4990	 1.0990	-3.8990	63.1701	99.9619	
   470	-2.2562	 2.0377	-0.2184	-4.2938	-1.7688	 2.2788	 0.5100	-4.0476	-1.5230	 2.4614	 0.9383	-3.9843	63.1190	99.9631	
   471	-2.2670	 1.9989	-0.2679	-4.2659	-1.7571	 2.2305	 0.4734	-3.9876	-1.5250	 2.4234	 0.8984	-3.9483	63.1636	99.9629	
   472	-2.2160	 1.9972	-0.2187	-4.2132	-1.6844	 2.2330	 0.5486	-3.9174	-1.4296	 2.4199	 0.9902	-3.8494	63.3036	99.9627	
   473	-2.1738	 1.9902	-0.1835	-4.1640	-1.6777	 2.2232	 0.5455	-3.9009	-1.4619	 2.4126	 0.9508	-3.8744	63.1625	99.9623	
   474	-2.2954	 1.9496	-0.3457	-4.2450	-1.8113	 2.1700	 0.3587	-3.9814	-1.5993	 2.3417	 0.7424	-3.9409	63.1984	99.9619	
   475	-2.3552	 1.9461	-0.4090	-4.3013	-1.8548	 2.1714	 0.3166	-4.0262	-1.6125	 2.3337	 0.7213	-3.9461	63.2910	99.9619	
   476	-2.4131	 1.8308	-0.5822	-4.2439	-2.0068	 2.0518	 0.0450	-4.0586	-1.8670	 2.2164	 0.3495	-4.0833	62.9039	99.9605	
   477	-2.5985	 1.7198	-0.8786	-4.3183	-2.1906	 2.0098	-0.1808	-4.2005	-1.9999	 2.2341	 0.2342	-4.2339	62.5541	99.9634	
   478	-2.3876	 1.8299	-0.5576	-4.2175	-1.8882	 2.0958	 0.2077	-3.9841	-1.6440	 2.3391	 0.6951	-3.9831	62.9407	99.9653	
   479	-2.0953	 2.0210	-0.0742	-4.1163	-1.5306	 2.2567	 0.7261	-3.7875	-1.2632	 2.4348	 1.1716	-3.6979	63.4893	99.9617	
   480	-2.0463	 1.9858	-0.0604	-4.0321	-1.5699	 2.2053	 0.6354	-3.7753	-1.3612	 2.3877	 1.0265	-3.7488	63.2506	99.9628	
   481	-2.1483	 1.9893	-0.1589	-4.1376	-1.6710	 2.2134	 0.5424	-3.8844	-1.4309	 2.3946	 0.9636	-3.8254	63.2517	99.9639	
   482	-2.2268	 1.9585	-0.2682	-4.1852	-1.7453	 2.1822	 0.4369	-3.9276	-1.4974	 2.3421	 0.8447	-3.8394	63.3378	99.9627	
   483	-2.2562	 1.8924	-0.3637	-4.1486	-1.7779	 2.1210	 0.3431	-3.8990	-1.5243	 2.3135	 0.7892	-3.8377	63.2495	99.9649	
   484	-2.1689	 1.9285	-0.2403	-4.0975	-1.6952	 2.1710	 0.4758	-3.8663	-1.4204	 2.3519	 0.9315	-3.7722	63.2994	99.9646	
   485	-2.1336	 1.9497	-0.1838	-4.0833	-1.6576	 2.1938	 0.5362	-3.8515	-1.4132	 2.3685	 0.9554	-3.7816	63.2527	99.9628	
   486	-2.1758	 1.9567	-0.2190	-4.1325	-1.7027	 2.1665	 0.4638	-3.8693	-1.4855	 2.3248	 0.8392	-3.8102	63.3336	99.9621	
   487	-2.3376	 1.8114	-0.5261	-4.1490	-1.9199	 2.0490	 0.1291	-3.9690	-1.7381	 2.2454	 0.5074	-3.9834	62.9171	99.9634	
   488	-2.3346	 1.8616	-0.4729	-4.1963	-1.8731	 2.1049	 0.2318	-3.9782	-1.6157	 2.2705	 0.6547	-3.8861	63.2442	99.9631	
   489	-2.3729	 1.7903	-0.5825	-4.1632	-1.9274	 2.0444	 0.1170	-3.9719	-1.6874	 2.2393	 0.5519	-3.9267	63.0620	99.9642	
   490	-2.3131	 1.7938	-0.5191	-4.1069	-1.8556	 2.0325	 0.1770	-3.8882	-1.6374	 2.2206	 0.5831	-3.8579	63.1504	99.9632	
   491	-2.3651	 1.7789	-0.5861	-4.1439	-1.9349	 2.0399	 0.1049	-3.9749	-1.7262	 2.2281	 0.5019	-3.9542	62.9666	99.9626	
   492	-2.4592	 1.7709	-0.6882	-4.2301	-2.0436	 2.0434	-0.0002	-4.0870	-1.8400	 2.2450	 0.4050	-4.0850	62.7837	99.9631	
   493	-2.4916	 1.7999	-0.6915	-4.2915	-2.0210	 2.0570	 0.0360	-4.0781	-1.7756	 2.2595	 0.4839	-4.0350	63.0184	99.9640	
   494	-2.4474	 1.8264	-0.6210	-4.2738	-1.9625	 2.0647	 0.1022	-4.0273	-1.7308	 2.2621	 0.5312	-3.9928	63.1078	99.9635	
   495	-2.4317	 1.8035	-0.6282	-4.2352	-1.9558	 2.0549	 0.0991	-4.0108	-1.7052	 2.2653	 0.5602	-3.9704	63.0665	99.9648	
   496	-2.3337	 1.8783	-0.4552	-4.2120	-1.8431	 2.1231	 0.2801	-3.9663	-1.5875	 2.3243	 0.7369	-3.9117	63.1614	99.9644	
   497	-2.2807	 1.9100	-0.3706	-4.1907	-1.8197	 2.1511	 0.3314	-3.9709	-1.5993	 2.3417	 0.7424	-3.9409	63.0654	99.9633	
   498	-2.3327	 1.8950	-0.4375	-4.2277	-1.8790	 2.1291	 0.2501	-4.0081	-1.6519	 2.3098	 0.6579	-3.9617	63.1067	99.9634	
   499	-2.4023	 1.8695	-0.5327	-4.2718	-1.9383	 2.1070	 0.1687	-4.0454	-1.7026	 2.3160	 0.6134	-4.0184	63.0195	99.9651	
   500	-2.3935	 1.8748	-0.5186	-4.2683	-1.9375	 2.1214	 0.1839	-4.0589	-1.7092	 2.3120	 0.6028	-4.0210	63.0172	99.9635	
   501	-2.4621	 1.8660	-0.5961	-4.3281	-2.0327	 2.1053	 0.0726	-4.1381	-1.8499	 2.3003	 0.4504	-4.1502	62.8261	99.9628	
   502	-2.5308	 1.8571	-0.6735	-4.3879	-2.0686	 2.1112	 0.0426	-4.1799	-1.8493	 2.3130	 0.4637	-4.1622	62.8794	99.9632	
   503	-2.4896	 1.8334	-0.6561	-4.3230	-2.0770	 2.0923	 0.0153	-4.1694	-1.8637	 2.2797	 0.4160	-4.1433	62.8273	99.9633	
   504	-2.5524	 1.7797	-0.7726	-4.3321	-2.1798	 2.0717	-0.1080	-4.2515	-2.0354	 2.2861	 0.2507	-4.3214	62.3647	99.9617	
   505	-2.6632	 1.7779	-0.8852	-4.4411	-2.2675	 2.0602	-0.2073	-4.3277	-2.1558	 2.2991	 0.1433	-4.4548	62.2253	99.9615	
   506	-2.7240	 1.7576	-0.9663	-4.4816	-2.3351	 2.0192	-0.3159	-4.3544	-2.2597	 2.2607	 0.0010	-4.5203	62.1686	99.9611	
   507	-2.7603	 1.7198	-1.0404	-4.4801	-2.3635	 2.0297	-0.3338	-4.3933	-2.2262	 2.2932	 0.0671	-4.5193	62.0946	99.9629	
   508	-2.6700	 1.8060	-0.8639	-4.4761	-2.2449	 2.0738	-0.1711	-4.3188	-2.0979	 2.3096	 0.2117	-4.4074	62.4139	99.9626	
   509	-2.6191	 1.8043	-0.8147	-4.4234	-2.2291	 2.0972	-0.1318	-4.3264	-2.0650	 2.3295	 0.2645	-4.3944	62.3253	99.9631	
   510	-2.6347	 1.8272	-0.8075	-4.4619	-2.2491	 2.1266	-0.1225	-4.3758	-2.1019	 2.3562	 0.2543	-4.4580	62.2325	99.9620	
   511	-2.6838	 1.8624	-0.8213	-4.5461	-2.2625	 2.1462	-0.1163	-4.4088	-2.1065	 2.3902	 0.2837	-4.4966	62.2832	99.9629	
   512	-2.7014	 1.8518	-0.8495	-4.5532	-2.2917	 2.1423	-0.1494	-4.4342	-2.1394	 2.3703	 0.2309	-4.5096	62.2789	99.9618	
   513	-2.8701	 1.7347	-1.1353	-4.6048	-2.4880	 2.0098	-0.4782	-4.4979	-2.4446	 2.2591	-0.1854	-4.7036	61.9318	99.9597	
   514	-3.3173	 1.5154	-1.8019	-4.8327	-2.9349	 1.8087	-1.1263	-4.7437	-2.8234	 2.0789	-0.7445	-4.9022	61.8770	99.9631	
   515	-3.6783	 1.3155	-2.3627	-4.9937	-3.3133	 1.6628	-1.6505	-4.9762	-3.1477	 1.9685	-1.1792	-5.1160	61.5997	99.9656	
   516	-3.9186	 1.1394	-2.7791	-5.0579	-3.5790	 1.5852	-1.9938	-5.1642	-3.4055	 1.9105	-1.4950	-5.3159	61.1400	99.9635	
   517	-4.0098	 1.0363	-2.9733	-5.0461	-3.6283	 1.4862	-2.1421	-5.1145	-3.4864	 1.8248	-1.6616	-5.3110	61.1363	99.9614	
   518	-4.0147	 0.9527	-3.0619	-4.9675	-3.6341	 1.3858	-2.2482	-5.0200	-3.5238	 1.7163	-1.8076	-5.2400	61.2145	99.9602	
   519	-4.0883	 0.8603	-3.2279	-4.9486	-3.7184	 1.3071	-2.4113	-5.0256	-3.6725	 1.6753	-1.9971	-5.3477	60.8797	99.9593	
   520	-4.1422	 0.8119	-3.3303	-4.9541	-3.7493	 1.2746	-2.4747	-5.0240	-3.6495	 1.6280	-2.0215	-5.2773	61.0739	99.9594	
   521	-4.0765	 0.7705	-3.3059	-4.8471	-3.6942	 1.2249	-2.4692	-4.9192	-3.5896	 1.5539	-2.0356	-5.1434	61.2529	99.9587	
   522	-4.0206	 0.7072	-3.3134	-4.7278	-3.6407	 1.1466	-2.4941	-4.7873	-3.5560	 1.4639	-2.0921	-5.0198	61.3828	99.9577	
   523	-4.0148	 0.6623	-3.3524	-4.6771	-3.6298	 1.0840	-2.5458	-4.7138	-3.5408	 1.3873	-2.1535	-4.9280	61.5624	99.9577	
   524	-4.0177	 0.6121	-3.4055	-4.6298	-3.6556	 1.0130	-2.6426	-4.6687	-3.5704	 1.3081	-2.2623	-4.8784	61.6439	99.9587	
   525	-4.1060	 0.5593	-3.5466	-4.6653	-3.7751	 0.9546	-2.8205	-4.7298	-3.7552	 1.3066	-2.4487	-5.0617	61.2126	99.9606	
   526	-4.1040	 0.5927	-3.5112	-4.6967	-3.7509	 0.9969	-2.7540	-4.7479	-3.6961	 1.3424	-2.3537	-5.0383	61.3173	99.9607	
   527	-4.0403	 0.6632	-3.3770	-4.7034	-3.7442	 1.1116	-2.6326	-4.8559	-3.6915	 1.4310	-2.2605	-5.1223	61.0839	99.9587	
   528	-4.1128	 0.7327	-3.3800	-4.8455	-3.8838	 1.2071	-2.6767	-5.0910	-3.8632	 1.5599	-2.3033	-5.4230	60.5180	99.9604	
   529	-4.1707	 0.7626	-3.4080	-4.9333	-3.8755	 1.2260	-2.6495	-5.1015	-3.8238	 1.5838	-2.2400	-5.4075	60.7204	99.9605	
   530	-4.1452	 0.7617	-3.3834	-4.9069	-3.8446	 1.2585	-2.5861	-5.1031	-3.7580	 1.6236	-2.1344	-5.3815	60.6908	99.9609	
   531	-4.1079	 0.8163	-3.2915	-4.9242	-3.7786	 1.2707	-2.5078	-5.0494	-3.7001	 1.6341	-2.0660	-5.3341	60.8758	99.9615	
   532	-4.1089	 0.7996	-3.3092	-4.9084	-3.7652	 1.2512	-2.5140	-5.0164	-3.6751	 1.6247	-2.0504	-5.2997	60.9274	99.9623	
   533	-4.0402	 0.8084	-3.2317	-4.8486	-3.6917	 1.2680	-2.4237	-4.9597	-3.6106	 1.6392	-1.9714	-5.2498	60.9312	99.9613	
   534	-4.0226	 0.8189	-3.2035	-4.8415	-3.6766	 1.2770	-2.3996	-4.9538	-3.6041	 1.6432	-1.9609	-5.2472	60.9293	99.9607	
   535	-4.0226	 0.8189	-3.2035	-4.8415	-3.6633	 1.2575	-2.4058	-4.9208	-3.6106	 1.6392	-1.9714	-5.2498	60.9274	99.9613	
   536	-4.0304	 0.8304	-3.1999	-4.8608	-3.6842	 1.2725	-2.4117	-4.9567	-3.6166	 1.6479	-1.9687	-5.2644	60.9274	99.9618	
   537	-4.0471	 0.8365	-3.2104	-4.8836	-3.6984	 1.2777	-2.4206	-4.9762	-3.6297	 1.6399	-1.9898	-5.2696	60.9712	99.9610	
   538	-4.0137	 0.8242	-3.1894	-4.8380	-3.6766	 1.2770	-2.3996	-4.9538	-3.6047	 1.6306	-1.9742	-5.2352	60.9712	99.9604	
   539	-4.0226	 0.8189	-3.2035	-4.8415	-3.6708	 1.2529	-2.4179	-4.9238	-3.6304	 1.6273	-2.0031	-5.2576	60.9216	99.9607	
   540	-3.9961	 0.8348	-3.1612	-4.8309	-3.6766	 1.2770	-2.3996	-4.9538	-3.6356	 1.6486	-1.9870	-5.2842	60.8261	99.9612	
   541	-4.0392	 0.8251	-3.2140	-4.8644	-3.7426	 1.2648	-2.4778	-5.0075	-3.6948	 1.6128	-2.0820	-5.3075	60.8621	99.9608	
   542	-4.1079	 0.8163	-3.2915	-4.9242	-3.7936	 1.2617	-2.5319	-5.0553	-3.7580	 1.6236	-2.1344	-5.3815	60.7703	99.9603	
   543	-4.0991	 0.8216	-3.2774	-4.9206	-3.8003	 1.2714	-2.5288	-5.0718	-3.7698	 1.6409	-2.1289	-5.4107	60.6766	99.9608	
   544	-4.0981	 0.8383	-3.2597	-4.9364	-3.8145	 1.2767	-2.5378	-5.0913	-3.8021	 1.6337	-2.1684	-5.4357	60.6664	99.9602	
   545	-4.1236	 0.8392	-3.2843	-4.9628	-3.8512	 1.2683	-2.5830	-5.1196	-3.8593	 1.6358	-2.2235	-5.4950	60.5662	99.9607	
   546	-4.1579	 0.8347	-3.3231	-4.9927	-3.9373	 1.2854	-2.6519	-5.2228	-3.9422	 1.6347	-2.3075	-5.5768	60.4153	99.9603	
   547	-4.2177	 0.8312	-3.3864	-5.0489	-3.9741	 1.2770	-2.6970	-5.2512	-3.9810	 1.6235	-2.3575	-5.6044	60.4614	99.9595	
   548	-4.2344	 0.8374	-3.3969	-5.0718	-3.9958	 1.2777	-2.7181	-5.2736	-3.9935	 1.6282	-2.3653	-5.6216	60.4614	99.9606	
   549	-4.2099	 0.8198	-3.3900	-5.0297	-3.9891	 1.2679	-2.7212	-5.2571	-4.0066	 1.6202	-2.3864	-5.6267	60.3627	99.9600	
   550	-4.2609	 0.8215	-3.4393	-5.0824	-4.0392	 1.2791	-2.7601	-5.3184	-4.0132	 1.6162	-2.3970	-5.6293	60.4614	99.9605	
   551	-4.2422	 0.8488	-3.3933	-5.0911	-4.0108	 1.2686	-2.7422	-5.2795	-4.0198	 1.6122	-2.4075	-5.6319	60.4991	99.9608	
   552	-4.2854	 0.8391	-3.4462	-5.1245	-4.0534	 1.2844	-2.7691	-5.3379	-4.0448	 1.6216	-2.4232	-5.6663	60.4571	99.9600	
   553	-4.3207	 0.8180	-3.5026	-5.1387	-4.1044	 1.2812	-2.8232	-5.3857	-4.0704	 1.6184	-2.4521	-5.6887	60.4131	99.9608	
   554	-4.2854	 0.8391	-3.4462	-5.1245	-4.0451	 1.3033	-2.7418	-5.3484	-4.0244	 1.6462	-2.3782	-5.6705	60.4195	99.9598	
   555	-4.2589	 0.8550	-3.4039	-5.1139	-4.0234	 1.3026	-2.7208	-5.3260	-4.0244	 1.6462	-2.3782	-5.6705	60.4131	99.9597	
   556	-4.2668	 0.8664	-3.4003	-5.1332	-4.0083	 1.3117	-2.6967	-5.3201	-4.0303	 1.6549	-2.3754	-5.6851	60.4131	99.9581	
   557	-4.2834	 0.8725	-3.4108	-5.1560	-4.0576	 1.3372	-2.7205	-5.3949	-4.0481	 1.6809	-2.3672	-5.7289	60.3230	99.9597	
   558	-4.2913	 0.8840	-3.4072	-5.1753	-4.0276	 1.3554	-2.6722	-5.3830	-3.9665	 1.6567	-2.3098	-5.6232	60.6603	99.9577	
   559	-4.2393	 0.8990	-3.3402	-5.1383	-3.9925	 1.3351	-2.6574	-5.3276	-3.9771	 1.6994	-2.2777	-5.6764	60.4238	99.9621	
   560	-4.2226	 0.8928	-3.3297	-5.1154	-3.9774	 1.3442	-2.6333	-5.3217	-3.9836	 1.6954	-2.2882	-5.6790	60.3735	99.9595	
   561	-4.2314	 0.8875	-3.3438	-5.1190	-3.9850	 1.3396	-2.6453	-5.3247	-4.0205	 1.7221	-2.2983	-5.7425	60.1869	99.9602	
   562	-4.2471	 0.9104	-3.3366	-5.1576	-3.9983	 1.3592	-2.6391	-5.3576	-4.0198	 1.7348	-2.2850	-5.7545	60.2352	99.9604	
   563	-4.2550	 0.9218	-3.3330	-5.1768	-3.9983	 1.3592	-2.6391	-5.3576	-4.0080	 1.7175	-2.2905	-5.7253	60.3735	99.9601	
   564	-4.2471	 0.9104	-3.3366	-5.1576	-3.9916	 1.3494	-2.6422	-5.3411	-4.0139	 1.7261	-2.2878	-5.7399	60.2813	99.9607	
   565	-4.2471	 0.9104	-3.3366	-5.1576	-4.0058	 1.3547	-2.6512	-5.3606	-4.0139	 1.7261	-2.2878	-5.7399	60.2813	99.9613	
   566	-4.2363	 0.9491	-3.2871	-5.1855	-3.9683	 1.3774	-2.5908	-5.3457	-3.9935	 1.7507	-2.2428	-5.7441	60.3295	99.9605	
   567	-4.2442	 0.9606	-3.2835	-5.2048	-3.9741	 1.4015	-2.5726	-5.3757	-3.9672	 1.7666	-2.2006	-5.7338	60.3842	99.9608	
   568	-4.2432	 0.9773	-3.2658	-5.2205	-3.9449	 1.4054	-2.5395	-5.3503	-3.9416	 1.7699	-2.1717	-5.7114	60.4804	99.9603	
   569	-4.1922	 0.9756	-3.2165	-5.1678	-3.9081	 1.4138	-2.4943	-5.3220	-3.8909	 1.7638	-2.1271	-5.6546	60.5285	99.9599	
   570	-4.1667	 0.9747	-3.1919	-5.1414	-3.9081	 1.4138	-2.4943	-5.3220	-3.9159	 1.7732	-2.1427	-5.6890	60.3821	99.9602	
   571	-4.1912	 0.9923	-3.1988	-5.1835	-3.9365	 1.4243	-2.5123	-5.3609	-3.9284	 1.7779	-2.1505	-5.7062	60.4281	99.9610	
   572	-4.1902	 1.0090	-3.1811	-5.1993	-3.9290	 1.4288	-2.5002	-5.3579	-3.9403	 1.7952	-2.1450	-5.7354	60.3799	99.9613	
   573	-4.1726	 1.0196	-3.1529	-5.1922	-3.9131	 1.4523	-2.4609	-5.3655	-3.9015	 1.8064	-2.0950	-5.7078	60.4323	99.9610	
   574	-4.1373	 1.0407	-3.0965	-5.1780	-3.8764	 1.4606	-2.4157	-5.3371	-3.8758	 1.8097	-2.0661	-5.6854	60.4762	99.9607	
   575	-4.1373	 1.0407	-3.0965	-5.1780	-3.8906	 1.4659	-2.4247	-5.3566	-3.8751	 1.8224	-2.0528	-5.6974	60.4323	99.9621	
   576	-4.1275	 1.0627	-3.0646	-5.1902	-3.8965	 1.4900	-2.4064	-5.3865	-3.8745	 1.8350	-2.0395	-5.7094	60.4302	99.9621	
   577	-4.1353	 1.0742	-3.0610	-5.2095	-3.8889	 1.4946	-2.3944	-5.3836	-3.8929	 1.8484	-2.0445	-5.7412	60.3821	99.9613	
   578	-4.1255	 1.0962	-3.0292	-5.2217	-3.8739	 1.5037	-2.3702	-5.3776	-3.8732	 1.8603	-2.0129	-5.7334	60.4302	99.9621	
   579	-4.0823	 1.1059	-2.9764	-5.1882	-3.8363	 1.5264	-2.3099	-5.3628	-3.8594	 1.8809	-1.9784	-5.7402	60.3360	99.9605	
   580	-4.0912	 1.1006	-2.9905	-5.1918	-3.8722	 1.5323	-2.3399	-5.4047	-3.8666	 1.8643	-2.0023	-5.7308	60.3799	99.9607	
   581	-4.1167	 1.1014	-3.0151	-5.2181	-3.8798	 1.5278	-2.3520	-5.4076	-3.8850	 1.8777	-2.0074	-5.7626	60.3360	99.9610	
   582	-4.1069	 1.1235	-2.9833	-5.2303	-3.8497	 1.5460	-2.3037	-5.3957	-3.8390	 1.9055	-1.9335	-5.7444	60.3928	99.9619	
   583	-4.0206	 1.1428	-2.8776	-5.1634	-3.7820	 1.5869	-2.1951	-5.3690	-3.7482	 1.9359	-1.8123	-5.6841	60.4013	99.9619	
   584	-3.9852	 1.1640	-2.8212	-5.1492	-3.7235	 1.5946	-2.1289	-5.3182	-3.7094	 1.9472	-1.7622	-5.6565	60.4493	99.9612	
   585	-3.9862	 1.1473	-2.8389	-5.1335	-3.7528	 1.5908	-2.1620	-5.3436	-3.7667	 1.9493	-1.8173	-5.7159	60.2550	99.9606	
   586	-3.9921	 1.1921	-2.7999	-5.1843	-3.7670	 1.5960	-2.1710	-5.3631	-3.7785	 1.9667	-1.8118	-5.7451	60.2966	99.9636	
   587	-3.9558	 1.2300	-2.7257	-5.1858	-3.7286	 1.6331	-2.0955	-5.3617	-3.7075	 1.9851	-1.7223	-5.6925	60.4429	99.9638	
   588	-3.9323	 1.1957	-2.7365	-5.1280	-3.6935	 1.6128	-2.0807	-5.3063	-3.6897	 1.9591	-1.7306	-5.6487	60.4429	99.9617	
   589	-3.9176	 1.1561	-2.7614	-5.0737	-3.6951	 1.5841	-2.1110	-5.2793	-3.7167	 1.9305	-1.7861	-5.6471	60.3425	99.9605	
   590	-3.8842	 1.1438	-2.7404	-5.0280	-3.6667	 1.5736	-2.0931	-5.2404	-3.6917	 1.9212	-1.7705	-5.6127	60.3425	99.9605	
   591	-3.9382	 1.0953	-2.8427	-5.0335	-3.7478	 1.5523	-2.1955	-5.3001	-3.7752	 1.9074	-1.8678	-5.6825	60.1520	99.9605	
   592	-3.9107	 1.1279	-2.7827	-5.0387	-3.6884	 1.5743	-2.1141	-5.2628	-3.6976	 1.9298	-1.7677	-5.6273	60.3031	99.9608	
   593	-3.8823	 1.1772	-2.7050	-5.0595	-3.6450	 1.5729	-2.0721	-5.2180	-3.6844	 1.9378	-1.7466	-5.6221	60.3885	99.9619	
   594	-3.9529	 1.1349	-2.8178	-5.0878	-3.7561	 1.5334	-2.2227	-5.2896	-3.8350	 1.8589	-1.9761	-5.6938	60.3121	99.9586	
   595	-4.1186	 1.0680	-3.0505	-5.1866	-3.8597	 1.4984	-2.3613	-5.3582	-3.8804	 1.8437	-2.0367	-5.7240	60.3821	99.9591	
   596	-4.1275	 1.0627	-3.0646	-5.1902	-3.8396	 1.4690	-2.3706	-5.3087	-3.8686	 1.8263	-2.0422	-5.6948	60.4762	99.9597	
   597	-4.0941	 1.0504	-3.0436	-5.1445	-3.8321	 1.4736	-2.3585	-5.3058	-3.8640	 1.7924	-2.0716	-5.6562	60.5138	99.9570	
   598	-4.1471	 1.0187	-3.1283	-5.1658	-3.9349	 1.4530	-2.4819	-5.3879	-3.9659	 1.7919	-2.1740	-5.7578	60.2725	99.9595	
   599	-4.2059	 1.0319	-3.1739	-5.2378	-3.9641	 1.4491	-2.5150	-5.4133	-3.9850	 1.7927	-2.1923	-5.7775	60.3691	99.9601	
   600	-4.1736	 1.0028	-3.1706	-5.1764	-3.9733	 1.4159	-2.5574	-5.3892	-4.0060	 1.7554	-2.2506	-5.7613	60.3100	99.9608	
   601	-4.1902	 1.0090	-3.1811	-5.1993	-3.9516	 1.4152	-2.5364	-5.3668	-3.9804	 1.7587	-2.2217	-5.7390	60.4110	99.9603	
   602	-4.1844	 0.9641	-3.2201	-5.1485	-3.9616	 1.3676	-2.5940	-5.3293	-4.0264	 1.7308	-2.2956	-5.7571	60.2615	99.9606	
   603	-4.2452	 0.9439	-3.3012	-5.1890	-4.0058	 1.3547	-2.6512	-5.3606	-4.0402	 1.7102	-2.3300	-5.7503	60.3605	99.9606	
   604	-4.3070	 0.9069	-3.4000	-5.2138	-4.0284	 1.3410	-2.6874	-5.3695	-4.0363	 1.6636	-2.3727	-5.6997	60.5536	99.9572	
   605	-4.3413	 0.9025	-3.4387	-5.2437	-4.0727	 1.3281	-2.7446	-5.4008	-4.1001	 1.6617	-2.4383	-5.7617	60.4529	99.9577	
   606	-4.3579	 0.9086	-3.4492	-5.2666	-4.1370	 1.3445	-2.7925	-5.4816	-4.1494	 1.6932	-2.4563	-5.8425	60.2637	99.9605	
   607	-4.3109	 0.9852	-3.3256	-5.2961	-4.0677	 1.4141	-2.6536	-5.4819	-4.0876	 1.7796	-2.3080	-5.8671	60.2286	99.9609	
   608	-4.3236	 0.9130	-3.4105	-5.2367	-4.1086	 1.3340	-2.7746	-5.4427	-4.1264	 1.6458	-2.4806	-5.7721	60.4401	99.9587	
   609	-4.4247	 0.7880	-3.6365	-5.2127	-4.1737	 1.2116	-2.9621	-5.3854	-4.1329	 1.5193	-2.6136	-5.6521	60.7280	99.9598	
   610	-4.3746	 0.7695	-3.6050	-5.1442	-4.0426	 1.2218	-2.8208	-5.2644	-3.9751	 1.6148	-2.3603	-5.5898	60.6327	99.9628	
   611	-4.0618	 0.8761	-3.1855	-4.9380	-4.0885	 1.3047	-2.7839	-5.3933	-4.1335	 1.3841	-2.7494	-5.5175	60.7781	99.9482	
   612	-5.3554	 0.3115	-5.0438	-5.6670	-5.4844	 0.6265	-4.8579	-6.1109	-5.6989	 0.8044	-4.8945	-6.5032	59.7963	99.9558	
   613	-6.0095	 0.4847	-5.5247	-6.4942	-6.0142	 0.8734	-5.1408	-6.8876	-6.1332	 1.1545	-4.9787	-7.2875	59.1324	99.9597	
   614	-6.1153	 0.7118	-5.4035	-6.8271	-6.2332	 1.2252	-5.0080	-7.4585	-6.3207	 1.4700	-4.8508	-7.7906	58.3162	99.9562	
   615	-5.5524	 1.1617	-4.3906	-6.7141	-5.1397	 1.6928	-3.4469	-6.8326	-4.8771	 2.0373	-2.8398	-6.9142	60.1439	99.9619	
   616	-4.2520	 1.1172	-3.1347	-5.3693	-4.0669	 1.4285	-2.6384	-5.4954	-4.2467	 1.6588	-2.5880	-5.9054	60.5177	99.9513	
   617	-4.6276	 0.9569	-3.6706	-5.5846	-4.5598	 1.4347	-3.1251	-5.9946	-4.5474	 1.7587	-2.7887	-6.3060	59.6633	99.9628	
   618	-4.5197	 1.0538	-3.4658	-5.5735	-4.2148	 1.5051	-2.7097	-5.7199	-4.2291	 1.8778	-2.3512	-6.1068	60.1015	99.9585	
   619	-4.5099	 1.0758	-3.4340	-5.5857	-4.2415	 1.5442	-2.6973	-5.7858	-4.2528	 1.9125	-2.3402	-6.1652	59.9588	99.9588	
   620	-4.4893	 1.1365	-3.3527	-5.6259	-4.1664	 1.5897	-2.5767	-5.7561	-4.1482	 1.9636	-2.1846	-6.1116	60.1653	99.9595	
   621	-4.2794	 1.2299	-3.0494	-5.5093	-3.9149	 1.6726	-2.2423	-5.5876	-3.8575	 2.0414	-1.8160	-5.8988	60.4725	99.9603	
   622	-4.0441	 1.3224	-2.7216	-5.3665	-3.7604	 1.7107	-2.0496	-5.4711	-3.7417	 2.0625	-1.6792	-5.8041	60.4973	99.9626	
   623	-3.9734	 1.3647	-2.6087	-5.3381	-3.7086	 1.7282	-1.9804	-5.4368	-3.7220	 2.0744	-1.6475	-5.7963	60.4868	99.9625	
   624	-3.9646	 1.3699	-2.5946	-5.3346	-3.7228	 1.7334	-1.9893	-5.4563	-3.7726	 2.0805	-1.6921	-5.8531	60.3360	99.9616	
   625	-3.9725	 1.3814	-2.5910	-5.3539	-3.7378	 1.7244	-2.0134	-5.4622	-3.8048	 2.0733	-1.7316	-5.8780	60.3274	99.9621	
   626	-4.0058	 1.3937	-2.6120	-5.3995	-3.7587	 1.7394	-2.0193	-5.4982	-3.8108	 2.0820	-1.7288	-5.8926	60.3778	99.9619	
   627	-3.9460	 1.3972	-2.5486	-5.3432	-3.7144	 1.7523	-1.9621	-5.4668	-3.7595	 2.0885	-1.6710	-5.8479	60.3799	99.9619	
   628	-3.9107	 1.4184	-2.4922	-5.3291	-3.6852	 1.7562	-1.9290	-5.4414	-3.7147	 2.0911	-1.6237	-5.8057	60.4741	99.9635	
   629	-3.8754	 1.4395	-2.4358	-5.3149	-3.6476	 1.7789	-1.8687	-5.4266	-3.6634	 2.0976	-1.5658	-5.7609	60.5703	99.9629	
   630	-3.8567	 1.4668	-2.3898	-5.3235	-3.6250	 1.7926	-1.8325	-5.4177	-3.6312	 2.1048	-1.5264	-5.7359	60.6643	99.9635	
   631	-3.8302	 1.4826	-2.3475	-5.3129	-3.6234	 1.8212	-1.8021	-5.4447	-3.6180	 2.1128	-1.5052	-5.7307	60.6623	99.9629	
   632	-3.8469	 1.4888	-2.3580	-5.3357	-3.6376	 1.8265	-1.8111	-5.4641	-3.6365	 2.1262	-1.5103	-5.7625	60.6163	99.9632	
   633	-3.7684	 1.5196	-2.2487	-5.2881	-3.5348	 1.8471	-1.6877	-5.3820	-3.4898	 2.1291	-1.3606	-5.6188	60.9080	99.9638	
   634	-3.6900	 1.5505	-2.1394	-5.2405	-3.4605	 1.8783	-1.5822	-5.3388	-3.4319	 2.1397	-1.2922	-5.5714	60.9519	99.9618	
   635	-3.6900	 1.5505	-2.1394	-5.2405	-3.4613	 1.8639	-1.5974	-5.3253	-3.4510	 2.1404	-1.3106	-5.5912	60.9021	99.9627	
   636	-3.7155	 1.5513	-2.1641	-5.2668	-3.5039	 1.8796	-1.6243	-5.3836	-3.4766	 2.1371	-1.3395	-5.6136	60.9002	99.9620	
   637	-3.7233	 1.5628	-2.1605	-5.2861	-3.4972	 1.8699	-1.6274	-5.3672	-3.4885	 2.1544	-1.3340	-5.6428	60.8542	99.9635	
   638	-3.7067	 1.5566	-2.1499	-5.2633	-3.4964	 1.8842	-1.6122	-5.3807	-3.4885	 2.1544	-1.3340	-5.6428	60.8063	99.9621	
   639	-3.7145	 1.5681	-2.1463	-5.2826	-3.5039	 1.8796	-1.6243	-5.3836	-3.4950	 2.1505	-1.3446	-5.6454	60.8503	99.9629	
   640	-3.7400	 1.5689	-2.1710	-5.3089	-3.5323	 1.8901	-1.6422	-5.4225	-3.5325	 2.1645	-1.3680	-5.6970	60.7563	99.9623	
   641	-3.7390	 1.5857	-2.1533	-5.3247	-3.5031	 1.8940	-1.6091	-5.3972	-3.4937	 2.1758	-1.3180	-5.6694	60.8562	99.9630	
   642	-3.6694	 1.6112	-2.0581	-5.2806	-3.4363	 1.9206	-1.5157	-5.3569	-3.4293	 2.1903	-1.2390	-5.6194	60.9041	99.9621	
   643	-3.6606	 1.6165	-2.0440	-5.2771	-3.4505	 1.9258	-1.5247	-5.3764	-3.4359	 2.1863	-1.2496	-5.6220	60.9002	99.9626	
   644	-3.6694	 1.6112	-2.0581	-5.2806	-3.4647	 1.9311	-1.5336	-5.3958	-3.4418	 2.1950	-1.2468	-5.6366	60.8562	99.9629	
   645	-3.6606	 1.6165	-2.0440	-5.2771	-3.4354	 1.9349	-1.5005	-5.3704	-3.4220	 2.2069	-1.2151	-5.6288	60.8601	99.9624	
   646	-3.6517	 1.6218	-2.0299	-5.2735	-3.4354	 1.9349	-1.5005	-5.3704	-3.4286	 2.2029	-1.2257	-5.6314	60.8562	99.9624	
   647	-3.6861	 1.6174	-2.0686	-5.3034	-3.4722	 1.9265	-1.5457	-5.3988	-3.4674	 2.1917	-1.2757	-5.6590	60.8522	99.9623	
   648	-3.7116	 1.6182	-2.0932	-5.3298	-3.5006	 1.9370	-1.5636	-5.4377	-3.4799	 2.1964	-1.2835	-5.6762	60.8542	99.9623	
   649	-3.6821	 1.6842	-1.9978	-5.3664	-3.4020	 2.0105	-1.3916	-5.4126	-3.3287	 2.2879	-1.0407	-5.6165	61.0245	99.9634	
   650	-3.3379	 1.7451	-1.5927	-5.0830	-3.0645	 2.0762	-0.9883	-5.1408	-3.0518	 2.3452	-0.7065	-5.3969	61.0302	99.9602	
   651	-3.2526	 1.7478	-1.5047	-5.0004	-3.0069	 2.0696	-0.9373	-5.0765	-3.0320	 2.3571	-0.6749	-5.3891	60.8856	99.9611	
   652	-3.2977	 1.7046	-1.5930	-5.0023	-3.0528	 2.0280	-1.0249	-5.0808	-3.0787	 2.3166	-0.7621	-5.3952	60.8817	99.9610	
   653	-3.3497	 1.6896	-1.6599	-5.0393	-3.1030	 2.0391	-1.0638	-5.1422	-3.1103	 2.3220	-0.7883	-5.4322	60.8399	99.9602	
   654	-3.3752	 1.6905	-1.6846	-5.0657	-3.1606	 2.0458	-1.1148	-5.2065	-3.1616	 2.3155	-0.8461	-5.4770	60.7863	99.9604	
   655	-3.4517	 1.6931	-1.7584	-5.1448	-3.2341	 2.0290	-1.2051	-5.2632	-3.2451	 2.3017	-0.9434	-5.5467	60.7783	99.9609	
   656	-3.5134	 1.6561	-1.8572	-5.1696	-3.3101	 1.9692	-1.3409	-5.2794	-3.3681	 2.2640	-1.1041	-5.6321	60.6225	99.9616	
   657	-3.5458	 1.6852	-1.8605	-5.2310	-3.2701	 2.0349	-1.2351	-5.3051	-3.2392	 2.2930	-0.9462	-5.5321	60.9769	99.9593	
   658	-3.6096	 1.6147	-1.9947	-5.2243	-3.4070	 1.9244	-1.4826	-5.3315	-3.4470	 2.2163	-1.2308	-5.6632	60.6643	99.9624	
   659	-3.7763	 1.5311	-2.2451	-5.3074	-3.6000	 1.8492	-1.7508	-5.4493	-3.6733	 2.1529	-1.5204	-5.8261	60.4110	99.9620	
   660	-3.9430	 1.4474	-2.4955	-5.3904	-3.7629	 1.7922	-1.9707	-5.5552	-3.8647	 2.1474	-1.7174	-6.0120	60.0350	99.9626	
   661	-4.0656	 1.3902	-2.6754	-5.4558	-3.8815	 1.7481	-2.1334	-5.6297	-4.0312	 2.1324	-1.8987	-6.1635	59.7435	99.9615	
   662	-4.2206	 1.3619	-2.8585	-5.5825	-4.0043	 1.7569	-2.2475	-5.7613	-4.1153	 2.1060	-2.0093	-6.2213	59.8432	99.9581	
   663	-4.3461	 1.2545	-3.0915	-5.6006	-4.1890	 1.7006	-2.4884	-5.8896	-4.2903	 2.0492	-2.2411	-6.3394	59.5486	99.9580	
   664	-4.4511	 1.2078	-3.2431	-5.6589	-4.2566	 1.6596	-2.5970	-5.9163	-4.3245	 2.0039	-2.3205	-6.3283	59.6973	99.9577	
   665	-4.4766	 1.2087	-3.2677	-5.6853	-4.2708	 1.6649	-2.6059	-5.9358	-4.3304	 2.0126	-2.3178	-6.3429	59.7021	99.9578	
   666	-4.4579	 1.2360	-3.2218	-5.6939	-4.2616	 1.6981	-2.5635	-5.9598	-4.3219	 2.0546	-2.2673	-6.3763	59.6120	99.9584	
   667	-4.4216	 1.2739	-3.1477	-5.6955	-4.2165	 1.7254	-2.4912	-5.9420	-4.2824	 2.0784	-2.2040	-6.3608	59.6607	99.9581	
   668	-4.3853	 1.3117	-3.0735	-5.6971	-4.1572	 1.7474	-2.4098	-5.9047	-4.2180	 2.0929	-2.1250	-6.3108	59.8064	99.9579	
   669	-4.3137	 1.3707	-2.9429	-5.6845	-4.0904	 1.7740	-2.3164	-5.8645	-4.1588	 2.1288	-2.0300	-6.2874	59.8526	99.9599	
   670	-4.2333	 1.4350	-2.7982	-5.6683	-3.9876	 1.7946	-2.1930	-5.7824	-4.0608	 2.1758	-1.8850	-6.2365	59.9541	99.9627	
   671	-4.0774	 1.4799	-2.5973	-5.5573	-3.8406	 1.8282	-2.0124	-5.6689	-3.8950	 2.1781	-1.7169	-6.0730	60.1913	99.9624	
   672	-3.9822	 1.5046	-2.4775	-5.4869	-3.7671	 1.8450	-1.9221	-5.6122	-3.8187	 2.1752	-1.6435	-5.9938	60.2813	99.9624	
   673	-3.9567	 1.5037	-2.4529	-5.4605	-3.7738	 1.8548	-1.9190	-5.6287	-3.8312	 2.1799	-1.6513	-6.0110	60.1825	99.9623	
   674	-3.9822	 1.5046	-2.4775	-5.4869	-3.7963	 1.8412	-1.9552	-5.6376	-3.8568	 2.1767	-1.6802	-6.0334	60.1802	99.9634	
   675	-3.9558	 1.5204	-2.4352	-5.4762	-3.7596	 1.8496	-1.9100	-5.6092	-3.7878	 2.1572	-1.6306	-5.9448	60.4174	99.9631	
   676	-3.9038	 1.5354	-2.3682	-5.4392	-3.7086	 1.8527	-1.8559	-5.5614	-3.7437	 2.1471	-1.5966	-5.8907	60.5075	99.9625	
   677	-3.8518	 1.5504	-2.3013	-5.4022	-3.6560	 1.8845	-1.7714	-5.5406	-3.6477	 2.1562	-1.4915	-5.8037	60.6582	99.9623	
   678	-3.7822	 1.5760	-2.2061	-5.3581	-3.5683	 1.8961	-1.6722	-5.4644	-3.5510	 2.1779	-1.3731	-5.7288	60.7603	99.9634	
   679	-3.7390	 1.5857	-2.1533	-5.3247	-3.5240	 1.9090	-1.6150	-5.4331	-3.5187	 2.1852	-1.3336	-5.7038	60.7603	99.9624	
   680	-3.7400	 1.5689	-2.1710	-5.3089	-3.5457	 1.9097	-1.6360	-5.4555	-3.5319	 2.1772	-1.3547	-5.7090	60.7124	99.9620	
   681	-3.7567	 1.5751	-2.1815	-5.3318	-3.5465	 1.8954	-1.6512	-5.4420	-3.5516	 2.1653	-1.3864	-5.7168	60.7543	99.9618	
   682	-3.7743	 1.5645	-2.2097	-5.3389	-3.5683	 1.8961	-1.6722	-5.4644	-3.5582	 2.1613	-1.3969	-5.7194	60.7563	99.9618	
   683	-3.7930	 1.5372	-2.2556	-5.3302	-3.6067	 1.8590	-1.7477	-5.4658	-3.6233	 2.1341	-1.4892	-5.7573	60.6521	99.9623	
   684	-3.8204	 1.5047	-2.3157	-5.3251	-3.6368	 1.8408	-1.7959	-5.4776	-3.6805	 2.1363	-1.5443	-5.8167	60.4635	99.9617	
   685	-3.7861	 1.5091	-2.2769	-5.2952	-3.6000	 1.8492	-1.7508	-5.4493	-3.5792	 2.1240	-1.4552	-5.7032	60.7083	99.9631	
   686	-3.7508	 1.5302	-2.2205	-5.2810	-3.5432	 1.8282	-1.7149	-5.3715	-3.5674	 2.1067	-1.4607	-5.6740	60.7923	99.9626	
   687	-3.7537	 1.4800	-2.2736	-5.2338	-3.5808	 1.8055	-1.7753	-5.3863	-3.6187	 2.1001	-1.5186	-5.7187	60.5557	99.9628	
   688	-3.7959	 1.4871	-2.3088	-5.2830	-3.5874	 1.8153	-1.7722	-5.4028	-3.5924	 2.1161	-1.4763	-5.7084	60.6623	99.9634	
   689	-3.7233	 1.5628	-2.1605	-5.2861	-3.5039	 1.8796	-1.6243	-5.3836	-3.4766	 2.1371	-1.3395	-5.6136	60.9461	99.9623	
   690	-3.6978	 1.5619	-2.1358	-5.2598	-3.4972	 1.8699	-1.6274	-5.3672	-3.4773	 2.1244	-1.3528	-5.6016	60.9403	99.9628	
   691	-3.7322	 1.5575	-2.1746	-5.2897	-3.5198	 1.8562	-1.6636	-5.3761	-3.5161	 2.1132	-1.4029	-5.6292	60.9364	99.9623	
   692	-3.7331	 1.5408	-2.1923	-5.2739	-3.5131	 1.8464	-1.6667	-5.3596	-3.5029	 2.1212	-1.3818	-5.6240	60.8962	99.9632	
   693	-3.6890	 1.5672	-2.1217	-5.2562	-3.4530	 1.8828	-1.5702	-5.3358	-3.4069	 2.1303	-1.2766	-5.5371	61.0915	99.9621	
   694	-3.6204	 1.5760	-2.0442	-5.1964	-3.4020	 1.8859	-1.5161	-5.2880	-3.3806	 2.1462	-1.2344	-5.5267	60.9959	99.9626	
   695	-3.6105	 1.5980	-2.0124	-5.2086	-3.4003	 1.9146	-1.4857	-5.3150	-3.3543	 2.1621	-1.1922	-5.5163	61.0456	99.9629	
   696	-3.6194	 1.5927	-2.0265	-5.2121	-3.3945	 1.8905	-1.5040	-5.2850	-3.3622	 2.1328	-1.2293	-5.4949	61.1336	99.9623	
   697	-3.6478	 1.5434	-2.1043	-5.1913	-3.4404	 1.8489	-1.5915	-5.2894	-3.4339	 2.1017	-1.3322	-5.5354	60.9863	99.9620	
   698	-3.6920	 1.5170	-2.1748	-5.2090	-3.4855	 1.8216	-1.6639	-5.3072	-3.4792	 2.0865	-1.3927	-5.5656	60.9383	99.9628	
   699	-3.7018	 1.4950	-2.2067	-5.1968	-3.5006	 1.8125	-1.6881	-5.3131	-3.4733	 2.0778	-1.3955	-5.5510	60.9422	99.9634	
   700	-3.6586	 1.5047	-2.1538	-5.1633	-3.4287	 1.8006	-1.6281	-5.2294	-3.4102	 2.0670	-1.3432	-5.4771	61.0839	99.9631	
   701	-3.6351	 1.4704	-2.1646	-5.1055	-3.4237	 1.7621	-1.6615	-5.1859	-3.4496	 2.0431	-1.4065	-5.4926	60.9344	99.9628	
   702	-3.6616	 1.4545	-2.2069	-5.1161	-3.4663	 1.7779	-1.6884	-5.2442	-3.4621	 2.0478	-1.4143	-5.5098	60.8923	99.9625	
   703	-3.6341	 1.4871	-2.1469	-5.1212	-3.4145	 1.7954	-1.6191	-5.2099	-3.3917	 2.0536	-1.3381	-5.4453	61.0839	99.9626	
   704	-3.6066	 1.5197	-2.0869	-5.1263	-3.3911	 1.8233	-1.5678	-5.2145	-3.3523	 2.0775	-1.2748	-5.4297	61.1336	99.9634	
   705	-3.5890	 1.5303	-2.0586	-5.1193	-3.3686	 1.8370	-1.5316	-5.2056	-3.3450	 2.0942	-1.2509	-5.4391	61.0877	99.9626	
   706	-3.6057	 1.5364	-2.0691	-5.1421	-3.3477	 1.8219	-1.5257	-5.1697	-3.3391	 2.0855	-1.2536	-5.4245	61.1814	99.9621	
   707	-3.5135	 1.5109	-2.0025	-5.0244	-3.3042	 1.8205	-1.4837	-5.1248	-3.2885	 2.0794	-1.2091	-5.3677	61.0877	99.9626	
   708	-3.5046	 1.5162	-1.9884	-5.0209	-3.2808	 1.8485	-1.4323	-5.1294	-3.2359	 2.1112	-1.1247	-5.3470	61.1009	99.9627	
   709	-3.4252	 1.5638	-1.8614	-4.9890	-3.2207	 1.8849	-1.3358	-5.1057	-3.1839	 2.1304	-1.0535	-5.3142	61.1430	99.9624	
   710	-3.6312	 1.5373	-2.0938	-5.1684	-3.3485	 1.8076	-1.5409	-5.1562	-3.3661	 2.0569	-1.3092	-5.4229	61.2678	99.9599	
   711	-3.9009	 1.2951	-2.6056	-5.1960	-3.7144	 1.6278	-2.0865	-5.3423	-3.8120	 1.9341	-1.8779	-5.7460	60.4401	99.9599	
   712	-4.1167	 1.1014	-3.0151	-5.2181	-3.8864	 1.5376	-2.3489	-5.4241	-3.9495	 1.8632	-2.0863	-5.8126	60.2264	99.9564	
   713	-4.1971	 1.0372	-3.1598	-5.2343	-3.9399	 1.4914	-2.4485	-5.4314	-3.9896	 1.8266	-2.1630	-5.8161	60.2330	99.9558	
   714	-4.2873	 0.9509	-3.3363	-5.2382	-4.0318	 1.4082	-2.6236	-5.4400	-4.0711	 1.7283	-2.3429	-5.7993	60.3165	99.9551	
   715	-4.3482	 0.7854	-3.5627	-5.1336	-4.0943	 1.2043	-2.8901	-5.2987	-4.0901	 1.4839	-2.6063	-5.5739	60.8125	99.9563	
   716	-4.3354	 0.7123	-3.6230	-5.0478	-4.0033	 1.1487	-2.8546	-5.1520	-3.9559	 1.4915	-2.4644	-5.4474	60.8943	99.9593	
   717	-4.2599	 0.5478	-3.7121	-4.8077	-4.1351	 0.6262	-3.5089	-4.7613	-4.7482	 0.4604	-4.2878	-5.2086	62.1268	99.9035	
   718	-6.5902	-0.5567	-7.1468	-6.0335	-6.9803	-0.5274	-7.5076	-6.4530	-7.5653	-0.4232	-7.9885	-7.1420	59.4166	99.9543	
   719	-7.5993	-0.4831	-8.0823	-7.1162	-7.8117	-0.3522	-8.1638	-7.4595	-8.1371	-0.0215	-8.1586	-8.1154	58.5873	99.9709	
   720	-7.7924	-0.0017	-7.7940	-7.7907	-7.7735	 0.3074	-7.4661	-8.0810	-7.9242	 0.5241	-7.4001	-8.4481	58.8909	99.9557	
   721	-7.2893	 0.2995	-6.9897	-7.5888	-7.3232	 0.4414	-6.8818	-7.7647	-7.6222	 0.4494	-7.1728	-8.0715	59.8476	99.9426	
   722	-6.9971	-0.0903	-7.0874	-6.9068	-7.1108	-0.0252	-7.1360	-7.0857	-7.3878	-0.0707	-7.4585	-7.3171	60.7604	99.9470	
   723	-6.2342	-0.1499	-6.3840	-6.0842	-6.2862	-0.0660	-6.3522	-6.2202	-6.4860	-0.1255	-6.6114	-6.3604	61.6769	99.9472	
   724	-5.3613	 0.2112	-5.1500	-5.5725	-5.3882	 0.2834	-5.1048	-5.6716	-5.5658	 0.2966	-5.2693	-5.8623	61.7972	99.9544	
   725	-5.0828	 0.1682	-4.9145	-5.2510	-5.3029	 0.1274	-5.1755	-5.4303	-5.6060	 0.2600	-5.3459	-5.8659	61.1593	99.9685	
   726	-6.2556	 0.3535	-5.9021	-6.6092	-6.4394	 0.7961	-5.6434	-7.2355	-6.5022	 1.2866	-5.2157	-7.7887	57.7837	99.9774	
   727	-5.9005	 0.8887	-5.0117	-6.7893	-5.9149	 1.3347	-4.5803	-7.2497	-5.7971	 1.4927	-4.3045	-7.2897	59.6862	99.9598	
   728	-5.8633	 0.7981	-5.0651	-6.6614	-6.0904	 1.3116	-4.7788	-7.4020	-6.1201	 1.2850	-4.8351	-7.4049	59.2760	99.9416	
   729	-5.3897	 0.3071	-5.0825	-5.6969	-5.4175	 0.5285	-4.8890	-5.9461	-5.4002	 0.5439	-4.8562	-5.9440	61.6134	99.9567	
   730	-4.3776	 0.5741	-3.8034	-4.9518	-4.4969	 0.8916	-3.6053	-5.3886	-4.5273	 0.7903	-3.7371	-5.3175	61.7374	99.9436	
   731	-4.1207	 0.7441	-3.3765	-4.8648	-4.1043	 1.0322	-3.0721	-5.1366	-4.1472	 1.1184	-3.0289	-5.2655	61.4668	99.9547	
   732	-4.0089	 0.7626	-3.2461	-4.7715	-4.0174	 1.0294	-2.9880	-5.0469	-4.1032	 1.1083	-2.9949	-5.2113	61.4560	99.9541	
   733	-4.0540	 0.7195	-3.3344	-4.7735	-4.0324	 1.0203	-3.0121	-5.0528	-4.0953	 1.1375	-2.9577	-5.2327	61.3309	99.9552	
   734	-4.0206	 0.7072	-3.3134	-4.7278	-3.9456	 1.0175	-2.9280	-4.9632	-4.0308	 1.1520	-2.8788	-5.1828	61.3419	99.9531	
   735	-3.9353	 0.7098	-3.2254	-4.6452	-3.8578	 1.0291	-2.8288	-4.8870	-3.9216	 1.1691	-2.7525	-5.0906	61.3999	99.9541	
   736	-3.9294	 0.6649	-3.2644	-4.5944	-3.8620	 0.9574	-2.9046	-4.8194	-3.9078	 1.0672	-2.8406	-4.9748	61.6744	99.9544	
   737	-4.0285	 0.5734	-3.4550	-4.6019	-3.9823	 0.8846	-3.0976	-4.8670	-3.9347	 0.9160	-3.0187	-4.8506	62.0958	99.9529	
   738	-4.1364	 0.4765	-3.6598	-4.6129	-4.1744	 0.8238	-3.3506	-4.9982	-4.0570	 0.7685	-3.2885	-4.8254	62.2689	99.9506	
   739	-4.2011	 0.3894	-3.8117	-4.5905	-4.3189	 0.7087	-3.6102	-5.0277	-4.2128	 0.5884	-3.6245	-4.8011	62.4288	99.9490	
   740	-4.2688	 0.3973	-3.8714	-4.6661	-4.3999	 0.6874	-3.7126	-5.0874	-4.3214	 0.5840	-3.7374	-4.9052	62.3232	99.9510	
   741	-4.3002	 0.4430	-3.8570	-4.7432	-4.4476	 0.7416	-3.7060	-5.1892	-4.3490	 0.6653	-3.6837	-5.0142	62.1372	99.9542	
   742	-4.2982	 0.4765	-3.8216	-4.7747	-4.4376	 0.7891	-3.6484	-5.2268	-4.3635	 0.7546	-3.6090	-5.1180	61.8565	99.9552	
   743	-4.2962	 0.5099	-3.7862	-4.8062	-4.4568	 0.8329	-3.6240	-5.2897	-4.3616	 0.7925	-3.5690	-5.1540	61.8107	99.9559	
   744	-4.3649	 0.5011	-3.8637	-4.8660	-4.4877	 0.8003	-3.6874	-5.2881	-4.4181	 0.8073	-3.6108	-5.2254	61.7173	99.9582	
   745	-4.4600	 0.4764	-3.9835	-4.9365	-4.6347	 0.7667	-3.8680	-5.4016	-4.6549	 0.7866	-3.8684	-5.4414	61.3035	99.9570	
   746	-5.0269	 0.3953	-4.6315	-5.4221	-5.2288	 0.7811	-4.4477	-6.0099	-5.1701	 0.9284	-4.2417	-6.0983	60.3112	99.9653	
   747	-5.2288	 0.5809	-4.6478	-5.8098	-5.3166	 1.0185	-4.2981	-6.3352	-5.3116	 1.2717	-4.0399	-6.5832	59.5890	99.9641	
   748	-5.2671	 0.6548	-4.6121	-5.9219	-5.3033	 1.1234	-4.1798	-6.4268	-5.3261	 1.3610	-3.9651	-6.6870	59.5045	99.9587	
   749	-5.0503	 0.7200	-4.3302	-5.7704	-4.9958	 1.1710	-3.8248	-6.1669	-4.8110	 1.3418	-3.4693	-6.1527	60.6622	99.9617	
   750	-4.1187	 0.4871	-3.6315	-4.6059	-4.1175	 0.6783	-3.4393	-4.7959	-3.9576	 0.5957	-3.3619	-4.5532	63.1613	99.9575	
   751	-3.5284	 0.5339	-2.9943	-4.0623	-3.4659	 0.7818	-2.6841	-4.2478	-3.4190	 0.9095	-2.5095	-4.3283	62.3558	99.9626	
   752	-3.2116	 0.7074	-2.5040	-3.9190	-3.1468	 0.9056	-2.2411	-4.0525	-3.0816	 1.0279	-2.0537	-4.1093	62.6497	99.9654	
   753	-3.1498	 0.5992	-2.5505	-3.7490	-3.1100	 0.7895	-2.3204	-3.8996	-3.1085	 0.8767	-2.2317	-3.9851	62.7258	99.9614	
   754	-3.2577	 0.5023	-2.7553	-3.7601	-3.1576	 0.7192	-2.4383	-3.8769	-3.1617	 0.8322	-2.3295	-3.9939	62.6856	99.9597	
   755	-3.2675	 0.4803	-2.7871	-3.7479	-3.1442	 0.6997	-2.4445	-3.8439	-3.1637	 0.7943	-2.3694	-3.9579	62.7778	99.9567	
   756	-3.4637	 0.3306	-3.1329	-3.7943	-3.5494	 0.5930	-2.9564	-4.1424	-3.6656	 0.6989	-2.9667	-4.3644	61.8292	99.9576	
   757	-4.6454	 0.5107	-4.1346	-5.1561	-4.6231	 0.9675	-3.6556	-5.5907	-4.4177	 1.3102	-3.1075	-5.7277	60.4229	99.9739	
   758	-4.2256	 0.6974	-3.5281	-4.9230	-3.8829	 1.0969	-2.7860	-4.9799	-3.6428	 1.3869	-2.2559	-5.0296	61.7979	99.9659	
   759	-3.7117	 0.7469	-2.9647	-4.4586	-3.3800	 1.1382	-2.2418	-4.5183	-3.2099	 1.3792	-1.8308	-4.5890	62.0754	99.9606	
   760	-3.8382	 0.6227	-3.2154	-4.4610	-3.6882	 0.9518	-2.7364	-4.6401	-3.7434	 1.2892	-2.4542	-5.0325	60.9802	99.9651	
   761	-4.3462	 0.6736	-3.6725	-5.0199	-4.1528	 1.0721	-3.0807	-5.2249	-3.9730	 1.4077	-2.5654	-5.3806	61.0688	99.9704	
   762	-4.2992	 0.6050	-3.6941	-4.9042	-4.1929	 1.0063	-3.1865	-5.1993	-4.0118	 1.2739	-2.7379	-5.2856	61.1810	99.9687	
   763	-4.3757	 0.6076	-3.7680	-4.9833	-4.3006	 1.0242	-3.2765	-5.3249	-4.1434	 1.3168	-2.8265	-5.4601	60.8468	99.9695	
   764	-4.4590	 0.6384	-3.8205	-5.0974	-4.4068	 1.0707	-3.3361	-5.4775	-4.1986	 1.3569	-2.8417	-5.5554	60.8045	99.9710	
   765	-4.2687	 0.6877	-3.5809	-4.9565	-4.1478	 1.0336	-3.1141	-5.1814	-3.9782	 1.3064	-2.6718	-5.2846	61.3182	99.9706	
   766	-3.4627	 0.4926	-2.9700	-3.9553	-3.2411	 0.6549	-2.5862	-3.8961	-2.9157	 0.6625	-2.2532	-3.5780	64.2515	99.9660	
   767	-2.5095	 0.4823	-2.0270	-2.9918	-2.3747	 0.5839	-1.7907	-2.9587	-2.2263	 0.6874	-1.5389	-2.9136	64.0666	99.9701	
   768	-2.1721	 0.7166	-1.4554	-2.8887	-1.9720	 0.7721	-1.1999	-2.7442	-1.8139	 0.7777	-1.0362	-2.5915	64.7664	99.9648	
   769	-2.1024	 0.7421	-1.3602	-2.8446	-1.8835	 0.7980	-1.0855	-2.6815	-1.7106	 0.8034	-0.9072	-2.5139	64.8616	99.9648	
   770	-2.1505	 0.6488	-1.5016	-2.7993	-1.9102	 0.7126	-1.1975	-2.6229	-1.7468	 0.7202	-1.0265	-2.4669	64.9071	99.9635	
   771	-2.1878	 0.5942	-1.5935	-2.7820	-1.9185	 0.6938	-1.2248	-2.6124	-1.7481	 0.6949	-1.0531	-2.4429	64.9091	99.9608	
   772	-2.0897	 0.5238	-1.5658	-2.6136	-1.8341	 0.6479	-1.1862	-2.4821	-1.7698	 0.6450	-1.1247	-2.4147	64.6736	99.9547	
   773	-2.3625	-0.0589	-2.4213	-2.3036	-2.4263	 0.1929	-2.2334	-2.6193	-2.6458	 0.2129	-2.4329	-2.8586	63.0218	99.9459	
   774	-4.1149	-0.0269	-4.1417	-4.0880	-4.0398	 0.5178	-3.5220	-4.5576	-3.7195	 0.7643	-2.9552	-4.4838	61.6681	99.9676	
   775	-3.9943	 0.1421	-3.8520	-4.1364	-3.6129	 0.6237	-2.9891	-4.2367	-3.2256	 0.9529	-2.2726	-4.1784	62.4274	99.9696	
   776	-3.2773	 0.4583	-2.8189	-3.7357	-2.9112	 0.8406	-2.0705	-3.7518	-2.6277	 1.0574	-1.5703	-3.6850	63.0590	99.9635	
   777	-3.3420	 0.5164	-2.8255	-3.8585	-3.1944	 0.8354	-2.3590	-4.0298	-3.1868	 1.0867	-2.1001	-4.2734	61.8810	99.9631	
   778	-3.2509	 0.1837	-3.0671	-3.4347	-3.0805	 0.2954	-2.7852	-3.3760	-2.8188	 0.1940	-2.6248	-3.0127	64.9799	99.9598	
   779	-2.4517	 0.0168	-2.4348	-2.4685	-2.2893	 0.1789	-2.1103	-2.4683	-1.9459	 0.0727	-1.8732	-2.0184	65.5946	99.9612	
   780	-1.8544	 0.1807	-1.6737	-2.0351	-1.7404	 0.2618	-1.4786	-2.0023	-1.6650	 0.2059	-1.4592	-1.8708	65.1720	99.9583	
   781	-1.9211	 0.2053	-1.7157	-2.1264	-1.7062	 0.3517	-1.3545	-2.0580	-1.6131	 0.3476	-1.2655	-1.9606	64.9497	99.9563	
   782	-1.7740	 0.2449	-1.5290	-2.0190	-1.4698	 0.4255	-1.0442	-1.8954	-1.3658	 0.4482	-0.9176	-1.8139	65.0052	99.9541	
   783	-1.5259	 0.1192	-1.4067	-1.6451	-1.2132	 0.3455	-0.8678	-1.5588	-1.1783	 0.3779	-0.8004	-1.5560	64.9146	99.9487	
   784	-2.5156	-0.6346	-3.1500	-1.8810	-2.4394	-0.4100	-2.8495	-2.0295	-2.7305	-0.3164	-3.0469	-2.4140	63.4430	99.9437	
   785	-4.3935	-0.4196	-4.8129	-3.9740	-4.0186	-0.1198	-4.1384	-3.8989	-3.7818	 0.0525	-3.7293	-3.8342	63.5450	99.9614	
   786	-4.2130	-0.2470	-4.4599	-3.9661	-3.8132	 0.1705	-3.6427	-3.9838	-3.3721	 0.4598	-2.9123	-3.8318	63.1841	99.9714	
   787	-3.6363	 0.1466	-3.4896	-3.7830	-3.4181	 0.4786	-2.9395	-3.8968	-3.3386	 0.6149	-2.7237	-3.9534	62.7520	99.9554	
   788	-3.6628	-0.1597	-3.8224	-3.5032	-3.4104	-0.1394	-3.5498	-3.2711	-3.0436	-0.3343	-3.3779	-2.7092	66.1933	99.9596	
   789	-2.6097	-0.4973	-3.1069	-2.1124	-2.4278	-0.3338	-2.7616	-2.0941	-2.0996	-0.5597	-2.6593	-1.5398	66.4270	99.9506	
   790	-2.2791	-0.2349	-2.5139	-2.0442	-2.2449	-0.1816	-2.4265	-2.0633	-2.0844	-0.5138	-2.5982	-1.5706	66.4756	99.9450	
   791	-2.3115	-0.2059	-2.5173	-2.1056	-2.1505	-0.0554	-2.2059	-2.0952	-1.8918	-0.3604	-2.2521	-1.5313	66.4737	99.9423	
   792	-2.1203	-0.1398	-2.2600	-1.9805	-1.8740	 0.0842	-1.7898	-1.9583	-1.6518	-0.0313	-1.6831	-1.6204	65.6422	99.9489	
   793	-1.8163	-0.1837	-1.9999	-1.6326	-1.4229	 0.1080	-1.3149	-1.5309	-1.2315	 0.0883	-1.1432	-1.3196	65.5131	99.9461	
   794	-2.5440	-0.8291	-3.3730	-1.7150	-2.2446	-0.8042	-3.0488	-1.4405	-2.5290	-0.9789	-3.5079	-1.5499	65.9527	99.9227	
   795	-4.7643	-1.0771	-5.8414	-3.6872	-4.6609	-0.6882	-5.3490	-3.9728	-4.5190	-0.4060	-4.9250	-4.1130	62.2689	99.9682	
   796	-4.6073	-0.5798	-5.1870	-4.0275	-4.1564	-0.3692	-4.5256	-3.7873	-3.8850	-0.0958	-3.9808	-3.7891	63.7809	99.9708	
   797	-4.1581	-0.3271	-4.4851	-3.8311	-3.9535	-0.1219	-4.0754	-3.8316	-3.8804	-0.0072	-3.8877	-3.8731	63.3637	99.9600	
   798	-4.1925	-0.6219	-4.8143	-3.5706	-3.9106	-0.7602	-4.6708	-3.1505	-3.7157	-0.8881	-4.6038	-2.8275	66.3341	99.9630	
   799	-3.0255	-0.7624	-3.7878	-2.2632	-2.7935	-0.7626	-3.5561	-2.0310	-2.5685	-0.7577	-3.3262	-1.8107	66.0528	99.9685	
   800	-2.4831	-0.3732	-2.8562	-2.1100	-2.3016	-0.4097	-2.7113	-1.8920	-2.2679	-0.7351	-3.0030	-1.5327	66.8556	99.9381	
   801	-2.4528	-0.4356	-2.8883	-2.0171	-2.3092	-0.2897	-2.5989	-2.0195	-2.1114	-0.5423	-2.6538	-1.5690	66.2402	99.9442	
   802	-2.2762	-0.3300	-2.6061	-1.9463	-2.0920	-0.1722	-2.2642	-1.9198	-1.8575	-0.4377	-2.2953	-1.4197	66.4270	99.9430	
   803	-2.1948	-0.3942	-2.5889	-1.8007	-1.9600	-0.1477	-2.1077	-1.8123	-1.6470	-0.4329	-2.0799	-1.2140	66.5649	99.9385	
   804	-3.1021	-1.3406	-4.4427	-1.7615	-3.2153	-1.2805	-4.4958	-1.9348	-3.6511	-1.2413	-4.8924	-2.4097	63.7437	99.9470	
   805	-5.2076	-1.0843	-6.2918	-4.1233	-4.9090	-0.7137	-5.6227	-4.1954	-4.5940	-0.5004	-5.0943	-4.0935	63.2372	99.9661	
   806	-4.5093	-0.6502	-5.1593	-3.8591	-4.0720	-0.4150	-4.4870	-3.6571	-3.7810	-0.1800	-3.9610	-3.6010	63.9673	99.9687	
   807	-4.1140	-0.4459	-4.5598	-3.6682	-3.9559	-0.2894	-4.2453	-3.6665	-3.9205	-0.1663	-4.0868	-3.7541	63.4441	99.9626	
   808	-4.0131	-0.7565	-4.7695	-3.2566	-3.6775	-0.8682	-4.5457	-2.8093	-3.3058	-0.9710	-4.2769	-2.3347	66.8998	99.9694	
   809	-2.6332	-0.6082	-3.2413	-2.0250	-2.4035	-0.5405	-2.9439	-1.8631	-2.2251	-0.7705	-2.9957	-1.4545	66.6625	99.9462	
   810	-2.3763	-0.5835	-2.9597	-1.7928	-2.2489	-0.5023	-2.7513	-1.7466	-2.1337	-0.7275	-2.8612	-1.4062	66.3340	99.9464	
   811	-2.3086	-0.4462	-2.7547	-1.8625	-2.0986	-0.2869	-2.3855	-1.8118	-1.8266	-0.5783	-2.4049	-1.2481	66.7528	99.9417	
   812	-2.1409	-0.3458	-2.4865	-1.7951	-1.8781	-0.1120	-1.9901	-1.7662	-1.5602	-0.3559	-1.9161	-1.2043	66.5181	99.9421	
   813	-2.2812	-0.7040	-2.9851	-1.5772	-2.0367	-0.5954	-2.6320	-1.4414	-1.9475	-0.8231	-2.7707	-1.1243	66.6152	99.9386	
   814	-4.0260	-1.5548	-5.5807	-2.4711	-4.0590	-1.4450	-5.5040	-2.6142	-4.4115	-1.2847	-5.6962	-3.1267	63.1103	99.9546	
   815	-5.0065	-0.9963	-6.0027	-4.0103	-4.5966	-0.7046	-5.3011	-3.8920	-4.2815	-0.4951	-4.7767	-3.7863	63.8585	99.9662	
   816	-4.4033	-0.5868	-4.9900	-3.8166	-4.0636	-0.3961	-4.4597	-3.6676	-3.9462	-0.1696	-4.1157	-3.7765	63.5206	99.9657	
   817	-4.2660	-0.5691	-4.8351	-3.6969	-4.0209	-0.6608	-4.6818	-3.3601	-3.8545	-0.7393	-4.5938	-3.1152	65.7141	99.9640	
   818	-3.2060	-0.9349	-4.1408	-2.2711	-2.9171	-1.0172	-3.9343	-1.9000	-2.5651	-1.0621	-3.6272	-1.5029	67.0365	99.9724	
   819	-2.5401	-0.6170	-3.1569	-1.9231	-2.2898	-0.7069	-2.9967	-1.5829	-2.2481	-0.9683	-3.2164	-1.2797	67.1866	99.9445	
   820	-2.4891	-0.6187	-3.1077	-1.8704	-2.2898	-0.5824	-2.8723	-1.7075	-2.1922	-0.7506	-2.9429	-1.4415	66.3810	99.9499	
   821	-2.3204	-0.5016	-2.8219	-1.8188	-2.1078	-0.3201	-2.4279	-1.7877	-1.8397	-0.5863	-2.4260	-1.2533	66.6129	99.9423	
   822	-2.1713	-0.5737	-2.7450	-1.5976	-1.8897	-0.3128	-2.2025	-1.5770	-1.6121	-0.6202	-2.2323	-0.9919	66.7966	99.9317	
   823	-3.3856	-1.5265	-4.9119	-1.8591	-3.4166	-1.3746	-4.7912	-2.0420	-3.6780	-1.3924	-5.0704	-2.2855	64.2474	99.9436	
   824	-5.0605	-1.1899	-6.2503	-3.8706	-4.7720	-0.8522	-5.6241	-3.9198	-4.4676	-0.6445	-5.1122	-3.8230	63.5154	99.9671	
   825	-4.4612	-0.7021	-5.1632	-3.7591	-4.0970	-0.4716	-4.5687	-3.6255	-3.9100	-0.2090	-4.1189	-3.7009	63.5329	99.9684	
   826	-4.2817	-0.5463	-4.8279	-3.7355	-4.0594	-0.5734	-4.6328	-3.4860	-3.9381	-0.6305	-4.5686	-3.3075	65.1892	99.9610	
   827	-3.4227	-1.0001	-4.4228	-2.4226	-3.0382	-1.1043	-4.1425	-1.9340	-2.7427	-1.1696	-3.9122	-1.5730	67.2259	99.9671	
   828	-2.3302	-0.8141	-3.1442	-1.5162	-2.3850	-0.7230	-3.1080	-1.6620	-2.1876	-0.9072	-3.0947	-1.2803	66.1450	99.9592	
   829	-2.4616	-0.7314	-3.1929	-1.7303	-2.2856	-0.7598	-3.0453	-1.5259	-2.3093	-0.9195	-3.2288	-1.3897	66.3815	99.9485	
   830	-2.3822	-0.6838	-3.0659	-1.6984	-2.1695	-0.5097	-2.6792	-1.6599	-1.9910	-0.6778	-2.6688	-1.3130	66.1939	99.9460	
   831	-2.1861	-0.6794	-2.8653	-1.5067	-1.8797	-0.3897	-2.2694	-1.4900	-1.5575	-0.6729	-2.2304	-0.8845	66.8411	99.9336	
   832	-3.0923	-1.4639	-4.5561	-1.6285	-2.8442	-1.5128	-4.3570	-1.3315	-3.0997	-1.6676	-4.7673	-1.4321	66.3824	99.9327	
   833	-5.2734	-1.6239	-6.8972	-3.6495	-5.1302	-1.4009	-6.5311	-3.7293	-5.2430	-1.1015	-6.3446	-4.1414	62.4690	99.9641	
   834	-4.7937	-0.9979	-5.7916	-3.7958	-4.4035	-0.7539	-5.1574	-3.6497	-4.1440	-0.5467	-4.6908	-3.5972	63.9934	99.9665	
   835	-4.1660	-0.6061	-4.7720	-3.5600	-3.9032	-0.5066	-4.4098	-3.3966	-3.8619	-0.3882	-4.2501	-3.4735	64.0620	99.9619	
   836	-4.1827	-0.8904	-5.0730	-3.2924	-3.9598	-0.9837	-4.9435	-2.9762	-3.6919	-1.1679	-4.8598	-2.5239	66.6684	99.9620	
   837	-2.9648	-1.0326	-3.9972	-1.9322	-2.7266	-0.9850	-3.7116	-1.7417	-2.3230	-1.0627	-3.3857	-1.2603	66.8934	99.9683	
   838	-2.1919	-0.6345	-2.8263	-1.5575	-2.1160	-0.7125	-2.8285	-1.4035	-2.1034	-0.8807	-2.9841	-1.2226	66.5238	99.9561	
   839	-2.1615	-0.5517	-2.7131	-1.6098	-2.0041	-0.4097	-2.4138	-1.5946	-1.7199	-0.7344	-2.4544	-0.9854	67.0338	99.9425	
   840	-2.1448	-0.5579	-2.7026	-1.5870	-2.0041	-0.4097	-2.4138	-1.5946	-1.7746	-0.6817	-2.4563	-1.0928	66.6609	99.9444	
   841	-2.0252	-0.5508	-2.5759	-1.4744	-1.7126	-0.2610	-1.9736	-1.4517	-1.2707	-0.5484	-1.8191	-0.7222	67.1121	99.9399	
   842	-2.5863	-1.2577	-3.8439	-1.3286	-2.4257	-1.3011	-3.7269	-1.1246	-2.5689	-1.5057	-4.0746	-1.0632	66.7179	99.9391	
   843	-4.8752	-1.6598	-6.5350	-3.2154	-4.8536	-1.3859	-6.2395	-3.4678	-4.9964	-1.0136	-6.0099	-3.9827	61.8952	99.9690	
   844	-4.7467	-1.0666	-5.8131	-3.6801	-4.3768	-0.7931	-5.1698	-3.5838	-4.0578	-0.6049	-4.6627	-3.4528	64.1377	99.9671	
   845	-4.1719	-0.7064	-4.8782	-3.4655	-3.9006	-0.5881	-4.4887	-3.3126	-3.8073	-0.4410	-4.2483	-3.3662	64.1159	99.9650	
   846	-3.9729	-0.7970	-4.7698	-3.1759	-3.7409	-0.9620	-4.7029	-2.7790	-3.5834	-1.1635	-4.7469	-2.4197	66.8135	99.9591	
   847	-3.0962	-1.0951	-4.1912	-2.0011	-2.7357	-1.1427	-3.8785	-1.5931	-2.3796	-1.1704	-3.5500	-1.2090	67.2199	99.9702	
   848	-2.2204	-0.6838	-2.9040	-1.5366	-2.0466	-0.7674	-2.8141	-1.2792	-2.0356	-1.0481	-3.0836	-0.9874	67.2356	99.9438	
   849	-2.2920	-0.7428	-3.0346	-1.5492	-2.0801	-0.7185	-2.7985	-1.3616	-2.0014	-0.8803	-2.8817	-1.1210	66.6160	99.9497	
   850	-2.1861	-0.6794	-2.8653	-1.5067	-2.0175	-0.5146	-2.5321	-1.5030	-1.8114	-0.7775	-2.5889	-1.0337	66.6610	99.9418	
   851	-2.1105	-0.6987	-2.8091	-1.4119	-1.8822	-0.4327	-2.3149	-1.4495	-1.5279	-0.7163	-2.2441	-0.8115	66.8883	99.9399	
   852	-2.8795	-1.4656	-4.3450	-1.4140	-2.6922	-1.5176	-4.2098	-1.1746	-2.8445	-1.6602	-4.5047	-1.1842	66.5745	99.9430	
   853	-5.0792	-1.7981	-6.8772	-3.2812	-5.0148	-1.5387	-6.5535	-3.4762	-5.1595	-1.2103	-6.3698	-3.9490	62.2200	99.9654	
   854	-4.8045	-1.1819	-5.9863	-3.6227	-4.3834	-0.9078	-5.2912	-3.4757	-4.0459	-0.7448	-4.7907	-3.3011	64.4660	99.9647	
   855	-3.9121	-0.7767	-4.6887	-3.1353	-3.5598	-0.5895	-4.1492	-2.9703	-3.3619	-0.4534	-3.8153	-2.9084	64.5599	99.9633	
   856	-3.8709	-0.8005	-4.6713	-3.0704	-3.6875	-0.9158	-4.6033	-2.7717	-3.5216	-1.0771	-4.5986	-2.4444	66.4298	99.9615	
   857	-2.9736	-1.1831	-4.1566	-1.7906	-2.6413	-1.2655	-3.9068	-1.3759	-2.3276	-1.2738	-3.6014	-1.0537	67.2690	99.9720	
   858	-2.3332	-0.8642	-3.1973	-1.4690	-2.1535	-0.9843	-3.1378	-1.1693	-2.1572	-1.1830	-3.3402	-0.9742	67.1419	99.9514	
   859	-2.3381	-0.8026	-3.1406	-1.5355	-2.0901	-0.7660	-2.8561	-1.3241	-1.9896	-0.8976	-2.8872	-1.0919	66.6152	99.9512	
   860	-2.1792	-0.7075	-2.8866	-1.4717	-1.9598	-0.5212	-2.4810	-1.4387	-1.6831	-0.7612	-2.4443	-0.9218	66.7983	99.9444	
   861	-2.0968	-0.7550	-2.8517	-1.3418	-1.8304	-0.4152	-2.2456	-1.4152	-1.4384	-0.7112	-2.1496	-0.7272	66.8858	99.9349	
   862	-2.8177	-1.4286	-4.2462	-1.3892	-2.4833	-1.5435	-4.0268	-0.9398	-2.7583	-1.7183	-4.4766	-1.0399	67.0079	99.9302	
   863	-5.1950	-1.8835	-7.0784	-3.3115	-5.1618	-1.5723	-6.7341	-3.5896	-5.2153	-1.3054	-6.5208	-3.9098	62.4148	99.9641	
   864	-4.9222	-1.3008	-6.2229	-3.6215	-4.4861	-1.0529	-5.5391	-3.4333	-4.1288	-0.8685	-4.9973	-3.2602	64.6047	99.9676	
   865	-4.1474	-0.8692	-5.0166	-3.2782	-3.8028	-0.7780	-4.5808	-3.0249	-3.7427	-0.6716	-4.4143	-3.0710	64.6329	99.9596	
   866	-4.1896	-1.0074	-5.1970	-3.1822	-3.9907	-1.1407	-5.1313	-2.8500	-3.7740	-1.4015	-5.1755	-2.3724	67.0557	99.9568	
   867	-3.3061	-1.3337	-4.6397	-1.9724	-3.0105	-1.3781	-4.3886	-1.6325	-2.6558	-1.3376	-3.9934	-1.3181	66.8959	99.9756	
   868	-2.4009	-0.8563	-3.2571	-1.5445	-2.1877	-1.0742	-3.2619	-1.1136	-2.3045	-1.3211	-3.6257	-0.9833	67.4836	99.9455	
   869	-2.6902	-0.9973	-3.6873	-1.6929	-2.4242	-1.0235	-3.4476	-1.4008	-2.3993	-1.1824	-3.5817	-1.2168	66.8074	99.9475	
   870	-2.4371	-0.8942	-3.3312	-1.5430	-2.0734	-0.7283	-2.8016	-1.3452	-1.8284	-0.8614	-2.6898	-0.9669	66.7506	99.9473	
   871	-2.3754	-1.0024	-3.3777	-1.3730	-1.9931	-0.8458	-2.8389	-1.1474	-1.8541	-0.9872	-2.8413	-0.8667	66.7524	99.9406	
   872	-3.8711	-1.8171	-5.6880	-2.0540	-3.8266	-1.8164	-5.6430	-2.0103	-4.2956	-1.7539	-6.0495	-2.5416	64.1673	99.9433	
   873	-5.3744	-1.4585	-6.8327	-3.9159	-4.9615	-1.2435	-6.2050	-3.7180	-4.7306	-1.0488	-5.7795	-3.6817	64.2055	99.9648	
   874	-4.4907	-1.0586	-5.5492	-3.4321	-4.1178	-0.8301	-4.9479	-3.2877	-3.8690	-0.6500	-4.5190	-3.2190	64.3216	99.9657	
   875	-4.2239	-0.8666	-5.0904	-3.3573	-3.9874	-0.8343	-4.8217	-3.1532	-3.8604	-0.8531	-4.7135	-3.0072	65.1913	99.9605	
   876	-3.8180	-1.3497	-5.1676	-2.4683	-3.4616	-1.5264	-4.9881	-1.9353	-3.1615	-1.6314	-4.7930	-1.5300	67.7097	99.9686	
   877	-2.5696	-0.9735	-3.5429	-1.5961	-2.2303	-1.0584	-3.2887	-1.1720	-2.0816	-1.1985	-3.2800	-0.8830	67.4611	99.9561	
   878	-2.2920	-0.8880	-3.1799	-1.4040	-2.1159	-0.9615	-3.0774	-1.1544	-2.0652	-1.1272	-3.1924	-0.9378	66.9963	99.9544	
   879	-2.2253	-0.7674	-2.9926	-1.4579	-2.0592	-0.7335	-2.7927	-1.3257	-1.8554	-0.8900	-2.7454	-0.9653	66.8021	99.9574	
   880	-2.0429	-0.5614	-2.6041	-1.4815	-1.8337	-0.4726	-2.3063	-1.3612	-1.4996	-0.7849	-2.2845	-0.7145	67.4959	99.9475	
   881	-2.1792	-0.7075	-2.8866	-1.4717	-2.0400	-0.6527	-2.6927	-1.3873	-1.8982	-0.8546	-2.7527	-1.0435	66.6628	99.9508	
   882	-2.3960	-0.9179	-3.3138	-1.4780	-2.1067	-0.9283	-3.0350	-1.1785	-2.0277	-1.1413	-3.1690	-0.8862	67.2285	99.9445	
   883	-3.8377	-1.6842	-5.5217	-2.1536	-3.9504	-1.5730	-5.5233	-2.3775	-4.2220	-1.4397	-5.6617	-2.7822	63.4529	99.9597	
   884	-4.7202	-1.3412	-6.0613	-3.3791	-4.3867	-1.0896	-5.4763	-3.2971	-4.0728	-1.0185	-5.0913	-3.0543	64.8279	99.9613	
   885	-3.8778	-1.0628	-4.9405	-2.8150	-3.3374	-0.8840	-4.2214	-2.4535	-2.9915	-0.8053	-3.7968	-2.1861	65.8712	99.9606	
   886	-3.4835	-1.0204	-4.5038	-2.4632	-3.0233	-0.8462	-3.8694	-2.1772	-2.7487	-0.7932	-3.5420	-1.9554	65.8238	99.9585	
   887	-3.2903	-0.9209	-4.2111	-2.3695	-2.7994	-0.7384	-3.5378	-2.0610	-2.6205	-0.6543	-3.2749	-1.9661	65.5465	99.9548	
   888	-3.4394	-0.8488	-4.2880	-2.5906	-3.2757	-0.6944	-3.9700	-2.5813	-3.2237	-0.6149	-3.8386	-2.6087	64.4453	99.9606	
   889	-3.6904	-0.7731	-4.4635	-2.9173	-3.4227	-0.6035	-4.0262	-2.8193	-3.2231	-0.4797	-3.7028	-2.7433	64.6035	99.9661	
   890	-3.4354	-0.7819	-4.2172	-2.6536	-3.2932	-0.7465	-4.0397	-2.5467	-3.3040	-0.6880	-3.9919	-2.6159	64.7178	99.9626	
   891	-3.8416	-1.4606	-5.3021	-2.3810	-3.9178	-1.6363	-5.5540	-2.2816	-4.0620	-1.9190	-5.9810	-2.1429	66.4326	99.9486	
   892	-4.3271	-1.7512	-6.0782	-2.5759	-4.2518	-2.0182	-6.2700	-2.2337	-4.3546	-2.2799	-6.6345	-2.0746	67.1754	99.9516	
   893	-4.1878	-1.8453	-6.0331	-2.3425	-3.9987	-2.0311	-6.0298	-1.9676	-4.0040	-2.2761	-6.2801	-1.7278	67.4588	99.9495	
   894	-3.6719	-1.6172	-5.2890	-2.0548	-3.3755	-1.6681	-5.0436	-1.7075	-3.2687	-1.8556	-5.1243	-1.4130	67.2916	99.9491	
   895	-3.1492	-1.2720	-4.4211	-1.8772	-2.8660	-1.2630	-4.1291	-1.6031	-2.6130	-1.4956	-4.1085	-1.1173	67.5151	99.9508	
   896	-2.8579	-1.0976	-3.9554	-1.7603	-2.4943	-1.1074	-3.6017	-1.3870	-2.3282	-1.2865	-3.6147	-1.0417	67.3683	99.9489	
   897	-2.8471	-1.2041	-4.0512	-1.6430	-2.6496	-1.2844	-3.9340	-1.3653	-2.5478	-1.5910	-4.1388	-0.9568	67.7185	99.9450	
   898	-4.0760	-1.5364	-5.6122	-2.5396	-4.2462	-1.4198	-5.6660	-2.8265	-4.2997	-1.2171	-5.5168	-3.0825	63.2801	99.9750	
   899	-4.8291	-1.1643	-5.9933	-3.6648	-4.5881	-0.9347	-5.5228	-3.6535	-4.2557	-0.8595	-5.1153	-3.3961	64.4925	99.9662	
   900	-4.7045	-1.0736	-5.7780	-3.6309	-4.5347	-0.8885	-5.4232	-3.6462	-4.2682	-0.8548	-5.1231	-3.4133	64.4816	99.9649	
   901	-4.4407	-1.0770	-5.5176	-3.3637	-4.2363	-0.9987	-5.2350	-3.2377	-3.9169	-1.0835	-5.0004	-2.8333	65.7164	99.9633	
   902	-3.8435	-1.3488	-5.1922	-2.4947	-3.6430	-1.4009	-5.0439	-2.2422	-3.3254	-1.4732	-4.7986	-1.8521	66.7616	99.9703	
   903	-2.8422	-0.9753	-3.8174	-1.8669	-2.5328	-1.0200	-3.5527	-1.5129	-2.1974	-1.0969	-3.2943	-1.1003	67.2672	99.9678	
   904	-2.4940	-0.8476	-3.3415	-1.6465	-2.2112	-0.8531	-3.0643	-1.3581	-1.9863	-0.9569	-2.9432	-1.0293	66.9877	99.9603	
   905	-2.4156	-0.8167	-3.2322	-1.5988	-2.1301	-0.8318	-2.9619	-1.2984	-1.9350	-0.9504	-2.8854	-0.9845	67.0349	99.9582	
   906	-2.4911	-0.9426	-3.4336	-1.5485	-2.2345	-1.0056	-3.2401	-1.2290	-2.0678	-1.1779	-3.2456	-0.8898	67.3690	99.9563	
   907	-2.7647	-1.1064	-3.8710	-1.6583	-2.4550	-1.1805	-3.6355	-1.2746	-2.2552	-1.3526	-3.6078	-0.9025	67.6053	99.9565	
   908	-2.8540	-1.1760	-4.0299	-1.6780	-2.5736	-1.2246	-3.7982	-1.3491	-2.3420	-1.4296	-3.7716	-0.9123	67.6544	99.9552	
   909	-2.9530	-1.2675	-4.2205	-1.6855	-2.7365	-1.2816	-4.0181	-1.4550	-2.4742	-1.5219	-3.9961	-0.9522	67.6110	99.9543	
   910	-3.0139	-1.2878	-4.3016	-1.7261	-2.7733	-1.2900	-4.0633	-1.4834	-2.5058	-1.5165	-4.0222	-0.9892	67.5623	99.9541	
   911	-2.9795	-1.2834	-4.2628	-1.6962	-2.7374	-1.2959	-4.0333	-1.4415	-2.5005	-1.5378	-4.0383	-0.9626	67.6115	99.9519	
   912	-2.9903	-1.3221	-4.3124	-1.6682	-2.7758	-1.3330	-4.1088	-1.4429	-2.5531	-1.5696	-4.1227	-0.9834	67.5191	99.9525	
   913	-3.0345	-1.3485	-4.3829	-1.6859	-2.8284	-1.3648	-4.1932	-1.4637	-2.6301	-1.5794	-4.2095	-1.0505	67.3784	99.9535	
   914	-3.0590	-1.3310	-4.3898	-1.7280	-2.8343	-1.3407	-4.1749	-1.4936	-2.6222	-1.5502	-4.1723	-1.0719	67.3768	99.9536	
   915	-3.0050	-1.2825	-4.2875	-1.7225	-2.7658	-1.2854	-4.0512	-1.4804	-2.5308	-1.5071	-4.0378	-1.0236	67.4691	99.9530	
   916	-2.9521	-1.2508	-4.2028	-1.7013	-2.7131	-1.2536	-3.9667	-1.4596	-2.4781	-1.4752	-3.9534	-1.0028	67.4682	99.9530	
   917	-2.9334	-1.2235	-4.1569	-1.7099	-2.6831	-1.2354	-3.9185	-1.4477	-2.4518	-1.4593	-3.9112	-0.9924	67.5151	99.9528	
   918	-2.9236	-1.2015	-4.1250	-1.7221	-2.6672	-1.2120	-3.8792	-1.4553	-2.4499	-1.4214	-3.8712	-1.0284	67.4202	99.9529	
   919	-2.9295	-1.1566	-4.0860	-1.7729	-2.6154	-1.1945	-3.8099	-1.4210	-2.4282	-1.3715	-3.7996	-1.0566	67.4185	99.9534	
   920	-2.8491	-1.0924	-3.9413	-1.7567	-2.4884	-1.1315	-3.6200	-1.3570	-2.3282	-1.2865	-3.6147	-1.0417	67.3687	99.9522	
   921	-2.7804	-1.0835	-3.8639	-1.6969	-2.4375	-1.1284	-3.5659	-1.3092	-2.3019	-1.2705	-3.5725	-1.0313	67.2753	99.9529	
   922	-2.7951	-1.0439	-3.8390	-1.7512	-2.4333	-1.0567	-3.4900	-1.3767	-2.3020	-1.1480	-3.4499	-1.1539	66.9439	99.9541	
   923	-2.5793	-0.8502	-3.4295	-1.7291	-2.2496	-0.7657	-3.0153	-1.4840	-2.1146	-0.8507	-2.9653	-1.2638	66.4272	99.9510	
   924	-2.3126	-0.6583	-2.9707	-1.6543	-2.1161	-0.4635	-2.5796	-1.6526	-1.8416	-0.7468	-2.5884	-1.0947	66.7532	99.9409	
   925	-2.1900	-0.6010	-2.7909	-1.5890	-1.9607	-0.4111	-2.3718	-1.5497	-1.6252	-0.7507	-2.3759	-0.8745	67.2159	99.9384	
   926	-2.1674	-0.6521	-2.8194	-1.5154	-1.9289	-0.4887	-2.4176	-1.4403	-1.6522	-0.7792	-2.4314	-0.8728	67.0777	99.9408	
   927	-2.2047	-0.7066	-2.9112	-1.4981	-1.9916	-0.5681	-2.5596	-1.4235	-1.7811	-0.8082	-2.5893	-0.9728	66.8005	99.9438	
   928	-2.2841	-0.7542	-3.0382	-1.5300	-2.0901	-0.6415	-2.7316	-1.4486	-1.9219	-0.8199	-2.7417	-1.1019	66.5210	99.9488	
   929	-2.3695	-0.7569	-3.1262	-1.6126	-2.1494	-0.6636	-2.8130	-1.4859	-2.0047	-0.8210	-2.8258	-1.1836	66.4744	99.9493	
   930	-2.3871	-0.7674	-3.1544	-1.6197	-2.1360	-0.6832	-2.8192	-1.4530	-2.0113	-0.8250	-2.8363	-1.1862	66.4743	99.9489	
   931	-2.4087	-0.8449	-3.2535	-1.5638	-2.1677	-0.8545	-3.0223	-1.3133	-2.1402	-0.9765	-3.1167	-1.1636	66.5696	99.9508	
   932	-2.8952	-1.4427	-4.3378	-1.4526	-3.0932	-1.4281	-4.5214	-1.6652	-3.3425	-1.5571	-4.8995	-1.7853	65.0622	99.9497	
   933	-4.5918	-1.3288	-5.9205	-3.2630	-4.3850	-1.0610	-5.4460	-3.3241	-4.1524	-0.9563	-5.1088	-3.1960	64.2047	99.9631	
   934	-4.1220	-1.0153	-5.1372	-3.1067	-3.6391	-0.7066	-4.3457	-2.9325	-3.2915	-0.5701	-3.8616	-2.7213	64.8554	99.9602	
   935	-3.3393	-0.7405	-4.0797	-2.5989	-2.7954	-0.4177	-3.2131	-2.3777	-2.4522	-0.3564	-2.8086	-2.0958	65.4185	99.9522	
   936	-2.9980	-0.5846	-3.5825	-2.4135	-2.7177	-0.3292	-3.0469	-2.3885	-2.6423	-0.3366	-2.9789	-2.3056	64.7477	99.9462	
   937	-3.5698	-0.7493	-4.3190	-2.8205	-3.4837	-0.7787	-4.2623	-2.7050	-3.2203	-0.9193	-4.1396	-2.3009	66.1439	99.9662	
   938	-2.8187	-1.1548	-3.9734	-1.6639	-2.6990	-1.1343	-3.8333	-1.5647	-2.1710	-1.2036	-3.3746	-0.9674	67.1729	99.9774	
   939	-2.0517	-0.7119	-2.7635	-1.3399	-1.9113	-0.8101	-2.7214	-1.1012	-1.8060	-1.0439	-2.8500	-0.7620	67.3729	99.9547	
   940	-2.1204	-0.7207	-2.8410	-1.3997	-1.9372	-0.6321	-2.5693	-1.3052	-1.6719	-0.9137	-2.5856	-0.7580	67.2679	99.9473	
   941	-2.1831	-0.7744	-2.9574	-1.4087	-1.9430	-0.7325	-2.6755	-1.2106	-1.7929	-0.9134	-2.7063	-0.8794	66.9421	99.9500	
   942	-2.2881	-0.8211	-3.1091	-1.4670	-2.0592	-0.7335	-2.7927	-1.3257	-1.8679	-0.8853	-2.7532	-0.9825	66.7074	99.9522	
   943	-2.4391	-0.9276	-3.3667	-1.5115	-2.2044	-0.9874	-3.1919	-1.2171	-2.1191	-1.1844	-3.3035	-0.9346	67.2316	99.9509	
   944	-3.2669	-1.3909	-4.6577	-1.8760	-3.3547	-1.4341	-4.7888	-1.9207	-3.5155	-1.4534	-4.9689	-2.0620	65.0701	99.9614	
   945	-4.5721	-1.2848	-5.8568	-3.2874	-4.4293	-1.0739	-5.5032	-3.3555	-4.1347	-0.9824	-5.1170	-3.1522	64.4384	99.9694	
   946	-4.4593	-1.1043	-5.5636	-3.3550	-4.2882	-0.8917	-5.1799	-3.3966	-3.9933	-0.8355	-4.8288	-3.1577	64.5377	99.9663	
   947	-4.3514	-1.0075	-5.3588	-3.3440	-4.1596	-0.8000	-4.9596	-3.3596	-3.9321	-0.7617	-4.6939	-3.1703	64.4891	99.9619	
   948	-4.2347	-0.9053	-5.1400	-3.3294	-3.9891	-0.7385	-4.7276	-3.2507	-3.8000	-0.6695	-4.4694	-3.1304	64.5404	99.9626	
   949	-4.0601	-0.8331	-4.8932	-3.2270	-3.7911	-0.7018	-4.4929	-3.0895	-3.6618	-0.5859	-4.2477	-3.0759	64.4481	99.9641	
   950	-3.9376	-0.7759	-4.7133	-3.1617	-3.7001	-0.6329	-4.3330	-3.0673	-3.5250	-0.5276	-4.0526	-2.9973	64.4993	99.9659	
   951	-3.8767	-0.7556	-4.6322	-3.1212	-3.6776	-0.6192	-4.2968	-3.0584	-3.5198	-0.5489	-4.0687	-2.9707	64.5417	99.9643	
   952	-3.8866	-0.7776	-4.6641	-3.1090	-3.6942	-0.6570	-4.3512	-3.0373	-3.5533	-0.5815	-4.1348	-2.9717	64.5391	99.9649	
   953	-3.8365	-0.7961	-4.6325	-3.0405	-3.6525	-0.6871	-4.3395	-2.9655	-3.5046	-0.6256	-4.1302	-2.8790	64.6801	99.9650	
   954	-3.7365	-0.8330	-4.5694	-2.9035	-3.5747	-0.7231	-4.2978	-2.8517	-3.4368	-0.6703	-4.1072	-2.7664	64.7261	99.9647	
   955	-3.6365	-0.8699	-4.5063	-2.7666	-3.5188	-0.7584	-4.2772	-2.7604	-3.4085	-0.7390	-4.1475	-2.6694	64.7688	99.9626	
   956	-3.6973	-0.8902	-4.5874	-2.8071	-3.5714	-0.7902	-4.3616	-2.7812	-3.5046	-0.7481	-4.2527	-2.7564	64.6234	99.9624	
   957	-3.7218	-0.8726	-4.5943	-2.8492	-3.5772	-0.7661	-4.3433	-2.8112	-3.4835	-0.7109	-4.1944	-2.7726	64.6272	99.9636	
   958	-3.6355	-0.8532	-4.4886	-2.7823	-3.4745	-0.7455	-4.2199	-2.7291	-3.3678	-0.6898	-4.0576	-2.6778	64.7255	99.9637	
   959	-3.5502	-0.8506	-4.4007	-2.6997	-3.3943	-0.7385	-4.1327	-2.6559	-3.2849	-0.6887	-3.9736	-2.5961	64.7740	99.9634	
   960	-3.5070	-0.8409	-4.3478	-2.6662	-3.3650	-0.7346	-4.0996	-2.6305	-3.2408	-0.6988	-3.9396	-2.5419	64.8685	99.9639	
   961	-3.4816	-0.8417	-4.3232	-2.6398	-3.3500	-0.7255	-4.0755	-2.6245	-3.2342	-0.6948	-3.9290	-2.5393	64.8207	99.9630	
   962	-3.4639	-0.8312	-4.2950	-2.6328	-3.3283	-0.7262	-4.0545	-2.6021	-3.2027	-0.7002	-3.9029	-2.5023	64.9157	99.9635	
   963	-3.4207	-0.8215	-4.2421	-2.5993	-3.2765	-0.7087	-3.9852	-2.5678	-3.1573	-0.6850	-3.8423	-2.4722	64.9168	99.9625	
   964	-3.3943	-0.8056	-4.1998	-2.5887	-3.2606	-0.6853	-3.9459	-2.5754	-3.1185	-0.6738	-3.7922	-2.4446	64.9650	99.9627	
   965	-3.3688	-0.8065	-4.1752	-2.5623	-3.2523	-0.6664	-3.9187	-2.5859	-3.1112	-0.6571	-3.7684	-2.4540	64.8706	99.9621	
   966	-3.3511	-0.7959	-4.1469	-2.5552	-3.2372	-0.6573	-3.8946	-2.5800	-3.1040	-0.6405	-3.7445	-2.4634	64.8235	99.9624	
   967	-3.3246	-0.7801	-4.1046	-2.5446	-3.1996	-0.6346	-3.8342	-2.5651	-3.0520	-0.6213	-3.6734	-2.4306	64.8728	99.9621	
   968	-3.2805	-0.7536	-4.0340	-2.5269	-3.1412	-0.6269	-3.7681	-2.5143	-3.0126	-0.5974	-3.6100	-2.4150	64.8733	99.9628	
   969	-3.2628	-0.7431	-4.0058	-2.5198	-3.1253	-0.6035	-3.7288	-2.5219	-3.0047	-0.5682	-3.5729	-2.4364	64.7797	99.9623	
   970	-3.2452	-0.7325	-3.9776	-2.5127	-3.1103	-0.5944	-3.7046	-2.5160	-2.9915	-0.5602	-3.5517	-2.4313	64.7797	99.9623	
   971	-3.2442	-0.7158	-3.9599	-2.5284	-3.1161	-0.5702	-3.6864	-2.5460	-3.0034	-0.5428	-3.5462	-2.4604	64.7320	99.9615	
   972	-3.2344	-0.6938	-3.9281	-2.5406	-3.0785	-0.5475	-3.6260	-2.5311	-2.9639	-0.5190	-3.4829	-2.4449	64.7814	99.9607	
   973	-3.1824	-0.6788	-3.8611	-2.5036	-3.0058	-0.5450	-3.5509	-2.4609	-2.9245	-0.4951	-3.4196	-2.4293	64.7350	99.9606	
   974	-3.1559	-0.6629	-3.8188	-2.4930	-2.9900	-0.5216	-3.5116	-2.4684	-2.9172	-0.4785	-3.3957	-2.4387	64.6874	99.9597	
   975	-3.1550	-0.6462	-3.8011	-2.5087	-2.9883	-0.4929	-3.4813	-2.4955	-2.8975	-0.4665	-3.3640	-2.4309	64.7356	99.9588	
   976	-3.1540	-0.6295	-3.7834	-2.5245	-2.9875	-0.4786	-3.4661	-2.5090	-2.8969	-0.4539	-3.3507	-2.4429	64.7356	99.9588	
   977	-3.1275	-0.6137	-3.7410	-2.5139	-2.9566	-0.4461	-3.4027	-2.5106	-2.8574	-0.4300	-3.2874	-2.4273	64.7373	99.9576	
   978	-3.0755	-0.5987	-3.6741	-2.4769	-2.9182	-0.4090	-3.3272	-2.5093	-2.8120	-0.4148	-3.2268	-2.3971	64.7379	99.9557	
