OxySoft export of:	C:\Users\TO3 TechSupport\Documents\Train2Adapt\Post_tests\T2A_36_POST_NIRS
Export date:	2022/12/20 12:45:43
Start of measurement:	2022-12-20 11:31:12.889

Datafile sample rate:	10.00	Hz
Datafile duration:	3389.100	s
Datafile total number of samples:	33891

Description:	

Optode-template:	PortaMon TSI Fit Factor
Optode distance (mm):	 35.00
Optode gradients (mm):	 5.00
DPF:	6.56

Device id:	291
# Receivers:	1
# Light sources:	6
# ADC:	2

Light source wavelengths:
device	index	wavelength
1	1	847	nm
1	2	761	nm
1	3	848	nm
1	4	761	nm
1	5	848	nm
1	6	762	nm

Export sample rate:	10.00	Hz
Selected time span:	0	3389.100
Selected time span (sample numbers):	0	33891


Legend:
Column	Trace (Measurement)
1	(Sample number)
2	Rx1-Tx1 O2Hb (T2A_36_POST_NIRS)
3	Rx1-Tx1 HHb (T2A_36_POST_NIRS)
4	Rx1-Tx1 tHb (T2A_36_POST_NIRS)
5	Rx1-Tx1 HbDiff (T2A_36_POST_NIRS)
6	Rx1-Tx2 O2Hb (T2A_36_POST_NIRS)
7	Rx1-Tx2 HHb (T2A_36_POST_NIRS)
8	Rx1-Tx2 tHb (T2A_36_POST_NIRS)
9	Rx1-Tx2 HbDiff (T2A_36_POST_NIRS)
10	Rx1-Tx3 O2Hb (T2A_36_POST_NIRS)
11	Rx1-Tx3 HHb (T2A_36_POST_NIRS)
12	Rx1-Tx3 tHb (T2A_36_POST_NIRS)
13	Rx1-Tx3 HbDiff (T2A_36_POST_NIRS)
14	Rx1-Tx1,Tx2,Tx3 TSI% (T2A_36_POST_NIRS)
15	Rx1-Tx1,Tx2,Tx3 TSI Fit Factor (T2A_36_POST_NIRS)
16	(Event)


1	2	3	4	5	6	7	8	9	10	11	12	13	14	15	16
     0	123.1716	66.8237	189.9954	56.3479	98.0656	53.5008	151.5665	44.5648	81.0949	47.2320	128.3271	33.8629	43.7250	98.5201	
     1	-0.1933	-0.0582	-0.2514	-0.1351	-0.1460	-0.0637	-0.2096	-0.0824	-0.2288	-0.0292	-0.2579	-0.1996	66.5991	99.9991	
     2	-0.2161	-0.0574	-0.2733	-0.1587	-0.1714	-0.0543	-0.2256	-0.1171	-0.2347	-0.0327	-0.2673	-0.2019	66.6387	99.9991	
     3	-0.1618	-0.0393	-0.2010	-0.1225	-0.0998	-0.0481	-0.1478	-0.0518	-0.1490	-0.0246	-0.1736	-0.1244	66.7572	99.9990	
     4	-0.0858	-0.0369	-0.1226	-0.0488	-0.0604	-0.0365	-0.0968	-0.0238	-0.1091	-0.0224	-0.1314	-0.0868	66.7178	99.9990	
     5	-0.1085	-0.0362	-0.1445	-0.0723	-0.0738	-0.0446	-0.1183	-0.0291	-0.1209	-0.0295	-0.1502	-0.0914	66.7575	99.9989	
     6	-0.1234	-0.0307	-0.1539	-0.0927	-0.0864	-0.0400	-0.1263	-0.0465	-0.1261	-0.0217	-0.1478	-0.1044	66.7573	99.9988	
     7	-0.1234	-0.0307	-0.1539	-0.0927	-0.0864	-0.0400	-0.1263	-0.0465	-0.1373	-0.0175	-0.1547	-0.1198	66.7178	99.9989	
     8	-0.1382	-0.0252	-0.1633	-0.1130	-0.0991	-0.0353	-0.1343	-0.0638	-0.1596	-0.0092	-0.1687	-0.1504	66.6782	99.9989	
     9	-0.1461	-0.0299	-0.1759	-0.1162	-0.1252	-0.0387	-0.1638	-0.0865	-0.1602	-0.0204	-0.1805	-0.1397	66.7180	99.9987	
    10	-0.1610	-0.0244	-0.1853	-0.1365	-0.1185	-0.0347	-0.1530	-0.0838	-0.1373	-0.0175	-0.1547	-0.1198	66.7967	99.9987	
    11	-0.0840	-0.0071	-0.0910	-0.0769	-0.0402	-0.0244	-0.0645	-0.0159	-0.0681	 0.0025	-0.0655	-0.0706	66.7963	99.9986	
    12	-0.0385	-0.0087	-0.0471	-0.0298	-0.0268	-0.0162	-0.0430	-0.0106	-0.0458	-0.0059	-0.0516	-0.0399	66.7967	99.9986	
    13	-0.0543	-0.0181	-0.0722	-0.0362	-0.0402	-0.0244	-0.0645	-0.0159	-0.0575	-0.0130	-0.0704	-0.0445	66.7967	99.9986	
    14	-0.0691	-0.0126	-0.0816	-0.0565	-0.0529	-0.0197	-0.0725	-0.0332	-0.0739	-0.0011	-0.0749	-0.0729	66.7570	99.9986	
    15	-0.0691	-0.0126	-0.0816	-0.0565	-0.0656	-0.0150	-0.0805	-0.0506	-0.0798	-0.0046	-0.0843	-0.0752	66.7572	99.9986	
    16	-0.0770	-0.0173	-0.0942	-0.0597	-0.0790	-0.0231	-0.1020	-0.0559	-0.0915	-0.0117	-0.1031	-0.0798	66.7573	99.9985	
    17	-0.0997	-0.0165	-0.1162	-0.0832	-0.1043	-0.0138	-0.1180	-0.0906	-0.1086	-0.0111	-0.1195	-0.0975	66.7573	99.9986	
    18	-0.1067	-0.0063	-0.1130	-0.1004	-0.0850	-0.0144	-0.0992	-0.0706	-0.0851	 0.0031	-0.0819	-0.0882	66.7963	99.9984	
    19	-0.0079	-0.0047	-0.0125	-0.0032	-0.0254	 0.0093	-0.0159	-0.0347	-0.0053	 0.0077	 0.0025	-0.0130	66.7961	99.9984	
    20	-0.0000	-0.0000	 0.0001	-0.0000	-0.0000	-0.0000	 0.0001	-0.0000	-0.0000	-0.0000	 0.0000	 0.0000	66.8360	99.9986	
    21	-0.0228	 0.0008	-0.0219	-0.0235	-0.0321	 0.0053	-0.0267	-0.0373	-0.0282	 0.0048	-0.0233	-0.0330	66.7965	99.9985	
    22	-0.0376	 0.0063	-0.0313	-0.0439	-0.0388	 0.0012	-0.0374	-0.0400	-0.0282	 0.0048	-0.0233	-0.0330	66.8360	99.9984	
    23	-0.0306	-0.0039	-0.0345	-0.0267	-0.0641	 0.0106	-0.0534	-0.0747	-0.0452	 0.0054	-0.0397	-0.0506	66.7570	99.9983	
    24	-0.0534	-0.0032	-0.0565	-0.0502	-0.0708	 0.0065	-0.0642	-0.0773	-0.0622	 0.0060	-0.0561	-0.0683	66.7570	99.9985	
    25	-0.0910	 0.0031	-0.0878	-0.0941	-0.0909	-0.0056	-0.0965	-0.0853	-0.0851	 0.0031	-0.0819	-0.0882	66.7967	99.9983	
    26	-0.0761	-0.0024	-0.0784	-0.0737	-0.0902	 0.0071	-0.0829	-0.0973	-0.0675	 0.0138	-0.0536	-0.0813	66.7566	99.9982	
    27	 0.0078	 0.0047	 0.0126	 0.0032	-0.0060	 0.0087	 0.0028	-0.0147	 0.0228	 0.0029	 0.0258	 0.0200	66.8752	99.9983	
    28	 0.0157	 0.0094	 0.0252	 0.0063	-0.0119	 0.0174	 0.0056	-0.0294	 0.0064	 0.0148	 0.0213	-0.0084	66.7963	99.9983	
    29	-0.0070	 0.0102	 0.0033	-0.0172	-0.0440	 0.0227	-0.0212	-0.0667	-0.0217	 0.0196	-0.0020	-0.0413	66.7568	99.9982	
    30	-0.0219	 0.0157	-0.0061	-0.0376	-0.0380	 0.0140	-0.0239	-0.0520	-0.0217	 0.0196	-0.0020	-0.0413	66.7963	99.9982	
    31	-0.0298	 0.0110	-0.0187	-0.0407	-0.0507	 0.0187	-0.0319	-0.0694	-0.0223	 0.0083	-0.0139	-0.0306	66.8360	99.9983	
    32	-0.0525	 0.0117	-0.0407	-0.0642	-0.0641	 0.0106	-0.0534	-0.0747	-0.0452	 0.0054	-0.0397	-0.0506	66.8362	99.9984	
    33	-0.0752	 0.0125	-0.0626	-0.0877	-0.0902	 0.0071	-0.0829	-0.0973	-0.0734	 0.0102	-0.0630	-0.0836	66.7967	99.9982	
    34	-0.0831	 0.0078	-0.0752	-0.0909	-0.0902	 0.0071	-0.0829	-0.0973	-0.0505	 0.0131	-0.0372	-0.0636	66.8356	99.9980	
    35	-0.0140	 0.0204	 0.0065	-0.0344	-0.0246	 0.0221	-0.0024	-0.0467	 0.0011	 0.0225	 0.0238	-0.0214	66.8356	99.9982	
    36	 0.0087	 0.0196	 0.0284	-0.0109	-0.0246	 0.0221	-0.0024	-0.0467	 0.0117	 0.0071	 0.0188	 0.0046	66.8757	99.9982	
    37	-0.0219	 0.0157	-0.0061	-0.0376	-0.0507	 0.0187	-0.0319	-0.0694	-0.0276	 0.0161	-0.0115	-0.0437	66.7965	99.9982	
    38	-0.0298	 0.0110	-0.0187	-0.0407	-0.0701	 0.0193	-0.0507	-0.0894	-0.0276	 0.0161	-0.0115	-0.0437	66.7963	99.9980	
    39	-0.0446	 0.0165	-0.0281	-0.0611	-0.0894	 0.0199	-0.0694	-0.1094	-0.0393	 0.0090	-0.0303	-0.0483	66.8362	99.9979	
    40	-0.0604	 0.0070	-0.0532	-0.0674	-0.1088	 0.0206	-0.0882	-0.1294	-0.0675	 0.0138	-0.0536	-0.0813	66.7570	99.9980	
    41	-0.0980	 0.0133	-0.0846	-0.1113	-0.1222	 0.0124	-0.1097	-0.1347	-0.0904	 0.0109	-0.0794	-0.1012	66.7967	99.9981	
    42	-0.0980	 0.0133	-0.0846	-0.1113	-0.1155	 0.0165	-0.0989	-0.1320	-0.0616	 0.0173	-0.0442	-0.0790	66.8356	99.9979	
    43	-0.0219	 0.0157	-0.0061	-0.0376	-0.0567	 0.0274	-0.0291	-0.0841	 0.0006	 0.0112	 0.0119	-0.0107	66.8752	99.9981	
    44	-0.0219	 0.0157	-0.0061	-0.0376	-0.0634	 0.0234	-0.0399	-0.0867	-0.0165	 0.0119	-0.0045	-0.0283	66.8360	99.9980	
    45	-0.0595	 0.0219	-0.0375	-0.0814	-0.1021	 0.0246	-0.0774	-0.1267	-0.0393	 0.0090	-0.0303	-0.0483	66.8757	99.9978	
    46	-0.0674	 0.0172	-0.0500	-0.0846	-0.1148	 0.0293	-0.0854	-0.1441	-0.0616	 0.0173	-0.0442	-0.0790	66.7965	99.9979	
    47	-0.0752	 0.0125	-0.0626	-0.0877	-0.1215	 0.0252	-0.0961	-0.1467	-0.0675	 0.0138	-0.0536	-0.0813	66.7965	99.9979	
    48	-0.0980	 0.0133	-0.0846	-0.1113	-0.1476	 0.0218	-0.1257	-0.1694	-0.0904	 0.0109	-0.0794	-0.1012	66.7967	99.9978	
    49	-0.1286	 0.0094	-0.1191	-0.1379	-0.1736	 0.0184	-0.1552	-0.1920	-0.1244	 0.0121	-0.1122	-0.1365	66.7572	99.9979	
    50	-0.1277	 0.0243	-0.1033	-0.1520	-0.1535	 0.0305	-0.1229	-0.1841	-0.0728	 0.0215	-0.0512	-0.0943	66.8750	99.9977	
    51	-0.0368	 0.0212	-0.0155	-0.0579	-0.0634	 0.0234	-0.0399	-0.0867	 0.0006	 0.0112	 0.0119	-0.0107	66.9146	99.9979	
    52	-0.0219	 0.0157	-0.0061	-0.0376	-0.0760	 0.0280	-0.0479	-0.1041	-0.0217	 0.0196	-0.0020	-0.0413	66.7963	99.9978	
    53	-0.0595	 0.0219	-0.0375	-0.0814	-0.1021	 0.0246	-0.0774	-0.1267	-0.0393	 0.0090	-0.0303	-0.0483	66.8757	99.9978	
    54	-0.0674	 0.0172	-0.0500	-0.0846	-0.0768	 0.0153	-0.0614	-0.0920	-0.0446	 0.0167	-0.0278	-0.0613	66.8358	99.9981	
    55	-0.0674	 0.0172	-0.0500	-0.0846	-0.0514	 0.0059	-0.0454	-0.0573	-0.0505	 0.0131	-0.0372	-0.0636	66.8360	99.9985	
    56	-0.0901	 0.0180	-0.0720	-0.1081	-0.0395	-0.0116	-0.0510	-0.0279	-0.0734	 0.0102	-0.0630	-0.0836	66.8362	99.9986	
    57	-0.1059	 0.0086	-0.0972	-0.1144	-0.0656	-0.0150	-0.0805	-0.0506	-0.0904	 0.0109	-0.0794	-0.1012	66.7965	99.9985	
    58	-0.0822	 0.0227	-0.0594	-0.1049	-0.0067	-0.0041	-0.0107	-0.0027	-0.0276	 0.0161	-0.0115	-0.0437	66.9144	99.9987	
    59	-0.0062	 0.0251	 0.0190	-0.0312	 0.0581	-0.0019	 0.0563	 0.0600	 0.0240	 0.0254	 0.0495	-0.0014	66.8748	99.9987	
    60	-0.0062	 0.0251	 0.0190	-0.0312	 0.0574	-0.0147	 0.0428	 0.0720	 0.0011	 0.0225	 0.0238	-0.0214	66.8358	99.9986	
    61	-0.0289	 0.0259	-0.0029	-0.0547	 0.0194	-0.0007	 0.0188	 0.0200	-0.0159	 0.0232	 0.0074	-0.0390	66.8358	99.9986	
    62	-0.0289	 0.0259	-0.0029	-0.0547	 0.0194	-0.0007	 0.0188	 0.0200	-0.0047	 0.0190	 0.0143	-0.0237	66.8752	99.9986	
    63	-0.0438	 0.0314	-0.0123	-0.0751	 0.0253	-0.0094	 0.0160	 0.0347	-0.0106	 0.0154	 0.0049	-0.0260	66.9149	99.9986	
    64	-0.0595	 0.0219	-0.0375	-0.0814	-0.0008	-0.0128	-0.0135	 0.0120	-0.0335	 0.0125	-0.0209	-0.0460	66.8754	99.9986	
    65	-0.0822	 0.0227	-0.0594	-0.1049	-0.0134	-0.0081	-0.0215	-0.0053	-0.0446	 0.0167	-0.0278	-0.0613	66.8752	99.9987	
    66	-0.0359	 0.0361	 0.0003	-0.0719	 0.0581	-0.0019	 0.0563	 0.0600	 0.0299	 0.0290	 0.0590	 0.0009	66.9533	99.9987	
    67	 0.0323	 0.0338	 0.0662	-0.0014	 0.1035	 0.0009	 0.1046	 0.1026	 0.0586	 0.0354	 0.0942	 0.0232	66.8746	99.9987	
    68	 0.0096	 0.0345	 0.0442	-0.0249	 0.0834	-0.0113	 0.0723	 0.0947	 0.0299	 0.0290	 0.0590	 0.0009	66.8750	99.9986	
    69	-0.0062	 0.0251	 0.0190	-0.0312	 0.0708	-0.0066	 0.0643	 0.0773	 0.0181	 0.0219	 0.0401	-0.0037	66.8750	99.9989	
    70	-0.0062	 0.0251	 0.0190	-0.0312	 0.0641	-0.0106	 0.0535	 0.0747	 0.0176	 0.0106	 0.0283	 0.0070	66.9149	99.9988	
    71	-0.0219	 0.0157	-0.0061	-0.0376	 0.0380	-0.0141	 0.0240	 0.0520	-0.0000	-0.0000	 0.0000	 0.0000	66.9151	99.9988	
    72	-0.0446	 0.0165	-0.0281	-0.0611	 0.0119	-0.0175	-0.0055	 0.0294	-0.0288	-0.0065	-0.0352	-0.0223	66.9156	99.9988	
    73	-0.0595	 0.0219	-0.0375	-0.0814	 0.0246	-0.0222	 0.0025	 0.0467	 0.0052	-0.0078	-0.0024	 0.0130	67.0333	99.9987	
    74	 0.0166	 0.0243	 0.0410	-0.0077	 0.0834	-0.0113	 0.0723	 0.0947	 0.0680	-0.0026	 0.0655	 0.0706	67.0331	99.9987	
    75	 0.0393	 0.0235	 0.0630	 0.0158	 0.0834	-0.0113	 0.0723	 0.0947	 0.0510	-0.0020	 0.0491	 0.0530	66.9548	99.9987	
    76	 0.0087	 0.0196	 0.0284	-0.0109	 0.0633	-0.0234	 0.0400	 0.0867	 0.0393	-0.0091	 0.0303	 0.0483	66.9942	99.9986	
    77	 0.0008	 0.0149	 0.0158	-0.0140	 0.0633	-0.0234	 0.0400	 0.0867	 0.0170	-0.0007	 0.0164	 0.0177	66.9151	99.9987	
    78	-0.0062	 0.0251	 0.0190	-0.0312	 0.0633	-0.0234	 0.0400	 0.0867	 0.0334	-0.0126	 0.0209	 0.0460	67.0339	99.9987	
    79	-0.0140	 0.0204	 0.0065	-0.0344	 0.0507	-0.0187	 0.0320	 0.0694	 0.0111	-0.0042	 0.0070	 0.0153	66.9548	99.9988	
    80	-0.0219	 0.0157	-0.0061	-0.0376	 0.0126	-0.0047	 0.0080	 0.0173	 0.0223	-0.0084	 0.0139	 0.0307	66.9939	99.9986	
    81	 0.0323	 0.0338	 0.0662	-0.0014	 0.0968	-0.0031	 0.0938	 0.1000	 0.0968	 0.0039	 0.1007	 0.0929	67.0721	99.9986	
    82	 0.0857	 0.0369	 0.1227	 0.0488	 0.1356	-0.0044	 0.1313	 0.1400	 0.1138	 0.0032	 0.1171	 0.1105	67.0333	99.9986	
    83	 0.0699	 0.0275	 0.0975	 0.0425	 0.1222	-0.0125	 0.1098	 0.1347	 0.0797	 0.0045	 0.0844	 0.0752	66.9545	99.9987	
    84	 0.0472	 0.0283	 0.0756	 0.0190	 0.0968	-0.0031	 0.0938	 0.1000	 0.0850	-0.0032	 0.0819	 0.0883	67.0333	99.9987	
    85	 0.0472	 0.0283	 0.0756	 0.0190	 0.0968	-0.0031	 0.0938	 0.1000	 0.0850	-0.0032	 0.0819	 0.0883	67.0333	99.9987	
    86	 0.0393	 0.0235	 0.0630	 0.0158	 0.0834	-0.0113	 0.0723	 0.0947	 0.0680	-0.0026	 0.0655	 0.0706	66.9939	99.9986	
    87	 0.0236	 0.0141	 0.0378	 0.0095	 0.0700	-0.0194	 0.0508	 0.0894	 0.0451	-0.0055	 0.0397	 0.0506	66.9545	99.9986	
    88	 0.0551	 0.0330	 0.0881	 0.0221	 0.1289	-0.0084	 0.1205	 0.1373	 0.1191	-0.0045	 0.1147	 0.1235	67.1117	99.9987	
    89	 0.1381	 0.0252	 0.1634	 0.1130	 0.1803	-0.0144	 0.1660	 0.1946	 0.1636	-0.0212	 0.1425	 0.1849	67.1126	99.9987	
    90	 0.1075	 0.0212	 0.1288	 0.0863	 0.1334	-0.0428	 0.0907	 0.1761	 0.0880	-0.0561	 0.0320	 0.1441	67.1153	99.9987	
    91	 0.0603	-0.0071	 0.0533	 0.0674	 0.0611	-0.0618	-0.0006	 0.1229	 0.0293	-0.0916	-0.0622	 0.1209	67.1165	99.9987	
    92	 0.0061	-0.0251	-0.0189	 0.0312	 0.0209	-0.0861	-0.0651	 0.1070	-0.0117	-0.1164	-0.1281	 0.1047	67.1566	99.9987	
    93	-0.0245	-0.0291	-0.0535	 0.0046	-0.0305	-0.0802	-0.1106	 0.0496	-0.0516	-0.1187	-0.1702	 0.0671	67.1174	99.9987	
    94	-0.0551	-0.0330	-0.0880	-0.0221	-0.0439	-0.0883	-0.1321	 0.0443	-0.0686	-0.1181	-0.1866	 0.0495	67.1171	99.9987	
    95	-0.0473	-0.0283	-0.0755	-0.0190	-0.0112	-0.0808	-0.0919	 0.0696	-0.0106	-0.0939	-0.1043	 0.0833	67.1544	99.9985	
    96	 0.0367	-0.0212	 0.0156	 0.0579	 0.0730	-0.0792	-0.0061	 0.1523	 0.0575	-0.0964	-0.0388	 0.1539	67.1941	99.9986	
    97	 0.0437	-0.0314	 0.0124	 0.0751	 0.0663	-0.0833	-0.0169	 0.1496	 0.0346	-0.0993	-0.0646	 0.1339	67.1156	99.9987	
    98	 0.0061	-0.0251	-0.0189	 0.0312	 0.0343	-0.0780	-0.0436	 0.1123	 0.0176	-0.0987	-0.0810	 0.1163	67.1550	99.9986	
    99	-0.0018	-0.0298	-0.0315	 0.0281	 0.0283	-0.0693	-0.0408	 0.0976	 0.0176	-0.0987	-0.0810	 0.1163	67.1547	99.9988	
   100	-0.0097	-0.0345	-0.0441	 0.0249	 0.0276	-0.0821	-0.0544	 0.1096	 0.0006	-0.0981	-0.0974	 0.0986	67.1153	99.9988	
   101	-0.0254	-0.0440	-0.0693	 0.0186	-0.0112	-0.0808	-0.0919	 0.0696	-0.0229	-0.1122	-0.1350	 0.0894	67.1159	99.9988	
   102	-0.0481	-0.0432	-0.0912	-0.0049	-0.0238	-0.0761	-0.0999	 0.0523	-0.0229	-0.1122	-0.1350	 0.0894	67.1550	99.9988	
   103	 0.0122	-0.0502	-0.0379	 0.0625	 0.0395	-0.0995	-0.0599	 0.1390	 0.0217	-0.1290	-0.1072	 0.1507	67.1951	99.9988	
   104	 0.0192	-0.0604	-0.0412	 0.0797	 0.0134	-0.1029	-0.0894	 0.1164	 0.0200	-0.1628	-0.1428	 0.1828	67.2757	99.9988	
   105	-0.0202	-0.0840	-0.1041	 0.0639	-0.0141	-0.1320	-0.1460	 0.1178	-0.0270	-0.1912	-0.2181	 0.1643	67.2767	99.9989	
   106	-0.0595	-0.1076	-0.1670	 0.0481	-0.0543	-0.1563	-0.2105	 0.1019	-0.0680	-0.2161	-0.2840	 0.1481	67.2774	99.9989	
   107	-0.0989	-0.1311	-0.2299	 0.0323	-0.0946	-0.1806	-0.2751	 0.0860	-0.1091	-0.2409	-0.3499	 0.1319	67.2781	99.9989	
   108	-0.1452	-0.1445	-0.2896	-0.0007	-0.1341	-0.1922	-0.3261	 0.0581	-0.1384	-0.2587	-0.3970	 0.1203	67.3180	99.9990	
   109	-0.1767	-0.1633	-0.3400	-0.0134	-0.1609	-0.2084	-0.3691	 0.0475	-0.1783	-0.2610	-0.4391	 0.0827	67.2386	99.9990	
   110	-0.1995	-0.1625	-0.3619	-0.0369	-0.1482	-0.2130	-0.3612	 0.0648	-0.1607	-0.2503	-0.4109	 0.0896	67.2767	99.9990	
   111	-0.1304	-0.1500	-0.2802	 0.0196	-0.0886	-0.1893	-0.2779	 0.1007	-0.0750	-0.2422	-0.3171	 0.1672	67.3549	99.9989	
   112	-0.1155	-0.1555	-0.2709	 0.0400	-0.0826	-0.1981	-0.2806	 0.1154	-0.0815	-0.2570	-0.3384	 0.1755	67.3561	99.9990	
   113	-0.1461	-0.1594	-0.3054	 0.0133	-0.1080	-0.1887	-0.2966	 0.0807	-0.1149	-0.2445	-0.3593	 0.1296	67.2764	99.9992	
   114	-0.1444	-0.1296	-0.2738	-0.0148	-0.1125	-0.1544	-0.2668	 0.0419	-0.1120	-0.1881	-0.3000	 0.0760	67.1560	99.9989	
   115	-0.1286	-0.1201	-0.2487	-0.0084	-0.0856	-0.1382	-0.2237	 0.0525	-0.0768	-0.1668	-0.2435	 0.0899	67.1547	99.9989	
   116	-0.1461	-0.1594	-0.3054	 0.0133	-0.0826	-0.1981	-0.2806	 0.1154	-0.0856	-0.2267	-0.3122	 0.1411	67.2747	99.9990	
   117	-0.2108	-0.2269	-0.4377	 0.0161	-0.1452	-0.2729	-0.4180	 0.1277	-0.1853	-0.2871	-0.4723	 0.1018	67.1974	99.9990	
   118	-0.2887	-0.2591	-0.5477	-0.0295	-0.2309	-0.3001	-0.5308	 0.0692	-0.2539	-0.2958	-0.5496	 0.0419	67.1177	99.9987	
   119	-0.1715	-0.2034	-0.3747	 0.0319	-0.0930	-0.2661	-0.3590	 0.1730	-0.1079	-0.3276	-0.4354	 0.2198	67.5158	99.9993	
   120	-0.2257	-0.3509	-0.5766	 0.1252	-0.3224	-0.5405	-0.8629	 0.2181	-0.4456	-0.7070	-1.1525	 0.2613	67.8654	99.9992	
   121	-0.3893	-0.2905	-0.6797	-0.0987	-0.4939	-0.3727	-0.8665	-0.1211	-0.4475	-0.4129	-0.8603	-0.0345	67.2045	99.9967	
   122	-0.3368	-0.1728	-0.5095	-0.1639	-0.4596	-0.2287	-0.6882	-0.2310	-0.3284	-0.3081	-0.6364	-0.0203	67.3209	99.9964	
   123	-0.2528	-0.0362	-0.2889	-0.2166	-0.4530	-0.0025	-0.4555	-0.4505	-0.1830	-0.1326	-0.3156	-0.0504	67.2355	99.9954	
   124	-0.2956	 0.0101	-0.2854	-0.3057	-0.6654	 0.0171	-0.6482	-0.6825	-0.3613	-0.1750	-0.5362	-0.1863	67.2035	99.9932	
   125	-0.4907	-0.0779	-0.5684	-0.4128	-0.9514	-0.1189	-1.0702	-0.8325	-0.6381	-0.3644	-1.0024	-0.2738	67.3737	99.9918	
   126	-0.7434	-0.2436	-0.9869	-0.4998	-1.2077	-0.2985	-1.5061	-0.9091	-0.8575	-0.5408	-1.3982	-0.3166	67.4984	99.9904	
   127	-0.8650	-0.3739	-1.2388	-0.4911	-1.3313	-0.4227	-1.7539	-0.9086	-0.9149	-0.6631	-1.5779	-0.2519	67.6596	99.9888	
   128	-1.0129	-0.5631	-1.5759	-0.4497	-1.5033	-0.6008	-2.1040	-0.9026	-1.0773	-0.8379	-1.9151	-0.2395	67.6638	99.9881	
   129	-1.2420	-0.7147	-1.9566	-0.5273	-1.7693	-0.7246	-2.4938	-1.0447	-1.2756	-0.9360	-2.2115	-0.3396	67.5428	99.9852	
   130	-1.3837	-0.7995	-2.1831	-0.5842	-1.9793	-0.7776	-2.7569	-1.2017	-1.3817	-1.0112	-2.3928	-0.3706	67.5839	99.9817	
   131	-1.4851	-0.8458	-2.3309	-0.6393	-2.1544	-0.7848	-2.9391	-1.3696	-1.4515	-1.0425	-2.4939	-0.4091	67.5835	99.9780	
   132	-1.5639	-0.8929	-2.4567	-0.6709	-2.2856	-0.8148	-3.1002	-1.4708	-1.5278	-1.0886	-2.6163	-0.4392	67.5848	99.9754	
   133	-1.7047	-0.9628	-2.6674	-0.7418	-2.5515	-0.8276	-3.3790	-1.7240	-1.6492	-1.1293	-2.7784	-0.5199	67.5038	99.9684	
   134	-1.7598	-0.9958	-2.7555	-0.7639	-2.5240	-0.7985	-3.3224	-1.7254	-1.5166	-1.0928	-2.6093	-0.4238	67.6544	99.9686	
   135	-1.5228	-0.9691	-2.4917	-0.5537	-2.1820	-0.8138	-2.9957	-1.3682	-1.3231	-1.0850	-2.4079	-0.2381	67.7347	99.9757	
   136	-1.6085	-1.0060	-2.6144	-0.6025	-2.0724	-0.9326	-3.0050	-1.1398	-1.3764	-1.1282	-2.5045	-0.2482	67.8154	99.9819	
   137	-1.6417	-1.0547	-2.6963	-0.5870	-2.0709	-1.0181	-3.0889	-1.0528	-1.4867	-1.1731	-2.6596	-0.3136	67.6591	99.9840	
   138	-1.7414	-1.0712	-2.8125	-0.6702	-2.0858	-1.0518	-3.1375	-1.0340	-1.4926	-1.1766	-2.6691	-0.3159	67.7761	99.9843	
   139	-1.7519	-1.1206	-2.8725	-0.6313	-1.9762	-1.1706	-3.1467	-0.8056	-1.4802	-1.2675	-2.7476	-0.2127	68.0196	99.9872	
   140	-1.8359	-1.2572	-3.0930	-0.5787	-2.0238	-1.3228	-3.3465	-0.7010	-1.5940	-1.3801	-2.9740	-0.2139	67.9427	99.9880	
   141	-2.0021	-1.3711	-3.3731	-0.6310	-2.1661	-1.4335	-3.5995	-0.7326	-1.7523	-1.4759	-3.2281	-0.2764	67.9049	99.9885	
   142	-2.0939	-1.3829	-3.4767	-0.7110	-2.2250	-1.4444	-3.6693	-0.7805	-1.7805	-1.4711	-3.2515	-0.3094	67.9421	99.9878	
   143	-2.0930	-1.3680	-3.4609	-0.7250	-2.2816	-1.4170	-3.6985	-0.8646	-1.8421	-1.4537	-3.2957	-0.3883	67.7837	99.9874	
   144	-2.1420	-1.2966	-3.4385	-0.8454	-2.3666	-1.3203	-3.6868	-1.0463	-1.9219	-1.3490	-3.2708	-0.5729	67.5000	99.9869	
   145	-2.0449	-1.0658	-3.1106	-0.9791	-2.3376	-1.0437	-3.3812	-1.2939	-1.8334	-1.0659	-2.8992	-0.7675	67.1314	99.9847	
   146	-1.6154	-0.6073	-2.2226	-1.0081	-1.9273	-0.5487	-2.4759	-1.3786	-1.3179	-0.6555	-1.9734	-0.6624	67.3231	99.9852	
   147	-1.0154	-0.3488	-1.3642	-0.6666	-1.2650	-0.2839	-1.5488	-0.9811	-0.7261	-0.4176	-1.1436	-0.3085	67.4747	99.9895	
   148	-0.7732	-0.3621	-1.1352	-0.4111	-1.0444	-0.3849	-1.4293	-0.6595	-0.7824	-0.5173	-1.2996	-0.2651	67.2883	99.9937	
   149	-0.8283	-0.3951	-1.2233	-0.4332	-1.1189	-0.5534	-1.6721	-0.5655	-1.0381	-0.7376	-1.7756	-0.3005	67.5480	99.9956	
   150	-1.1003	-0.6299	-1.7301	-0.4704	-1.5248	-0.8606	-2.3853	-0.6643	-1.6158	-1.0326	-2.6483	-0.5832	67.1568	99.9953	
   151	-1.3723	-0.7351	-2.1073	-0.6372	-1.6894	-1.0218	-2.7111	-0.6676	-1.9278	-1.1340	-3.0617	-0.7939	66.9945	99.9967	
   152	-1.4720	-0.7516	-2.2235	-0.7204	-1.8772	-1.0243	-2.9014	-0.8529	-2.0833	-1.1734	-3.2566	-0.9099	66.9137	99.9962	
   153	-1.6592	-0.8349	-2.4940	-0.8243	-2.1178	-1.1575	-3.2752	-0.9603	-2.4006	-1.3763	-3.7768	-1.0242	67.0484	99.9972	
   154	-1.9880	-1.0030	-2.9909	-0.9850	-2.4470	-1.3690	-3.8159	-1.0780	-2.8052	-1.6213	-4.4264	-1.1840	67.1419	99.9981	
   155	-2.2259	-1.1742	-3.4000	-1.0518	-2.8046	-1.5112	-4.3157	-1.2934	-3.1419	-1.7594	-4.9012	-1.3825	66.8034	99.9970	
   156	-2.4656	-1.2457	-3.7111	-1.2199	-3.0959	-1.5147	-4.6105	-1.5813	-3.2540	-1.7289	-4.9827	-1.5251	66.6292	99.9936	
   157	-2.5250	-1.2237	-3.7486	-1.3013	-3.1295	-1.4239	-4.5533	-1.7056	-3.1683	-1.6115	-4.7797	-1.5569	66.5411	99.9922	
   158	-2.4962	-1.1201	-3.6161	-1.3760	-3.1184	-1.2321	-4.3504	-1.8863	-2.9701	-1.4041	-4.3741	-1.5661	66.4537	99.9888	
   159	-2.4393	-0.9278	-3.3669	-1.5115	-3.0737	-1.0200	-4.0937	-2.0538	-2.7379	-1.3072	-4.0450	-1.4307	67.0791	99.9873	
   160	-2.4918	-1.1750	-3.6667	-1.3167	-3.0461	-1.3241	-4.3700	-1.7220	-2.4715	-1.5395	-4.0109	-0.9320	67.9383	99.9773	
   161	-2.6274	-1.4145	-4.0418	-1.2129	-2.9357	-1.5412	-4.4768	-1.3946	-2.3131	-1.6623	-3.9752	-0.6508	68.2862	99.9794	
   162	-2.7735	-1.5738	-4.3472	-1.1996	-3.0355	-1.7002	-4.7356	-1.3353	-2.4350	-1.8235	-4.2584	-0.6115	68.4124	99.9814	
   163	-2.9012	-1.6791	-4.5801	-1.2221	-3.0988	-1.7879	-4.8865	-1.3109	-2.4549	-1.8793	-4.3341	-0.5756	68.4862	99.9809	
   164	-2.9353	-1.7426	-4.6778	-1.1926	-3.0771	-1.8612	-4.9382	-1.2160	-2.4754	-1.9464	-4.4217	-0.5291	68.5686	99.9832	
   165	-2.9834	-1.7858	-4.7691	-1.1975	-3.1233	-1.8767	-5.0000	-1.2466	-2.4936	-1.9683	-4.4618	-0.5253	68.5663	99.9834	
   166	-2.9755	-1.7811	-4.7565	-1.1944	-3.1099	-1.8686	-4.9785	-1.2413	-2.4702	-1.9541	-4.4242	-0.5161	68.5640	99.9831	
   167	-2.8951	-1.7042	-4.5991	-1.1908	-3.0131	-1.7607	-4.7737	-1.2524	-2.3570	-1.8528	-4.2097	-0.5042	68.5158	99.9842	
   168	-2.7166	-1.5110	-4.2275	-1.2055	-2.9350	-1.5284	-4.4632	-1.4066	-2.3084	-1.6813	-3.9895	-0.6271	68.2367	99.9859	
   169	-2.4192	-1.1028	-3.5219	-1.3164	-2.6505	-1.0849	-3.7353	-1.5657	-2.0176	-1.2211	-3.2385	-0.7965	67.8185	99.9859	
   170	-1.7536	-0.6324	-2.3859	-1.1211	-1.8758	-0.6657	-2.5414	-1.2102	-1.4393	-0.8055	-2.2447	-0.6338	67.7705	99.9923	
   171	-1.3408	-0.5868	-1.9275	-0.7540	-1.6210	-0.7336	-2.3545	-0.8874	-1.4733	-0.9135	-2.3867	-0.5597	67.5519	99.9946	
   172	-1.7335	-0.8074	-2.5409	-0.9260	-2.1379	-1.0586	-3.1965	-1.0793	-2.1642	-1.2005	-3.3646	-0.9637	67.1188	99.9932	
   173	-1.9102	-0.8413	-2.7513	-1.0689	-2.2884	-1.0880	-3.3763	-1.2005	-2.3191	-1.2287	-3.5476	-1.0904	67.0779	99.9937	
   174	-1.9373	-0.7855	-2.7227	-1.1517	-2.2735	-1.0543	-3.3277	-1.2193	-2.3466	-1.2126	-3.5591	-1.1341	67.1624	99.9951	
   175	-1.9443	-0.7753	-2.7195	-1.1689	-2.2654	-1.0247	-3.2899	-1.2407	-2.3619	-1.1781	-3.5399	-1.1838	67.0367	99.9959	
   176	-1.9425	-0.7455	-2.6879	-1.1970	-2.2519	-1.0165	-3.2684	-1.2354	-2.3742	-1.1964	-3.5706	-1.1778	67.1636	99.9966	
   177	-2.1008	-0.8547	-2.9554	-1.2461	-2.5127	-1.1619	-3.6744	-1.3508	-2.7191	-1.3833	-4.1023	-1.3358	67.0478	99.9969	
   178	-2.3982	-1.0039	-3.4020	-1.3943	-2.8970	-1.3203	-4.2173	-1.5767	-3.1267	-1.5753	-4.7020	-1.5514	66.9275	99.9968	
   179	-2.6536	-1.0848	-3.7383	-1.5687	-3.1935	-1.4133	-4.6067	-1.7803	-3.4270	-1.6696	-5.0966	-1.7574	66.8023	99.9962	
   180	-2.7848	-1.1202	-3.9048	-1.6645	-3.3299	-1.4217	-4.7515	-1.9082	-3.5109	-1.6439	-5.1547	-1.8670	66.6296	99.9949	
   181	-2.7909	-1.0951	-3.8858	-1.6958	-3.3322	-1.3491	-4.6811	-1.9831	-3.4781	-1.5585	-5.0365	-1.9196	66.4573	99.9949	
   182	-2.7961	-1.0550	-3.8510	-1.7410	-3.3583	-1.2415	-4.5996	-2.1168	-3.3632	-1.4233	-4.7864	-1.9399	66.3284	99.9923	
   183	-2.7209	-0.9381	-3.6588	-1.7828	-3.2011	-1.0970	-4.2981	-2.1041	-2.9784	-1.3435	-4.3217	-1.6349	67.1227	99.9908	
   184	-2.6982	-1.0683	-3.7664	-1.6298	-3.1139	-1.2664	-4.3802	-1.8475	-2.6932	-1.5425	-4.2357	-1.1507	68.1131	99.9868	
   185	-2.8443	-1.3572	-4.2014	-1.4870	-3.0423	-1.4822	-4.5244	-1.5601	-2.4374	-1.6501	-4.0874	-0.7873	68.4892	99.9847	
   186	-2.8128	-1.4679	-4.2806	-1.3449	-2.8873	-1.5982	-4.4854	-1.2890	-2.3160	-1.7187	-4.0345	-0.5973	68.6424	99.9867	
   187	-2.9895	-1.6312	-4.6206	-1.3582	-3.0459	-1.7682	-4.8140	-1.2777	-2.4596	-1.8603	-4.3198	-0.5994	68.6855	99.9855	
   188	-3.1784	-1.7443	-4.9226	-1.4341	-3.1993	-1.8487	-5.0479	-1.3507	-2.5652	-1.9242	-4.4893	-0.6410	68.6807	99.9851	
   189	-3.2361	-1.8220	-5.0581	-1.4141	-3.2172	-1.9335	-5.1506	-1.2837	-2.5517	-1.9925	-4.5441	-0.5592	68.8383	99.9843	
   190	-3.2239	-1.8722	-5.0961	-1.3516	-3.1807	-1.9731	-5.1537	-1.2075	-2.5247	-2.0199	-4.5445	-0.5048	68.8357	99.9850	
   191	-3.2108	-1.9076	-5.1183	-1.3032	-3.1821	-1.9987	-5.1807	-1.1834	-2.5259	-2.0425	-4.5682	-0.4834	68.7960	99.9848	
   192	-3.1951	-1.8981	-5.0931	-1.2969	-3.1494	-1.9912	-5.1405	-1.1582	-2.4860	-2.0402	-4.5261	-0.4458	68.8746	99.9851	
   193	-3.1093	-1.8612	-4.9705	-1.2481	-3.0555	-1.9344	-4.9898	-1.1211	-2.3810	-1.9876	-4.3685	-0.3934	68.8686	99.9857	
   194	-2.8872	-1.6995	-4.5865	-1.1877	-2.8507	-1.7489	-4.5995	-1.1018	-2.2473	-1.8192	-4.0664	-0.4281	68.6260	99.9886	
   195	-2.6064	-1.3156	-3.9218	-1.2908	-2.6258	-1.3291	-3.9548	-1.2968	-2.0451	-1.4235	-3.4685	-0.6215	68.2165	99.9898	
   196	-1.9924	-0.8185	-2.8108	-1.1738	-2.0017	-0.8282	-2.8297	-1.1735	-1.4445	-0.9071	-2.3515	-0.5375	67.9981	99.9904	
   197	-1.3749	-0.5208	-1.8956	-0.8540	-1.4065	-0.6039	-2.0102	-0.8026	-1.1407	-0.7451	-1.8857	-0.3957	67.8912	99.9960	
   198	-1.4090	-0.5844	-1.9933	-0.8246	-1.5830	-0.7477	-2.3306	-0.8353	-1.4786	-0.9058	-2.3843	-0.5728	67.6310	99.9960	
   199	-1.7440	-0.7274	-2.4713	-1.0166	-1.9308	-0.9457	-2.8765	-0.9851	-1.8909	-1.0788	-2.9696	-0.8121	67.5191	99.9955	
   200	-1.8848	-0.7973	-2.6820	-1.0875	-2.0769	-1.0094	-3.0861	-1.0675	-2.0416	-1.1373	-3.1788	-0.9044	67.4391	99.9955	
   201	-1.7947	-0.8153	-2.6099	-0.9794	-2.0150	-1.0583	-3.0732	-0.9567	-2.0792	-1.2037	-3.2827	-0.8755	67.4045	99.9965	
   202	-1.8901	-0.8868	-2.7767	-1.0033	-2.0962	-1.1198	-3.2159	-0.9764	-2.1836	-1.2450	-3.4285	-0.9385	67.2811	99.9968	
   203	-1.8892	-0.8719	-2.7609	-1.0173	-2.0708	-1.1291	-3.1999	-0.9417	-2.1959	-1.2634	-3.4592	-0.9325	67.3656	99.9973	
   204	-2.0361	-0.9166	-2.9527	-1.1194	-2.2407	-1.1578	-3.3984	-1.0829	-2.3237	-1.3189	-3.6426	-1.0048	67.4088	99.9973	
   205	-2.1288	-0.9434	-3.0721	-1.1854	-2.3793	-1.2046	-3.5838	-1.1747	-2.5308	-1.3677	-3.8984	-1.1631	67.2067	99.9974	
   206	-2.2346	-0.9348	-3.1693	-1.2998	-2.5156	-1.2130	-3.7286	-1.3026	-2.6974	-1.4030	-4.1002	-1.2944	67.1692	99.9977	
   207	-2.3632	-0.9254	-3.2885	-1.4378	-2.7093	-1.2068	-3.9160	-1.5025	-2.8739	-1.4114	-4.2853	-1.4625	67.0459	99.9971	
   208	-2.5136	-0.9003	-3.4138	-1.6133	-2.8636	-1.1890	-4.0525	-1.6745	-3.0136	-1.3648	-4.3782	-1.6488	66.8772	99.9962	
   209	-2.6439	-0.9208	-3.5646	-1.7231	-3.0245	-1.1753	-4.1997	-1.8492	-3.1661	-1.3478	-4.5138	-1.8183	66.6242	99.9961	
   210	-2.7803	-0.9161	-3.6963	-1.8642	-3.1326	-1.1420	-4.2744	-1.9906	-3.1819	-1.3246	-4.5064	-1.8574	66.7490	99.9957	
   211	-2.8249	-0.8996	-3.7245	-1.9253	-3.1512	-1.1285	-4.2796	-2.0227	-3.1086	-1.3348	-4.4433	-1.7738	67.0830	99.9949	
   212	-2.8407	-0.9091	-3.7496	-1.9316	-3.1318	-1.1292	-4.2609	-2.0027	-2.9948	-1.4408	-4.4355	-1.5539	67.7515	99.9959	
   213	-2.9264	-1.0755	-4.0018	-1.8509	-3.1876	-1.3110	-4.4985	-1.8766	-2.9390	-1.5710	-4.5099	-1.3679	68.0365	99.9929	
   214	-3.0585	-1.2553	-4.3137	-1.8032	-3.1943	-1.4261	-4.6203	-1.7682	-2.7689	-1.5774	-4.3462	-1.1915	68.1344	99.9894	
   215	-2.9807	-1.3526	-4.3332	-1.6281	-2.9342	-1.5156	-4.4497	-1.4187	-2.4363	-1.6275	-4.0637	-0.8087	68.6416	99.9901	
   216	-3.1294	-1.5567	-4.6860	-1.5727	-3.0489	-1.7083	-4.7571	-1.3406	-2.5172	-1.7639	-4.2810	-0.7532	68.6377	99.9883	
   217	-3.3664	-1.7130	-5.0793	-1.6534	-3.2396	-1.8730	-5.1125	-1.3666	-2.7119	-1.9036	-4.6154	-0.8082	68.6815	99.9883	
   218	-3.5781	-1.8253	-5.4033	-1.7528	-3.4258	-1.9610	-5.3867	-1.4648	-2.8802	-1.9727	-4.8528	-0.9075	68.6001	99.9883	
   219	-3.6725	-1.8818	-5.5543	-1.7907	-3.5062	-2.0096	-5.5158	-1.4966	-2.9447	-2.0117	-4.9564	-0.9330	68.5994	99.9880	
   220	-3.7119	-1.9054	-5.6172	-1.8065	-3.5137	-2.0265	-5.5400	-1.4872	-2.9166	-2.0166	-4.9330	-0.9000	68.6743	99.9875	
   221	-3.6367	-1.9179	-5.5545	-1.7188	-3.3974	-2.0302	-5.4276	-1.3673	-2.7746	-2.0181	-4.7926	-0.7565	68.8273	99.9878	
   222	-3.5064	-1.8975	-5.4037	-1.6089	-3.2738	-2.0171	-5.2908	-1.2567	-2.6719	-2.0106	-4.6825	-0.6613	68.8677	99.9882	
   223	-3.4067	-1.8809	-5.2875	-1.5257	-3.1821	-1.9987	-5.1807	-1.1834	-2.5969	-1.9870	-4.5838	-0.6098	68.8264	99.9884	
   224	-3.2746	-1.8307	-5.1052	-1.4439	-3.0361	-1.9351	-4.9711	-1.1011	-2.4631	-1.9280	-4.3910	-0.5352	68.8214	99.9895	
   225	-3.0700	-1.7082	-4.7780	-1.3618	-2.8596	-1.7913	-4.6508	-1.0683	-2.3547	-1.8077	-4.1622	-0.5470	68.6221	99.9919	
   226	-2.9466	-1.4185	-4.3650	-1.5281	-2.7778	-1.4950	-4.2727	-1.2828	-2.3242	-1.5488	-3.8729	-0.7755	68.3423	99.9935	
   227	-2.6431	-1.0354	-3.6783	-1.6077	-2.4769	-1.1033	-3.5801	-1.3737	-1.9736	-1.1398	-3.1133	-0.8338	68.1648	99.9922	
   228	-2.1034	-0.6404	-2.7437	-1.4630	-1.9056	-0.7330	-2.6385	-1.1726	-1.5936	-0.8224	-2.4158	-0.7712	68.0451	99.9969	
   229	-1.9407	-0.5862	-2.5268	-1.3545	-1.9026	-0.7929	-2.6954	-1.1097	-1.8288	-0.8663	-2.6950	-0.9624	67.5861	99.9966	
   230	-2.1375	-0.7040	-2.8414	-1.4335	-2.1752	-0.9208	-3.0959	-1.2545	-2.1531	-0.9861	-3.1392	-1.1670	67.3096	99.9961	
   231	-2.1716	-0.7676	-2.9391	-1.4041	-2.2512	-1.0038	-3.2549	-1.2475	-2.2992	-1.0636	-3.3627	-1.2356	67.1506	99.9963	
   232	-2.1113	-0.7746	-2.8858	-1.3367	-2.1998	-1.0097	-3.2094	-1.1901	-2.2839	-1.0981	-3.3819	-1.1858	67.1938	99.9972	
   233	-2.0824	-0.8005	-2.8828	-1.2819	-2.1558	-1.0324	-3.1882	-1.1234	-2.2839	-1.0981	-3.3819	-1.1858	67.0700	99.9975	
   234	-2.0903	-0.8052	-2.8954	-1.2851	-2.1230	-1.0250	-3.1479	-1.0981	-2.2540	-1.0690	-3.3229	-1.1850	67.0268	99.9977	
   235	-2.1122	-0.7895	-2.9016	-1.3226	-2.1290	-1.0162	-3.1451	-1.1128	-2.2933	-1.0600	-3.3532	-1.2333	66.9863	99.9981	
   236	-2.1664	-0.8076	-2.9739	-1.3588	-2.2154	-1.0562	-3.2715	-1.1593	-2.4206	-1.1043	-3.5248	-1.3163	66.9066	99.9980	
   237	-2.3606	-0.8806	-3.2411	-1.4799	-2.4739	-1.1631	-3.6370	-1.3108	-2.7713	-1.2947	-4.0659	-1.4766	66.9568	99.9991	
   238	-2.6299	-0.9412	-3.5710	-1.6887	-2.8390	-1.2112	-4.0501	-1.6278	-3.1250	-1.3229	-4.4479	-1.8021	66.5389	99.9983	
   239	-2.7698	-0.8667	-3.6364	-1.9032	-3.0290	-1.1410	-4.1699	-1.8880	-3.3051	-1.2898	-4.5949	-2.0153	66.4553	99.9984	
   240	-2.9815	-0.8495	-3.8308	-2.1320	-3.3263	-1.1357	-4.4619	-2.1906	-3.6278	-1.2665	-4.8941	-2.3613	66.0305	99.9975	
   241	-3.2526	-0.8103	-4.0628	-2.4422	-3.5684	-1.0724	-4.6408	-2.4960	-3.8454	-1.1905	-5.0358	-2.6549	65.8177	99.9976	
   242	-3.4091	-0.7601	-4.1691	-2.6490	-3.6996	-0.9913	-4.6908	-2.7083	-3.8912	-1.0870	-4.9782	-2.8042	65.7349	99.9968	
   243	-3.4712	-0.6534	-4.1245	-2.8177	-3.6736	-0.8769	-4.5504	-2.7967	-3.7288	-1.0215	-4.7502	-2.7073	66.2855	99.9968	
   244	-3.4476	-0.6393	-4.0867	-2.8083	-3.5641	-0.8847	-4.4486	-2.6794	-3.5516	-1.1110	-4.6625	-2.4405	67.0397	99.9979	
   245	-3.5281	-0.8457	-4.3737	-2.6823	-3.5431	-1.0818	-4.6248	-2.4613	-3.3521	-1.2089	-4.5609	-2.1432	67.4029	99.9946	
   246	-3.4546	-1.0176	-4.4721	-2.4370	-3.3046	-1.2090	-4.5136	-2.0956	-2.9673	-1.2384	-4.2055	-1.7289	67.7516	99.9926	
   247	-3.4844	-1.2656	-4.7499	-2.2188	-3.2993	-1.4526	-4.7518	-1.8467	-2.9226	-1.4737	-4.3962	-1.4489	68.0756	99.9921	
   248	-4.0100	-1.5515	-5.5614	-2.4585	-3.7299	-1.7377	-5.4674	-1.9922	-3.3314	-1.6883	-5.0196	-1.6431	68.0361	99.9910	
   249	-4.2777	-1.7117	-5.9893	-2.5660	-3.9764	-1.8621	-5.8385	-2.1143	-3.5637	-1.7851	-5.3487	-1.7785	67.8740	99.9910	
   250	-4.3564	-1.7588	-6.1151	-2.5976	-4.0241	-1.9033	-5.9273	-2.1208	-3.6047	-1.8100	-5.4146	-1.7947	67.8724	99.9910	
   251	-4.3197	-1.7800	-6.0996	-2.5397	-3.9794	-1.9133	-5.8926	-2.0661	-3.5425	-1.8161	-5.3585	-1.7265	67.9104	99.9909	
   252	-4.2663	-1.7768	-6.0431	-2.4895	-3.9213	-1.9151	-5.8363	-2.0061	-3.4968	-1.8102	-5.3069	-1.6865	67.9098	99.9909	
   253	-4.2515	-1.7823	-6.0337	-2.4691	-3.9086	-1.9198	-5.8283	-1.9888	-3.5026	-1.8138	-5.3163	-1.6889	67.8702	99.9913	
   254	-4.2436	-1.7776	-6.0211	-2.4659	-3.9205	-1.9024	-5.8228	-2.0182	-3.4968	-1.8102	-5.3069	-1.6865	67.8702	99.9913	
   255	-4.2348	-1.7580	-5.9927	-2.4768	-3.9064	-1.8815	-5.7877	-2.0249	-3.5068	-1.7835	-5.2902	-1.7233	67.7893	99.9918	
   256	-4.2331	-1.7282	-5.9611	-2.5049	-3.8982	-1.8518	-5.7499	-2.0464	-3.4763	-1.7432	-5.2194	-1.7331	67.7868	99.9911	
   257	-4.1281	-1.6222	-5.7502	-2.5059	-3.7172	-1.7424	-5.4594	-1.9749	-3.2546	-1.6309	-4.8853	-1.6237	67.9786	99.9915	
   258	-3.8115	-1.4039	-5.2153	-2.4076	-3.4245	-1.4913	-4.9157	-1.9332	-3.0048	-1.4141	-4.4187	-1.5907	67.8139	99.9938	
   259	-3.5639	-1.0686	-4.6325	-2.4953	-3.2443	-1.1725	-4.4167	-2.0718	-2.9556	-1.1220	-4.0775	-1.8336	67.3752	99.9956	
   260	-3.3662	-0.6769	-4.0430	-2.6893	-3.0135	-0.7615	-3.7749	-2.2521	-2.7686	-0.6918	-3.4603	-2.0768	66.9664	99.9966	
   261	-2.9333	-0.2882	-3.2214	-2.6450	-2.6366	-0.3978	-3.0343	-2.2389	-2.5757	-0.3674	-2.9430	-2.2083	66.5654	99.9985	
   262	-2.9604	-0.2325	-3.1928	-2.7278	-2.8251	-0.4131	-3.2381	-2.4121	-2.8684	-0.4243	-3.2926	-2.4441	66.3245	99.9981	
   263	-2.9569	-0.3024	-3.2592	-2.6545	-2.9085	-0.5129	-3.4213	-2.3957	-3.0133	-0.4792	-3.4924	-2.5341	65.9957	99.9969	
   264	-2.7409	-0.2450	-2.9858	-2.4958	-2.7119	-0.4680	-3.1797	-2.2439	-2.8807	-0.4427	-3.3233	-2.4380	65.9542	99.9974	
   265	-2.6123	-0.2544	-2.8666	-2.3579	-2.5934	-0.4333	-3.0267	-2.1601	-2.7757	-0.3901	-3.1657	-2.3857	65.7489	99.9978	
   266	-2.5450	-0.2716	-2.8165	-2.2733	-2.4578	-0.4377	-2.8954	-2.0201	-2.6619	-0.3868	-3.0486	-2.2752	65.8323	99.9984	
   267	-2.4943	-0.3132	-2.8074	-2.1810	-2.4198	-0.4517	-2.8714	-1.9681	-2.6050	-0.3851	-2.9901	-2.2199	65.7510	99.9983	
   268	-2.4960	-0.3430	-2.8390	-2.1529	-2.4146	-0.4733	-2.8877	-1.9413	-2.6056	-0.3964	-3.0019	-2.2092	65.7101	99.9983	
   269	-2.5817	-0.3800	-2.9616	-2.2017	-2.5062	-0.4917	-2.9978	-2.0146	-2.7089	-0.4152	-3.1239	-2.2937	65.5865	99.9986	
   270	-2.6727	-0.3768	-3.0494	-2.2958	-2.6426	-0.5001	-3.1425	-2.1425	-2.8807	-0.4427	-3.3233	-2.4380	65.4599	99.9987	
   271	-2.8624	-0.3753	-3.2377	-2.4871	-2.9026	-0.5216	-3.4241	-2.3810	-3.2016	-0.4948	-3.6962	-2.7068	65.2457	99.9989	
   272	-3.1825	-0.3943	-3.5767	-2.7882	-3.3459	-0.5800	-3.9257	-2.7659	-3.7231	-0.5808	-4.3038	-3.1422	64.8539	99.9988	
   273	-3.5752	-0.3560	-3.9310	-3.2192	-3.7989	-0.5825	-4.3812	-3.2164	-4.2123	-0.5927	-4.8049	-3.6196	64.5442	99.9985	
   274	-3.9530	-0.3231	-4.2760	-3.6298	-4.2556	-0.5379	-4.7934	-3.7177	-4.6605	-0.5797	-5.2401	-4.0807	64.1902	99.9985	
   275	-4.3063	-0.2612	-4.5674	-4.0450	-4.5939	-0.4587	-5.0525	-4.1352	-4.9673	-0.4703	-5.4375	-4.4970	63.8483	99.9980	
   276	-4.4304	-0.0478	-4.4781	-4.3826	-4.6514	-0.2220	-4.8732	-4.4294	-4.9633	-0.1727	-5.1359	-4.7906	63.5698	99.9972	
   277	-4.4094	 0.1806	-4.2286	-4.5900	-4.6313	 0.0123	-4.6190	-4.6436	-4.9018	 0.0285	-4.8732	-4.9302	63.5769	99.9974	
   278	-4.4994	 0.3282	-4.1712	-4.8276	-4.6038	 0.1523	-4.4514	-4.7561	-4.7381	 0.1166	-4.6215	-4.8547	64.2287	99.9977	
   279	-4.5003	 0.3133	-4.1870	-4.8135	-4.5107	 0.0852	-4.4253	-4.5959	-4.5421	-0.0490	-4.5911	-4.4931	65.2811	99.9982	
   280	-4.4243	 0.0566	-4.3676	-4.4809	-4.2669	-0.1745	-4.4414	-4.0924	-4.0740	-0.2248	-4.2986	-3.8492	66.1605	99.9953	
   281	-4.2267	-0.1992	-4.4258	-4.0275	-3.8899	-0.3660	-4.2558	-3.5238	-3.5730	-0.3151	-3.8880	-3.2579	66.5660	99.9943	
   282	-4.0597	-0.4589	-4.5185	-3.6007	-3.7087	-0.5896	-4.2982	-3.1191	-3.4227	-0.4865	-3.9091	-2.9362	66.5249	99.9943	
   283	-4.3510	-0.7628	-5.1137	-3.5882	-4.0364	-0.8866	-4.9229	-3.1499	-3.7154	-0.7620	-4.4772	-2.9534	66.5263	99.9927	
   284	-4.6728	-0.9411	-5.6138	-3.7317	-4.3105	-1.0400	-5.3505	-3.2705	-3.9441	-0.9004	-4.8444	-3.0437	66.5668	99.9926	
   285	-4.7988	-1.0164	-5.8151	-3.7823	-4.4379	-1.1171	-5.5549	-3.3209	-4.0725	-0.9672	-5.0397	-3.1053	66.5268	99.9922	
   286	-4.8233	-1.0455	-5.8687	-3.7777	-4.4267	-1.1473	-5.5739	-3.2794	-4.0279	-0.9840	-5.0118	-3.0440	66.6475	99.9916	
   287	-4.6877	-1.0651	-5.7527	-3.6226	-4.3112	-1.1638	-5.4750	-3.1474	-3.9265	-0.9991	-4.9254	-2.9274	66.6475	99.9916	
   288	-4.6422	-1.0666	-5.7088	-3.5756	-4.2792	-1.1691	-5.4482	-3.1101	-3.9106	-1.0223	-4.9328	-2.8884	66.6887	99.9922	
   289	-4.6422	-1.0666	-5.7088	-3.5756	-4.2732	-1.1779	-5.4510	-3.0954	-3.9218	-1.0181	-4.9397	-2.9037	66.6483	99.9921	
   290	-4.6265	-1.0572	-5.6836	-3.5693	-4.2718	-1.1523	-5.4239	-3.1195	-3.9036	-0.9961	-4.8996	-2.9074	66.6074	99.9920	
   291	-4.5705	-1.0093	-5.5797	-3.5612	-4.1973	-1.0949	-5.2921	-3.1024	-3.8438	-0.9381	-4.7817	-2.9057	66.5663	99.9928	
   292	-4.4577	-0.8986	-5.3562	-3.5591	-4.0483	-0.9801	-5.0283	-3.0682	-3.6843	-0.8197	-4.5038	-2.8646	66.6053	99.9931	
   293	-4.1568	-0.6897	-4.8464	-3.4671	-3.7630	-0.7459	-4.5088	-3.0172	-3.4966	-0.5968	-4.0933	-2.8998	66.2822	99.9955	
   294	-3.9206	-0.2893	-4.2099	-3.6312	-3.5725	-0.3591	-3.9315	-3.2133	-3.3976	-0.2199	-3.6174	-3.1777	65.8381	99.9963	
   295	-3.6451	 0.1346	-3.5104	-3.7796	-3.2880	 0.0844	-3.2036	-3.3724	-3.1062	 0.2516	-2.8545	-3.3578	65.4798	99.9961	
   296	-3.2348	 0.5240	-2.7107	-3.7588	-2.8419	 0.5269	-2.3149	-3.3689	-2.7274	 0.6558	-2.0716	-3.3832	65.2447	99.9986	
   297	-3.1228	 0.7493	-2.3734	-3.8721	-2.8263	 0.6844	-2.1418	-3.5108	-2.8688	 0.7779	-2.0909	-3.6467	64.9136	99.9990	
   298	-3.2890	 0.7650	-2.5239	-4.0539	-3.1184	 0.6682	-2.4501	-3.7866	-3.2008	 0.7300	-2.4708	-3.9308	64.6577	99.9987	
   299	-3.3371	 0.7218	-2.6152	-4.0589	-3.2323	 0.5993	-2.6330	-3.8316	-3.3451	 0.6864	-2.6587	-4.0315	64.4468	99.9979	
   300	-3.2173	 0.6928	-2.5244	-3.9101	-3.1571	 0.5584	-2.5985	-3.7155	-3.3369	 0.6258	-2.7110	-3.9626	64.3984	99.9983	
   301	-3.2077	 0.5978	-2.6098	-3.8055	-3.1265	 0.5276	-2.5989	-3.6541	-3.3205	 0.6138	-2.7065	-3.9343	64.1976	99.9989	
   302	-3.2112	 0.5382	-2.6730	-3.7493	-3.0952	 0.5095	-2.5857	-3.6047	-3.2853	 0.6351	-2.6500	-3.9204	64.0411	99.9990	
   303	-3.1999	 0.4730	-2.7267	-3.6728	-3.1310	 0.4508	-2.6800	-3.5818	-3.3281	 0.5764	-2.7515	-3.9045	63.9545	99.9989	
   304	-3.3022	 0.4118	-2.8903	-3.7139	-3.2449	 0.3819	-2.8629	-3.6268	-3.4448	 0.5167	-2.9280	-3.9615	63.9093	99.9986	
   305	-3.3958	 0.3701	-3.0255	-3.7659	-3.3433	 0.3594	-2.9837	-3.7027	-3.5645	 0.5099	-3.0545	-4.0743	63.7016	99.9987	
   306	-3.5025	 0.3638	-3.1385	-3.8663	-3.4856	 0.3597	-3.1257	-3.8453	-3.7181	 0.5043	-3.2137	-4.2225	63.5300	99.9988	
   307	-3.7062	 0.3857	-3.3204	-4.0919	-3.7061	 0.3498	-3.3562	-4.0559	-4.0032	 0.4848	-3.5183	-4.4881	63.3481	99.9989	
   308	-3.9170	 0.4178	-3.4990	-4.3348	-4.0295	 0.3516	-3.6777	-4.3811	-4.4021	 0.4620	-3.9400	-4.8641	62.9411	99.9989	
   309	-4.3166	 0.4664	-3.8502	-4.7830	-4.5249	 0.3974	-4.1274	-4.9224	-4.8949	 0.4917	-4.4030	-5.3866	62.4942	99.9985	
   310	-4.7058	 0.5644	-4.1413	-5.2701	-4.9549	 0.4582	-4.4965	-5.4131	-5.3753	 0.5398	-4.8354	-5.9152	62.1236	99.9985	
   311	-5.1422	 0.6341	-4.5080	-5.7762	-5.4116	 0.5028	-4.9087	-5.9144	-5.8628	 0.5618	-5.3009	-6.4246	61.8368	99.9987	
   312	-5.4823	 0.7902	-4.6921	-6.2724	-5.6985	 0.6871	-5.0113	-6.3857	-6.0893	 0.7964	-5.2929	-6.8857	61.4734	99.9981	
   313	-5.5146	 1.0154	-4.4991	-6.5300	-5.6852	 0.9173	-4.7678	-6.6025	-5.9803	 1.0372	-4.9430	-7.0175	61.5505	99.9974	
   314	-5.4831	 1.1638	-4.3193	-6.6469	-5.5966	 1.1066	-4.4899	-6.7033	-5.8067	 1.2079	-4.5987	-7.0146	61.7118	99.9978	
   315	-5.5050	 1.1795	-4.3254	-6.6844	-5.5214	 1.0658	-4.4555	-6.5871	-5.6536	 1.0929	-4.5606	-6.7464	62.6036	99.9982	
   316	-5.5899	 0.8984	-4.6913	-6.4883	-5.5086	 0.7280	-4.7805	-6.2366	-5.5297	 0.7415	-4.7880	-6.2712	63.5745	99.9973	
   317	-5.5698	 0.4644	-5.1053	-6.0342	-5.2990	 0.3241	-4.9748	-5.6232	-5.0738	 0.4381	-4.6356	-5.5119	64.5219	99.9940	
   318	-5.3355	 0.1874	-5.1480	-5.5229	-4.9562	 0.0996	-4.8565	-5.0558	-4.6449	 0.2714	-4.3734	-4.9163	64.9452	99.9935	
   319	-5.3268	-0.0520	-5.3787	-5.2748	-4.9375	-0.1359	-5.0733	-4.8016	-4.6501	 0.0605	-4.5895	-4.7106	65.0247	99.9934	
   320	-5.5910	-0.2820	-5.8729	-5.3089	-5.2086	-0.3492	-5.5578	-4.8594	-4.8988	-0.1337	-5.0324	-4.7651	64.9810	99.9927	
   321	-5.7633	-0.3708	-6.1340	-5.3924	-5.3680	-0.4210	-5.7889	-4.9471	-5.0272	-0.2005	-5.2276	-4.8267	64.9810	99.9924	
   322	-5.8411	-0.4030	-6.2440	-5.4381	-5.4604	-0.4522	-5.9125	-5.0083	-5.1082	-0.2276	-5.3357	-4.8805	64.9391	99.9919	
   323	-5.8647	-0.4171	-6.2818	-5.4475	-5.4679	-0.4690	-5.9368	-4.9989	-5.1035	-0.2466	-5.3500	-4.8568	65.0213	99.9919	
   324	-5.7956	-0.4046	-6.2001	-5.3910	-5.3837	-0.4674	-5.8510	-4.9162	-5.0073	-0.2540	-5.2611	-4.7533	65.1853	99.9919	
   325	-5.7283	-0.4218	-6.1500	-5.3065	-5.3524	-0.4855	-5.8378	-4.8668	-5.0078	-0.2653	-5.2730	-4.7426	65.0613	99.9917	
   326	-5.7510	-0.4210	-6.1720	-5.3300	-5.3717	-0.4849	-5.8565	-4.8868	-5.0477	-0.2676	-5.3152	-4.7802	65.0194	99.9923	
   327	-5.7738	-0.4202	-6.1939	-5.3535	-5.3978	-0.4883	-5.8861	-4.9095	-5.0706	-0.2705	-5.3410	-4.8001	65.0190	99.9921	
   328	-5.7816	-0.4250	-6.2065	-5.3566	-5.4112	-0.4964	-5.9076	-4.9148	-5.0771	-0.2853	-5.3623	-4.7917	65.0594	99.9920	
   329	-5.8044	-0.4242	-6.2285	-5.3802	-5.4231	-0.4790	-5.9020	-4.9442	-5.0759	-0.2627	-5.3385	-4.8131	65.0202	99.9921	
   330	-5.7099	-0.3676	-6.0775	-5.3422	-5.2846	-0.4322	-5.7167	-4.8524	-4.9304	-0.1966	-5.1269	-4.7339	65.1055	99.9919	
   331	-5.5665	-0.2530	-5.8194	-5.3134	-5.1416	-0.3087	-5.4502	-4.8329	-4.8225	-0.0875	-4.9100	-4.7350	65.0251	99.9932	
   332	-5.3977	-0.0944	-5.4920	-5.3032	-4.9956	-0.1340	-5.1295	-4.8616	-4.7399	 0.0827	-4.6571	-4.8226	64.7407	99.9945	
   333	-5.1396	 0.1608	-4.9787	-5.3004	-4.8110	 0.1504	-4.6604	-4.9614	-4.6508	 0.3771	-4.2736	-5.0279	64.1298	99.9955	
   334	-4.7836	 0.6617	-4.1218	-5.4452	-4.4610	 0.7199	-3.7410	-5.1809	-4.3249	 0.9679	-3.3569	-5.2927	63.5021	99.9966	
   335	-4.4101	 1.2018	-3.2082	-5.6118	-4.0686	 1.2411	-2.8274	-5.3097	-4.1156	 1.3897	-2.7258	-5.5053	63.2944	99.9995	
   336	-4.4651	 1.4278	-3.0372	-5.8929	-4.2914	 1.4148	-2.8765	-5.7062	-4.3473	 1.5227	-2.8246	-5.8700	62.9855	99.9988	
   337	-4.5526	 1.4906	-3.0619	-6.0431	-4.4449	 1.4454	-2.9994	-5.8903	-4.5568	 1.5380	-3.0186	-6.0948	62.7601	99.9987	
   338	-4.5963	 1.5220	-3.0742	-6.1182	-4.5336	 1.4781	-3.0554	-6.0117	-4.7128	 1.5966	-3.1161	-6.3095	62.3360	99.9987	
   339	-4.6094	 1.5573	-3.0520	-6.1666	-4.6021	 1.5230	-3.0790	-6.1252	-4.8190	 1.6307	-3.1882	-6.4498	62.0749	99.9989	
   340	-4.7021	 1.5306	-3.1714	-6.2326	-4.6848	 1.5470	-3.1377	-6.2319	-4.9070	 1.6868	-3.2201	-6.5938	61.7512	99.9991	
   341	-4.7660	 1.4780	-3.2879	-6.2439	-4.7191	 1.5140	-3.2050	-6.2331	-4.9416	 1.6768	-3.2648	-6.6184	61.6749	99.9991	
   342	-4.7931	 1.4042	-3.3888	-6.1972	-4.7869	 1.4606	-3.3261	-6.2475	-5.0279	 1.6574	-3.3704	-6.6852	61.3795	99.9988	
   343	-4.8639	 1.3618	-3.5021	-6.2257	-4.8852	 1.4382	-3.4469	-6.3234	-5.1199	 1.6344	-3.4854	-6.7544	61.2497	99.9988	
   344	-4.9645	 1.3303	-3.6341	-6.2948	-5.0216	 1.4298	-3.5917	-6.4513	-5.2836	 1.6556	-3.6279	-6.9393	60.8670	99.9987	
   345	-5.1237	 1.3358	-3.7878	-6.4594	-5.2421	 1.4198	-3.8222	-6.6619	-5.5763	 1.5987	-3.9775	-7.1750	60.6547	99.9992	
   346	-5.4586	 1.3223	-4.1362	-6.7809	-5.7092	 1.3964	-4.3128	-7.1056	-6.1060	 1.5733	-4.5326	-7.6793	60.0008	99.9989	
   347	-5.8390	 1.4399	-4.3990	-7.2789	-6.1191	 1.4693	-4.6496	-7.5884	-6.5237	 1.6266	-4.8970	-8.1503	59.7919	99.9986	
   348	-6.1582	 1.5654	-4.5927	-7.7236	-6.4305	 1.5647	-4.8657	-7.9953	-6.8481	 1.7254	-5.1227	-8.5735	59.5579	99.9985	
   349	-6.3707	 1.6972	-4.6734	-8.0678	-6.6176	 1.6861	-4.9314	-8.3037	-7.0359	 1.8303	-5.2054	-8.8662	59.4662	99.9988	
   350	-6.5158	 1.8117	-4.7040	-8.3275	-6.7331	 1.8136	-4.9194	-8.5468	-7.1245	 1.9844	-5.1400	-9.1089	59.2725	99.9985	
   351	-6.5307	 1.9467	-4.5838	-8.4774	-6.6602	 1.9565	-4.7036	-8.6166	-6.9961	 2.1605	-4.8355	-9.1566	59.3678	99.9982	
   352	-6.4502	 2.0237	-4.4264	-8.4739	-6.6155	 2.0575	-4.5579	-8.6730	-6.9187	 2.2292	-4.6894	-9.1479	59.3746	99.9984	
   353	-6.5175	 2.0409	-4.4765	-8.5584	-6.6341	 2.0709	-4.5631	-8.7051	-6.8970	 2.2095	-4.6873	-9.1065	59.6818	99.9988	
   354	-6.5543	 1.9326	-4.6216	-8.4869	-6.6430	 1.9175	-4.7254	-8.5605	-6.8952	 2.0248	-4.8702	-8.9200	60.1331	99.9988	
   355	-6.4573	 1.6454	-4.8118	-8.1026	-6.4216	 1.6072	-4.8144	-8.0288	-6.4745	 1.7001	-4.7743	-8.1746	61.4055	99.9977	
   356	-6.1617	 1.2467	-4.9149	-7.4085	-6.0094	 1.2395	-4.7699	-7.2489	-5.9441	 1.4090	-4.5350	-7.3530	62.1228	99.9964	
   357	-5.9694	 1.0310	-4.9383	-7.0003	-5.7300	 1.0383	-4.6916	-6.7683	-5.6331	 1.2692	-4.3638	-6.9023	62.4377	99.9958	
   358	-6.0613	 0.7601	-5.3010	-6.8214	-5.8297	 0.7682	-5.0614	-6.5979	-5.7022	 1.0306	-4.6715	-6.7329	62.5567	99.9944	
   359	-6.4111	 0.4932	-5.9179	-6.9043	-6.1597	 0.5440	-5.6156	-6.7036	-5.9726	 0.8561	-5.1164	-6.8287	62.4353	99.9931	
   360	-6.6307	 0.3761	-6.2544	-7.0068	-6.3481	 0.4176	-5.9304	-6.7658	-6.1321	 0.7377	-5.3944	-6.8698	62.5556	99.9926	
   361	-6.7251	 0.3196	-6.4054	-7.0447	-6.4099	 0.3556	-6.0543	-6.7655	-6.1468	 0.6741	-5.4725	-6.8209	62.7657	99.9920	
   362	-6.7199	 0.2796	-6.4402	-6.9994	-6.4189	 0.3132	-6.1056	-6.7320	-6.1661	 0.6296	-5.5364	-6.7958	62.7612	99.9920	
   363	-6.7741	 0.2615	-6.5125	-7.0356	-6.4911	 0.2941	-6.1969	-6.7853	-6.2306	 0.5906	-5.6399	-6.8212	62.7966	99.9921	
   364	-6.8432	 0.2489	-6.5942	-7.0921	-6.5761	 0.2798	-6.2962	-6.8558	-6.3450	 0.5760	-5.7689	-6.9210	62.6646	99.9924	
   365	-6.9123	 0.2363	-6.6758	-7.1486	-6.6550	 0.2567	-6.3982	-6.9117	-6.4312	 0.5566	-5.8745	-6.9879	62.6177	99.9921	
   366	-6.9954	 0.2442	-6.7511	-7.2395	-6.7333	 0.2464	-6.4868	-6.9797	-6.5456	 0.5421	-6.0035	-7.0877	62.5670	99.9926	
   367	-7.0408	 0.2457	-6.7950	-7.2865	-6.7720	 0.2476	-6.5243	-7.0197	-6.5403	 0.5343	-6.0059	-7.0747	62.6954	99.9921	
   368	-7.0102	 0.2496	-6.7605	-7.2598	-6.7340	 0.2336	-6.5003	-6.9676	-6.5133	 0.5069	-6.0063	-7.0203	62.8167	99.9924	
   369	-7.0487	 0.2410	-6.8076	-7.2897	-6.7861	 0.2268	-6.5593	-7.0129	-6.5931	 0.5024	-6.0906	-7.0955	62.6862	99.9927	
   370	-7.0942	 0.2426	-6.8515	-7.3367	-6.8510	 0.2246	-6.6263	-7.0755	-6.6506	 0.4895	-6.1610	-7.1401	62.6816	99.9925	
   371	-7.1475	 0.2394	-6.9080	-7.3869	-6.9031	 0.2177	-6.6853	-7.1208	-6.7187	 0.4920	-6.2266	-7.2107	62.5953	99.9924	
   372	-7.2070	 0.2614	-6.9455	-7.4683	-6.9545	 0.2236	-6.7308	-7.1782	-6.7644	 0.4862	-6.2781	-7.2506	62.6758	99.9924	
   373	-7.2455	 0.2527	-6.9927	-7.4982	-6.9806	 0.2202	-6.7603	-7.2008	-6.7978	 0.4987	-6.2990	-7.2966	62.5941	99.9924	
   374	-7.2376	 0.2574	-6.9801	-7.4950	-6.9486	 0.2149	-6.7336	-7.1635	-6.7362	 0.4814	-6.2548	-7.2176	62.8068	99.9923	
   375	-7.2149	 0.2566	-6.9581	-7.4715	-6.9419	 0.2189	-6.7228	-7.1608	-6.7251	 0.4772	-6.2478	-7.2023	62.8056	99.9923	
   376	-7.2367	 0.2723	-6.9643	-7.5090	-6.9605	 0.2324	-6.7280	-7.1929	-6.7580	 0.5010	-6.2569	-7.2590	62.7218	99.9923	
   377	-7.2359	 0.2872	-6.9485	-7.5231	-6.9657	 0.2539	-6.7117	-7.2196	-6.7627	 0.5200	-6.2425	-7.2827	62.6804	99.9924	
   378	-7.2428	 0.2974	-6.9453	-7.5403	-6.9776	 0.2713	-6.7062	-7.2490	-6.7732	 0.5355	-6.2376	-7.3087	62.6390	99.9926	
   379	-7.2568	 0.3179	-6.9389	-7.5747	-6.9896	 0.2888	-6.7007	-7.2784	-6.7726	 0.5468	-6.2258	-7.3194	62.6816	99.9925	
   380	-7.2105	 0.3312	-6.8792	-7.5417	-6.9248	 0.2910	-6.6337	-7.2158	-6.6923	 0.5626	-6.1296	-7.2549	62.7710	99.9918	
   381	-7.1641	 0.3446	-6.8195	-7.5087	-6.8719	 0.3106	-6.5611	-7.1825	-6.6459	 0.5797	-6.0661	-7.2257	62.7733	99.9922	
   382	-7.1326	 0.3634	-6.7691	-7.4960	-6.8763	 0.3450	-6.5313	-7.2213	-6.6506	 0.5987	-6.0518	-7.2494	62.6873	99.9925	
   383	-7.1536	 0.3940	-6.7595	-7.5476	-6.8823	 0.3537	-6.5285	-7.2360	-6.6665	 0.6219	-6.0444	-7.2884	62.6873	99.9920	
   384	-7.1449	 0.4136	-6.7311	-7.5585	-6.8935	 0.3839	-6.5095	-7.2774	-6.6771	 0.6374	-6.0395	-7.3145	62.6437	99.9924	
   385	-7.1816	 0.4348	-6.7467	-7.6164	-6.9188	 0.3933	-6.5254	-7.3121	-6.7099	 0.6613	-6.0486	-7.3712	62.6024	99.9920	
   386	-7.2087	 0.4905	-6.7181	-7.6992	-6.9159	 0.4444	-6.4713	-7.3603	-6.6683	 0.6974	-5.9708	-7.3657	62.7755	99.9920	
   387	-7.1615	 0.5188	-6.6426	-7.6803	-6.8689	 0.4728	-6.3960	-7.3418	-6.6214	 0.7258	-5.8955	-7.3471	62.7778	99.9920	
   388	-7.1440	 0.5581	-6.5858	-7.7020	-6.8541	 0.5065	-6.3475	-7.3606	-6.6249	 0.7674	-5.8574	-7.3923	62.6942	99.9920	
   389	-7.1352	 0.5777	-6.5574	-7.7129	-6.8727	 0.5199	-6.3527	-7.3926	-6.6525	 0.7835	-5.8689	-7.4359	62.6071	99.9915	
   390	-7.1571	 0.5934	-6.5636	-7.7504	-6.8913	 0.5333	-6.3579	-7.4247	-6.6859	 0.7960	-5.8898	-7.4819	62.5635	99.9919	
   391	-7.2017	 0.6098	-6.5917	-7.8115	-6.9614	 0.5527	-6.4086	-7.5140	-6.7592	 0.8063	-5.9528	-7.5655	62.4748	99.9919	
   392	-7.2384	 0.6310	-6.6073	-7.8694	-6.9867	 0.5620	-6.4246	-7.5487	-6.7815	 0.8147	-5.9668	-7.5962	62.5162	99.9918	
   393	-7.2157	 0.6303	-6.5853	-7.8459	-6.9673	 0.5614	-6.4058	-7.5287	-6.7645	 0.8140	-5.9504	-7.5786	62.5162	99.9918	
   394	-7.2594	 0.6616	-6.5977	-7.9210	-7.0314	 0.5720	-6.4593	-7.6034	-6.8455	 0.7869	-6.0585	-7.6324	62.5870	99.9924	
   395	-7.3582	 0.6600	-6.6981	-8.0182	-7.1409	 0.5798	-6.5610	-7.7207	-6.9305	 0.7901	-6.1403	-7.7206	62.5443	99.9921	
   396	-7.4107	 0.6718	-6.7388	-8.0824	-7.1730	 0.5851	-6.5878	-7.7581	-6.9370	 0.7752	-6.1616	-7.7122	62.7126	99.9923	
   397	-7.3425	 0.6695	-6.6729	-8.0119	-7.0299	 0.5976	-6.4323	-7.6275	-6.7704	 0.8105	-5.9598	-7.5809	62.8558	99.9927	
   398	-7.0644	 0.7496	-6.3147	-7.8139	-6.7856	 0.6837	-6.1018	-7.4693	-6.5117	 0.8687	-5.6430	-7.3804	62.9859	99.9929	
   399	-6.7548	 0.8486	-5.9061	-7.6033	-6.4898	 0.7638	-5.7259	-7.2537	-6.2255	 0.9107	-5.3146	-7.1362	63.2368	99.9935	
   400	-6.5886	 0.8330	-5.7555	-7.4215	-6.3736	 0.7601	-5.6134	-7.1337	-6.1410	 0.8963	-5.2446	-7.0372	63.1496	99.9939	
   401	-6.5501	 0.8416	-5.7084	-7.3917	-6.3475	 0.7635	-5.5839	-7.1110	-6.1181	 0.8992	-5.2188	-7.0173	63.1486	99.9937	
   402	-6.5510	 0.8267	-5.7242	-7.3777	-6.3676	 0.7514	-5.6162	-7.1190	-6.1070	 0.8950	-5.2119	-7.0020	63.1506	99.9927	
   403	-6.5834	 0.7929	-5.7903	-7.3763	-6.3639	 0.7043	-5.6595	-7.0682	-6.1246	 0.8843	-5.2401	-7.0089	63.1114	99.9923	
   404	-6.5834	 0.7929	-5.7903	-7.3763	-6.3438	 0.7164	-5.6272	-7.0602	-6.0847	 0.8866	-5.1979	-6.9713	63.1986	99.9928	
   405	-6.4828	 0.8244	-5.6583	-7.3071	-6.1992	 0.7545	-5.4447	-6.9537	-5.9063	 0.9290	-4.9773	-6.8353	63.3758	99.9928	
   406	-6.3376	 0.8393	-5.4982	-7.1769	-6.0562	 0.7670	-5.2891	-6.8232	-5.7972	 0.9513	-4.8459	-6.7485	63.3359	99.9931	
   407	-6.2545	 0.8315	-5.4229	-7.0860	-5.9526	 0.7679	-5.1846	-6.7205	-5.6993	 0.9778	-4.7214	-6.6770	63.3015	99.9930	
   408	-6.0464	 0.7546	-5.2917	-6.8010	-5.7298	 0.7052	-5.0245	-6.4351	-5.4746	 0.9279	-4.5466	-6.4025	63.4320	99.9932	
   409	-5.9039	 0.7249	-5.1789	-6.6287	-5.5920	 0.7392	-4.8527	-6.3312	-5.3456	 1.0060	-4.3395	-6.3516	63.1174	99.9934	
   410	-5.8164	 0.7916	-5.0247	-6.6080	-5.5362	 0.8100	-4.7260	-6.3462	-5.3133	 1.0802	-4.2331	-6.3935	62.9532	99.9934	
   411	-5.7998	 0.8159	-4.9837	-6.6157	-5.5019	 0.8431	-4.6587	-6.3450	-5.2664	 1.1086	-4.1578	-6.3750	62.9989	99.9938	
   412	-5.7561	 0.7846	-4.9714	-6.5406	-5.4579	 0.8203	-4.6375	-6.2783	-5.2224	 1.0805	-4.1418	-6.3030	63.0404	99.9941	
   413	-5.8050	 0.7265	-5.0785	-6.5315	-5.5004	 0.7576	-4.7427	-6.2580	-5.3045	 1.0308	-4.2736	-6.3354	62.9532	99.9944	
   414	-5.8759	 0.6841	-5.1917	-6.5599	-5.6054	 0.7311	-4.8742	-6.3365	-5.3860	 0.9924	-4.3935	-6.3785	62.9084	99.9941	
   415	-5.9397	 0.6315	-5.3082	-6.5712	-5.6792	 0.6865	-4.9926	-6.3657	-5.4447	 0.9569	-4.4877	-6.4016	62.8668	99.9937	
   416	-5.9940	 0.6134	-5.3805	-6.6073	-5.7186	 0.6750	-5.0436	-6.3936	-5.4957	 0.9588	-4.5368	-6.4546	62.7855	99.9939	
   417	-6.0018	 0.6087	-5.3931	-6.6105	-5.7380	 0.6756	-5.0623	-6.4136	-5.5069	 0.9630	-4.5437	-6.4699	62.7449	99.9936	
   418	-5.9187	 0.6008	-5.3178	-6.5196	-5.6404	 0.6853	-4.9551	-6.3257	-5.3708	 0.9580	-4.4127	-6.3287	62.9169	99.9938	
   419	-5.8357	 0.5930	-5.2425	-6.4287	-5.5763	 0.6747	-4.9016	-6.2510	-5.3485	 0.9496	-4.3988	-6.2981	62.8305	99.9942	
   420	-5.8593	 0.5789	-5.2803	-6.4381	-5.6225	 0.6591	-4.9634	-6.2816	-5.4060	 0.9367	-4.4692	-6.3426	62.7438	99.9940	
   421	-5.9056	 0.5655	-5.3400	-6.4711	-5.6687	 0.6435	-5.0251	-6.3122	-5.4523	 0.9195	-4.5327	-6.3719	62.7416	99.9940	
   422	-5.9301	 0.5365	-5.3935	-6.4666	-5.7082	 0.6319	-5.0762	-6.3401	-5.4822	 0.8905	-4.5916	-6.3727	62.7394	99.9944	
   423	-5.8777	 0.3952	-5.4824	-6.2729	-5.7291	 0.6070	-5.1220	-6.3360	-5.5063	 0.8650	-4.6411	-6.3713	62.2908	99.9955	
   424	-5.6529	 0.3427	-5.3101	-5.9956	-5.5458	 0.6438	-4.9019	-6.1896	-5.3227	 0.8996	-4.4229	-6.2223	62.0574	99.9964	
   425	-5.5751	 0.3749	-5.2001	-5.9500	-5.5264	 0.6432	-4.8831	-6.1696	-5.3232	 0.8883	-4.4348	-6.2116	62.0441	99.9958	
   426	-5.6582	 0.3827	-5.2753	-6.0409	-5.6106	 0.6416	-4.9689	-6.2522	-5.3754	 0.8677	-4.5077	-6.2431	62.1648	99.9955	
   427	-5.7037	 0.3843	-5.3193	-6.0879	-5.6575	 0.6132	-5.0442	-6.2708	-5.4288	 0.8245	-4.6043	-6.2533	62.2794	99.9954	
   428	-5.7212	 0.3450	-5.3760	-6.0662	-5.6486	 0.5446	-5.1039	-6.1932	-5.4106	 0.7371	-4.6734	-6.1477	62.5638	99.9955	
   429	-5.7474	 0.2862	-5.4611	-6.0335	-5.6739	 0.4429	-5.2308	-6.1168	-5.4493	 0.6481	-4.8011	-6.0974	62.6794	99.9947	
   430	-5.8252	 0.2540	-5.5712	-6.0792	-5.7483	 0.3855	-5.3627	-6.1339	-5.4974	 0.5971	-4.9001	-6.0945	62.8010	99.9936	
   431	-5.8086	 0.2783	-5.5302	-6.0869	-5.7163	 0.3802	-5.3360	-6.0965	-5.4299	 0.5833	-4.8465	-6.0132	63.0506	99.9928	
   432	-5.7203	 0.2304	-5.4898	-5.9507	-5.5985	 0.2910	-5.3074	-5.8896	-5.3085	 0.5147	-4.7936	-5.8232	63.2997	99.9917	
   433	-5.6757	 0.2140	-5.4616	-5.8896	-5.5345	 0.2804	-5.2539	-5.8149	-5.2521	 0.5051	-4.7470	-5.7572	63.3433	99.9923	
   434	-5.6775	 0.1842	-5.4932	-5.8616	-5.5292	 0.2589	-5.2702	-5.7882	-5.2639	 0.4980	-4.7658	-5.7618	63.2617	99.9925	
   435	-5.6853	 0.1794	-5.5058	-5.8647	-5.5486	 0.2595	-5.2890	-5.8082	-5.2809	 0.4986	-4.7822	-5.7795	63.2199	99.9924	
   436	-5.6923	 0.1896	-5.5026	-5.8819	-5.5345	 0.2804	-5.2539	-5.8149	-5.2562	 0.5354	-4.7208	-5.7916	63.1850	99.9923	
   437	-5.5917	 0.2211	-5.3706	-5.8128	-5.3959	 0.3272	-5.0686	-5.7231	-5.0949	 0.5783	-4.5165	-5.6733	63.3182	99.9929	
   438	-5.4920	 0.2376	-5.2544	-5.7296	-5.3177	 0.3375	-4.9800	-5.6552	-5.0609	 0.5771	-4.4838	-5.6380	63.2721	99.9936	
   439	-5.5244	 0.2038	-5.3205	-5.7282	-5.3832	 0.3226	-5.0606	-5.7058	-5.1026	 0.5409	-4.5615	-5.6435	63.2692	99.9936	
   440	-5.5708	 0.1905	-5.3802	-5.7612	-5.4235	 0.2982	-5.1251	-5.7217	-5.1712	 0.5322	-4.6389	-5.7034	63.1840	99.9936	
   441	-5.6495	 0.1433	-5.5060	-5.7928	-5.5292	 0.2589	-5.2702	-5.7882	-5.2703	 0.4831	-4.7871	-5.7535	63.1373	99.9935	
   442	-5.7046	 0.1104	-5.5941	-5.8149	-5.6008	 0.2527	-5.3480	-5.8535	-5.3272	 0.4815	-4.8456	-5.8087	63.0149	99.9934	
   443	-5.7273	 0.1111	-5.6161	-5.8384	-5.5948	 0.2440	-5.3507	-5.8388	-5.2938	 0.4689	-4.8247	-5.7627	63.1830	99.9931	
   444	-5.5979	 0.1167	-5.4811	-5.7145	-5.4845	 0.2489	-5.2355	-5.7335	-5.1911	 0.4764	-4.7146	-5.6675	63.1840	99.9929	
   445	-5.5375	 0.1096	-5.4278	-5.6471	-5.4391	 0.2518	-5.1872	-5.6908	-5.1735	 0.4871	-4.6864	-5.6606	63.0598	99.9933	
   446	-5.5288	 0.1293	-5.3994	-5.6580	-5.4063	 0.2592	-5.1470	-5.6656	-5.1395	 0.4858	-4.6536	-5.6253	63.1840	99.9936	
   447	-5.4991	 0.1183	-5.3807	-5.6173	-5.3929	 0.2674	-5.1254	-5.6603	-5.1225	 0.4852	-4.6372	-5.6076	63.1433	99.9939	
   448	-5.4903	 0.1379	-5.3523	-5.6282	-5.3661	 0.2836	-5.0824	-5.6497	-5.1155	 0.5113	-4.6041	-5.6267	63.1035	99.9942	
   449	-5.4588	 0.1568	-5.3020	-5.6156	-5.3452	 0.3085	-5.0366	-5.6538	-5.0861	 0.5290	-4.5570	-5.6152	63.1045	99.9942	
   450	-5.3591	 0.1733	-5.1858	-5.5324	-5.2409	 0.3222	-4.9186	-5.5632	-4.9841	 0.5252	-4.4587	-5.5093	63.2286	99.9947	
   451	-5.3137	 0.1717	-5.1418	-5.4853	-5.2290	 0.3048	-4.9241	-5.5338	-4.9964	 0.5068	-4.4894	-5.5032	63.1811	99.9944	
   452	-5.3381	 0.1427	-5.1954	-5.4808	-5.2752	 0.2892	-4.9859	-5.5644	-5.0374	 0.4820	-4.5553	-5.5194	63.1373	99.9944	
   453	-5.3609	 0.1434	-5.2173	-5.5043	-5.2953	 0.2770	-5.0182	-5.5723	-5.0662	 0.4755	-4.5905	-5.5417	63.1354	99.9942	
   454	-5.3530	 0.1482	-5.2048	-5.5011	-5.2893	 0.2683	-5.0209	-5.5576	-5.0556	 0.4600	-4.5955	-5.5157	63.2161	99.9940	
   455	-5.3381	 0.1427	-5.1954	-5.4808	-5.2834	 0.2596	-5.0237	-5.5429	-5.0673	 0.4530	-4.6143	-5.5203	63.1723	99.9941	
   456	-5.3005	 0.1364	-5.1640	-5.4369	-5.2513	 0.2543	-4.9970	-5.5056	-5.0386	 0.4594	-4.5791	-5.4980	63.1324	99.9939	
   457	-5.2026	 0.1231	-5.0794	-5.3257	-5.1738	 0.2518	-4.9220	-5.4256	-4.9764	 0.4533	-4.5230	-5.4297	63.0905	99.9941	
   458	-5.1956	 0.1129	-5.0826	-5.3085	-5.1932	 0.2524	-4.9407	-5.4456	-4.9993	 0.4504	-4.5488	-5.4497	63.0056	99.9941	
   459	-5.2175	 0.1286	-5.0888	-5.3460	-5.2118	 0.2658	-4.9459	-5.4777	-5.0327	 0.4630	-4.5697	-5.4957	62.9626	99.9944	
   460	-5.2017	 0.1380	-5.0636	-5.3397	-5.2111	 0.2786	-4.9324	-5.4897	-5.0433	 0.4784	-4.5648	-5.5217	62.8786	99.9944	
   461	-5.1493	 0.1262	-5.0229	-5.2755	-5.1783	 0.2861	-4.8922	-5.4644	-5.0204	 0.4813	-4.5390	-5.5018	62.7955	99.9948	
   462	-5.0452	 0.0878	-4.9573	-5.1330	-5.1008	 0.2836	-4.8172	-5.3844	-4.9518	 0.4901	-4.4616	-5.4419	62.6339	99.9949	
   463	-4.8948	 0.0627	-4.8319	-4.9575	-4.9332	 0.2739	-4.6592	-5.2071	-4.7758	 0.4873	-4.2884	-5.2631	62.7260	99.9951	
   464	-4.7767	 0.0039	-4.7727	-4.7806	-4.8818	 0.2680	-4.6137	-5.1498	-4.7306	 0.4818	-4.2487	-5.2125	62.4786	99.9952	
   465	-4.7706	-0.0212	-4.7917	-4.7494	-4.8751	 0.2721	-4.6029	-5.1471	-4.7183	 0.5002	-4.2180	-5.2185	62.3610	99.9953	
   466	-4.6963	-0.0486	-4.7448	-4.6476	-4.8475	 0.3011	-4.5464	-5.1486	-4.7001	 0.5221	-4.1779	-5.2223	62.1149	99.9958	
   467	-4.7111	-0.0432	-4.7542	-4.6680	-4.8543	 0.4080	-4.4461	-5.2623	-4.6591	 0.6563	-4.0027	-5.3154	61.7721	99.9961	
   468	-4.7085	 0.1311	-4.5773	-4.8396	-4.7567	 0.5287	-4.2279	-5.2855	-4.5254	 0.7154	-3.8099	-5.2407	62.3525	99.9969	
   469	-4.6988	 0.2951	-4.4036	-4.9939	-4.6524	 0.5425	-4.1098	-5.1949	-4.4392	 0.7347	-3.7043	-5.1739	62.9200	99.9963	
   470	-4.7758	 0.4074	-4.3683	-5.1831	-4.6457	 0.5465	-4.0991	-5.1922	-4.4445	 0.7425	-3.7019	-5.1869	63.3247	99.9958	
   471	-4.8501	 0.4348	-4.4152	-5.2849	-4.7158	 0.5658	-4.1498	-5.2816	-4.5061	 0.7599	-3.7461	-5.2659	63.3238	99.9956	
   472	-4.9131	 0.3971	-4.5159	-5.3102	-4.7888	 0.5340	-4.2546	-5.3228	-4.5929	 0.7292	-3.8636	-5.3220	63.2381	99.9958	
   473	-4.9743	 0.3892	-4.5850	-5.3635	-4.8476	 0.5231	-4.3244	-5.3707	-4.6562	 0.7127	-3.9434	-5.3689	63.2352	99.9959	
   474	-5.0215	 0.3610	-4.6605	-5.3825	-4.9072	 0.4994	-4.4077	-5.4066	-4.7254	 0.6927	-4.0326	-5.4181	63.1501	99.9959	
   475	-5.0224	 0.3461	-4.6762	-5.3684	-4.8826	 0.4773	-4.4052	-5.3599	-4.6750	 0.6795	-3.9954	-5.3545	63.2777	99.9955	
   476	-4.9708	 0.3194	-4.6513	-5.2902	-4.8588	 0.4423	-4.4163	-5.3011	-4.6656	 0.6414	-4.0240	-5.3070	63.2730	99.9953	
   477	-5.0189	 0.2762	-4.7426	-5.2951	-4.9437	 0.4280	-4.5156	-5.3717	-4.7401	 0.6292	-4.1108	-5.3692	63.1075	99.9951	
   478	-5.0644	 0.2778	-4.7865	-5.3421	-4.9877	 0.4508	-4.5368	-5.4384	-4.8011	 0.6578	-4.1432	-5.4589	62.9438	99.9957	
   479	-5.1833	 0.3217	-4.8616	-5.5050	-5.1196	 0.5191	-4.6004	-5.6386	-4.9290	 0.7116	-4.2173	-5.6406	62.7778	99.9961	
   480	-5.1885	 0.4912	-4.6972	-5.6797	-5.1018	 0.7149	-4.3867	-5.8167	-4.9484	 0.8857	-4.0626	-5.8341	62.5767	99.9976	
   481	-5.1010	 0.6875	-4.4135	-5.7885	-5.0579	 0.9142	-4.1436	-5.9721	-4.9115	 1.0501	-3.8613	-5.9616	62.4523	99.9978	
   482	-4.8894	 0.7998	-4.0895	-5.6891	-4.8687	 1.0533	-3.8153	-5.9220	-4.7303	 1.1488	-3.5813	-5.8791	62.4571	99.9984	
   483	-4.7704	 0.8854	-3.8850	-5.6558	-4.7525	 1.1606	-3.5918	-5.9131	-4.6893	 1.2830	-3.4062	-5.9722	62.0914	99.9990	
   484	-4.6917	 1.1915	-3.5001	-5.8831	-4.6424	 1.4987	-3.1436	-6.1411	-4.5451	 1.6544	-2.8905	-6.1995	61.7975	99.9989	
   485	-4.2657	 1.5904	-2.6752	-5.8560	-4.2417	 1.9385	-2.3031	-6.1802	-4.1821	 2.0818	-2.1002	-6.2639	61.4588	99.9993	
   486	-3.9211	 1.8974	-2.0236	-5.8184	-3.8618	 2.2423	-1.6195	-6.1041	-3.8872	 2.4024	-1.4847	-6.2896	61.2370	99.9998	
   487	-3.8082	 2.1376	-1.6705	-5.9458	-3.7032	 2.4122	-1.2909	-6.1154	-3.7711	 2.5601	-1.2108	-6.3312	61.3999	99.9999	
   488	-3.7723	 2.2310	-1.5413	-6.0033	-3.6376	 2.4272	-1.2103	-6.0649	-3.7482	 2.5630	-1.1851	-6.3112	61.6308	99.9999	
   489	-3.8082	 2.2671	-1.5410	-6.0753	-3.6809	 2.4628	-1.2180	-6.1436	-3.8409	 2.6381	-1.2027	-6.4790	61.3046	99.9999	
   490	-3.9254	 2.2113	-1.7140	-6.1367	-3.8060	 2.4241	-1.3818	-6.2301	-3.9740	 2.5903	-1.3836	-6.5643	61.2150	100.0000	
   491	-4.0837	 2.1022	-1.9814	-6.1858	-3.9356	 2.3087	-1.6268	-6.2443	-4.0814	 2.4926	-1.5887	-6.5739	61.2952	99.9999	
   492	-4.1554	 2.0448	-2.1105	-6.2002	-3.9907	 2.2507	-1.7400	-6.2414	-4.1236	 2.4451	-1.6783	-6.5687	61.3369	99.9998	
   493	-4.1957	 2.0064	-2.1892	-6.2020	-4.0250	 2.2176	-1.8073	-6.2426	-4.1429	 2.4006	-1.7422	-6.5436	61.4172	99.9999	
   494	-4.1441	 1.9797	-2.1643	-6.1237	-3.9825	 2.1693	-1.8131	-6.1518	-4.1288	 2.3436	-1.7851	-6.4724	61.4884	99.9999	
   495	-4.1240	 1.9342	-2.1897	-6.0581	-3.9855	 2.1181	-1.8672	-6.1036	-4.1323	 2.2759	-1.8563	-6.4082	61.5615	99.9999	
   496	-4.1563	 1.9004	-2.2558	-6.0567	-4.0391	 2.0857	-1.9533	-6.1248	-4.1910	 2.2404	-1.9505	-6.4314	61.5137	99.9999	
   497	-4.1887	 1.8667	-2.3219	-6.0553	-4.0674	 2.0439	-2.0234	-6.1113	-4.2220	 2.1888	-2.0331	-6.4108	61.5900	99.9999	
   498	-4.2420	 1.8635	-2.3784	-6.1055	-4.1397	 2.0249	-2.1147	-6.1645	-4.2924	 2.1462	-2.1461	-6.4386	61.6606	99.9999	
   499	-4.3129	 1.8211	-2.4917	-6.1340	-4.2424	 1.9257	-2.3167	-6.1681	-4.4038	 1.9695	-2.4342	-6.3733	62.0401	100.0000	
   500	-4.4721	 1.5675	-2.9045	-6.0396	-4.4069	 1.5424	-2.8645	-5.9493	-4.5749	 1.5161	-3.0587	-6.0911	62.8656	99.9999	
   501	-4.8342	 1.0918	-3.7424	-5.9260	-4.7905	 1.0636	-3.7267	-5.8541	-4.9608	 1.0858	-3.8748	-6.0466	62.8437	99.9996	
   502	-5.2147	 0.8209	-4.3938	-6.0355	-5.1100	 0.7963	-4.3136	-5.9063	-5.2206	 0.8958	-4.3247	-6.1164	62.8481	99.9988	
   503	-5.4299	 0.6489	-4.7809	-6.0787	-5.3260	 0.6410	-4.6849	-5.9670	-5.3062	 0.7784	-4.5277	-6.0846	62.9827	99.9970	
   504	-5.6127	 0.5107	-5.1019	-6.1233	-5.4451	 0.4825	-4.9625	-5.9277	-5.3466	 0.6556	-4.6910	-6.0022	63.2808	99.9955	
   505	-5.6783	 0.4283	-5.2499	-6.1065	-5.4868	 0.4326	-5.0541	-5.9195	-5.3765	 0.6265	-4.7499	-6.0031	63.2035	99.9957	
   506	-5.7141	 0.4643	-5.2497	-6.1784	-5.4973	 0.4757	-5.0215	-5.9730	-5.4487	 0.6594	-4.7892	-6.1081	63.0753	99.9971	
   507	-5.6179	 0.5507	-5.0671	-6.1686	-5.4050	 0.6179	-4.7869	-6.0229	-5.3801	 0.7774	-4.6026	-6.1575	62.8743	99.9984	
   508	-5.1754	 0.8444	-4.3308	-6.0197	-4.9558	 1.0006	-3.9551	-5.9564	-4.9690	 1.1464	-3.8225	-6.1155	62.5313	99.9996	
   509	-4.7232	 0.9136	-3.8095	-5.6368	-4.6221	 1.0667	-3.5552	-5.6888	-4.7408	 1.1643	-3.5764	-5.9051	62.3895	99.9999	
   510	-4.6445	 0.9607	-3.6836	-5.6052	-4.5446	 1.1753	-3.3693	-5.7199	-4.6054	 1.2572	-3.3480	-5.8626	62.3659	99.9999	
   511	-4.5527	 0.9726	-3.5800	-5.5252	-4.4612	 1.1641	-3.2970	-5.6252	-4.5555	 1.2328	-3.3226	-5.7882	62.4414	100.0000	
   512	-4.5693	 0.9482	-3.6210	-5.5175	-4.4738	 1.1687	-3.3050	-5.6426	-4.5490	 1.2476	-3.3014	-5.7966	62.3659	99.9999	
   513	-4.5282	 1.0016	-3.5265	-5.5297	-4.4195	 1.2140	-3.2054	-5.6334	-4.5068	 1.2950	-3.2117	-5.8018	62.3684	100.0000	
   514	-4.5631	 1.0526	-3.5104	-5.6157	-4.4329	 1.2058	-3.2269	-5.6387	-4.5133	 1.2802	-3.2330	-5.7934	62.6104	99.9999	
   515	-4.5920	 1.0785	-3.5134	-5.6705	-4.4016	 1.1878	-3.2137	-5.5893	-4.4687	 1.2634	-3.2052	-5.7321	62.9010	99.9999	
   516	-4.5247	 1.0613	-3.4633	-5.5859	-4.3256	 1.1597	-3.1658	-5.4853	-4.3795	 1.2300	-3.1495	-5.6095	63.0668	99.9999	
   517	-4.4932	 1.0801	-3.4130	-5.5732	-4.2667	 1.1706	-3.0960	-5.4373	-4.3103	 1.2500	-3.0602	-5.5603	63.1540	99.9998	
   518	-4.4521	 1.1335	-3.3185	-5.5855	-4.2064	 1.2071	-2.9992	-5.4135	-4.2569	 1.2932	-2.9636	-5.5501	63.1975	99.9998	
   519	-4.4354	 1.1578	-3.2775	-5.5932	-4.1877	 1.1937	-2.9940	-5.3815	-4.2469	 1.2665	-2.9804	-5.5134	63.3561	99.9997	
   520	-4.4529	 1.1186	-3.3343	-5.5715	-4.2153	 1.1647	-3.0505	-5.3800	-4.2598	 1.2368	-3.0230	-5.4966	63.3561	99.9997	
   521	-4.4529	 1.1186	-3.3343	-5.5715	-4.2153	 1.1647	-3.0505	-5.3800	-4.2598	 1.2368	-3.0230	-5.4966	63.3561	99.9997	
   522	-4.4687	 1.1091	-3.3594	-5.5778	-4.2295	 1.1438	-3.0856	-5.3733	-4.2727	 1.2071	-3.0655	-5.4799	63.4355	99.9997	
   523	-4.4774	 1.0895	-3.3878	-5.5669	-4.2116	 1.1176	-3.0939	-5.3292	-4.2399	 1.1833	-3.0565	-5.4232	63.5608	99.9997	
   524	-4.3961	 1.0519	-3.3441	-5.4480	-4.1102	 1.0802	-3.0300	-5.1904	-4.1343	 1.1379	-2.9963	-5.2722	63.7264	99.9998	
   525	-4.3366	 1.0299	-3.3066	-5.3665	-4.0469	 1.0568	-2.9900	-5.1037	-4.0727	 1.1205	-2.9521	-5.1932	63.7685	99.9997	
   526	-4.2964	 1.0684	-3.2279	-5.3648	-3.9992	 1.0979	-2.9012	-5.0972	-4.0193	 1.1637	-2.8555	-5.1830	63.7716	99.9997	
   527	-4.2256	 1.1108	-3.1147	-5.3363	-3.9329	 1.1257	-2.8071	-5.0586	-3.9554	 1.1915	-2.7638	-5.1469	63.8128	99.9997	
   528	-4.2098	 1.1202	-3.0895	-5.3300	-3.9143	 1.1123	-2.8019	-5.0266	-3.9454	 1.1648	-2.7805	-5.1101	63.9320	99.9997	
   529	-4.2116	 1.0904	-3.1211	-5.3019	-3.9158	 1.0867	-2.8289	-5.0025	-3.9460	 1.1535	-2.7924	-5.0994	63.8922	99.9996	
   530	-4.2116	 1.0904	-3.1211	-5.3019	-3.9031	 1.0820	-2.8209	-4.9851	-3.9348	 1.1493	-2.7854	-5.0841	63.9334	99.9996	
   531	-4.1810	 1.0943	-3.0865	-5.2753	-3.8509	 1.0889	-2.7619	-4.9399	-3.8609	 1.1503	-2.7105	-5.0112	64.0589	99.9997	
   532	-4.0454	 1.0748	-2.9706	-5.1201	-3.7287	 1.0764	-2.6522	-4.8052	-3.7143	 1.1297	-2.5844	-4.8440	64.1833	99.9996	
   533	-3.9466	 1.0764	-2.8701	-5.0229	-3.6252	 1.0774	-2.5477	-4.7026	-3.6233	 1.1301	-2.4931	-4.7534	64.2249	99.9997	
   534	-3.8994	 1.1046	-2.7946	-5.0040	-3.5723	 1.0970	-2.4752	-4.6693	-3.5594	 1.1579	-2.4014	-4.7173	64.2677	99.9995	
   535	-3.8058	 1.1463	-2.6594	-4.9520	-3.4725	 1.1451	-2.3273	-4.6175	-3.4433	 1.2063	-2.2369	-4.6496	64.3121	99.9995	
   536	-3.6449	 1.1706	-2.4741	-4.8155	-3.3160	 1.1657	-2.1503	-4.4817	-3.3007	 1.2161	-2.0846	-4.5168	64.3936	99.9996	
   537	-3.6589	 1.0615	-2.5972	-4.7204	-3.4113	 0.9723	-2.4389	-4.3836	-3.4942	 0.9896	-2.5045	-4.4839	64.4958	99.9995	
   538	-3.8172	 0.9524	-2.8647	-4.7695	-3.5513	 0.8999	-2.6513	-4.4513	-3.5763	 0.9399	-2.6363	-4.5163	64.4591	99.9994	
   539	-3.7350	 1.0592	-2.6757	-4.7941	-3.4262	 1.0496	-2.3765	-4.4759	-3.4198	 1.1112	-2.3085	-4.5310	64.3488	99.9995	
   540	-3.4927	 1.1754	-2.3172	-4.6681	-3.1297	 1.1426	-1.9871	-4.2723	-3.1036	 1.1823	-1.9212	-4.2859	64.7181	99.9996	
   541	-3.3117	 1.1543	-2.1573	-4.4659	-2.9762	 1.1120	-1.8641	-4.0883	-2.9869	 1.1327	-1.8540	-4.1196	64.7960	99.9997	
   542	-3.3379	 1.0954	-2.2424	-4.4333	-3.0135	 1.0278	-1.9855	-4.0413	-3.0484	 1.0408	-2.0075	-4.0892	64.8726	99.9997	
   543	-3.3782	 1.0569	-2.3211	-4.4350	-3.0425	 0.9732	-2.0692	-4.0157	-3.0789	 1.0005	-2.0783	-4.0794	64.9124	99.9996	
   544	-3.3484	 1.0459	-2.3024	-4.3943	-3.0097	 0.9807	-2.0289	-3.9905	-3.0232	 0.9796	-2.0435	-4.0028	65.0343	99.9998	
   545	-3.3135	 0.9949	-2.3184	-4.3084	-2.9888	 0.8946	-2.0941	-3.8835	-3.0384	 0.9048	-2.1335	-3.9432	65.0717	99.9996	
   546	-3.3170	 0.9353	-2.3816	-4.2522	-2.9851	 0.8475	-2.1374	-3.8326	-3.0355	 0.8519	-2.1834	-3.8874	65.1120	99.9997	
   547	-3.2794	 0.9290	-2.3502	-4.2083	-2.9210	 0.8369	-2.0840	-3.7580	-2.9498	 0.8600	-2.0897	-3.8098	65.1952	99.9996	
   548	-3.1009	 0.9926	-2.1082	-4.0936	-2.6960	 0.9237	-1.7723	-3.6197	-2.7064	 0.9527	-1.7536	-3.6591	65.2806	99.9997	
   549	-3.0179	 0.9848	-2.0329	-4.0027	-2.6573	 0.9224	-1.7348	-3.5797	-2.7017	 0.9337	-1.7679	-3.6354	65.1981	99.9998	
   550	-3.0782	 0.9919	-2.0862	-4.0700	-2.7013	 0.9452	-1.7560	-3.6464	-2.7105	 0.9830	-1.7274	-3.6935	65.1205	99.9997	
   551	-3.0625	 1.0013	-2.0611	-4.0637	-2.6744	 0.9614	-1.7129	-3.6358	-2.6988	 0.9901	-1.7086	-3.6889	65.1205	99.9998	
   552	-3.0931	 0.9974	-2.0956	-4.0904	-2.7244	 0.9929	-1.7314	-3.7173	-2.7375	 1.0104	-1.7270	-3.7479	65.0005	99.9999	
   553	-3.0686	 1.0264	-2.0421	-4.0950	-2.6715	 1.0125	-1.6588	-3.6840	-2.7012	 1.0542	-1.6468	-3.7554	64.9620	99.9999	
   554	-3.0616	 1.0162	-2.0453	-4.0778	-2.6789	 0.9957	-1.6831	-3.6746	-2.7299	 1.0478	-1.6820	-3.7777	64.8804	99.9998	
   555	-3.0546	 1.0060	-2.0485	-4.0606	-2.6603	 0.9823	-1.6779	-3.6426	-2.6742	 1.0268	-1.6472	-3.7010	65.0423	99.9998	
   556	-2.9339	 0.9919	-1.9419	-3.9258	-2.5329	 0.9483	-1.5845	-3.4812	-2.5686	 0.9814	-1.5870	-3.5500	65.2018	99.9998	
   557	-2.8841	 0.9354	-1.9485	-3.8195	-2.5306	 0.8756	-1.6549	-3.4062	-2.6078	 0.8812	-1.7266	-3.4890	65.2376	99.9999	
   558	-2.9103	 0.8765	-2.0337	-3.7868	-2.6043	 0.8310	-1.7732	-3.4354	-2.6618	 0.8267	-1.8350	-3.4884	65.1959	99.9999	
   559	-2.9191	 0.8569	-2.0620	-3.7760	-2.6058	 0.8055	-1.8003	-3.4113	-2.6747	 0.7970	-1.8776	-3.4717	65.2355	99.9999	
   560	-2.9129	 0.8318	-2.0810	-3.7447	-2.6140	 0.7758	-1.8381	-3.3899	-2.6764	 0.7631	-1.9132	-3.4395	65.2751	99.9999	
   561	-2.9304	 0.7926	-2.1378	-3.7230	-2.6356	 0.7381	-1.8974	-3.3737	-2.7016	 0.7151	-1.9864	-3.4167	65.3146	99.9999	
   562	-2.9549	 0.7635	-2.1913	-3.7184	-2.6572	 0.7004	-1.9567	-3.3576	-2.7315	 0.6861	-2.0454	-3.4176	65.3140	99.9999	
   563	-2.9112	 0.7321	-2.1790	-3.6433	-2.5939	 0.6770	-1.9168	-3.2708	-2.6195	 0.6555	-1.9639	-3.2750	65.5176	99.9999	
   564	-2.7835	 0.7078	-2.0756	-3.4913	-2.4597	 0.6470	-1.8126	-3.1068	-2.4904	 0.6243	-1.8660	-3.1147	65.6388	99.9999	
   565	-2.7319	 0.6812	-2.0507	-3.4131	-2.4098	 0.6155	-1.7942	-3.0253	-2.4628	 0.6082	-1.8545	-3.0710	65.5984	99.9998	
   566	-2.7110	 0.6506	-2.0603	-3.3615	-2.3919	 0.5893	-1.8025	-2.9813	-2.4417	 0.5773	-1.8644	-3.0190	65.6386	99.9999	
   567	-2.6900	 0.6200	-2.0699	-3.3099	-2.3859	 0.5806	-1.8052	-2.9666	-2.4253	 0.5653	-1.8598	-2.9906	65.5986	99.9999	
   568	-2.6550	 0.5690	-2.0860	-3.2239	-2.3740	 0.5631	-1.8108	-2.9372	-2.4094	 0.5421	-1.8672	-2.9516	65.5182	100.0000	
   569	-2.6419	 0.5336	-2.1082	-3.1755	-2.3628	 0.5329	-1.8298	-2.8957	-2.4270	 0.5315	-1.8954	-2.9585	65.3972	99.9999	
   570	-2.6358	 0.5085	-2.1272	-3.1443	-2.3569	 0.5242	-1.8326	-2.8810	-2.3889	 0.4999	-1.8889	-2.8888	65.5184	100.0000	
   571	-2.5448	 0.5054	-2.0393	-3.0502	-2.2287	 0.5029	-1.7257	-2.7317	-2.2698	 0.4955	-1.7742	-2.7653	65.6400	100.0000	
   572	-2.4556	 0.4725	-1.9831	-2.9281	-2.1594	 0.4708	-1.6885	-2.6302	-2.2035	 0.4591	-1.7443	-2.6626	65.6799	100.0000	
   573	-2.4565	 0.4576	-1.9988	-2.9140	-2.1542	 0.4493	-1.7048	-2.6035	-2.2099	 0.4442	-1.7656	-2.6542	65.6798	99.9999	
   574	-2.4574	 0.4426	-2.0146	-2.9000	-2.1609	 0.4453	-1.7155	-2.6061	-2.2217	 0.4371	-1.7844	-2.6588	65.6395	100.0000	
   575	-2.4810	 0.4285	-2.0524	-2.9095	-2.1817	 0.4203	-1.7613	-2.6020	-2.2404	 0.4039	-1.8364	-2.6444	65.7194	100.0000	
   576	-2.4915	 0.3791	-2.1123	-2.8705	-2.2108	 0.3657	-1.8449	-2.5765	-2.2827	 0.3565	-1.9260	-2.6392	65.6785	99.9999	
   577	-2.5239	 0.3453	-2.1785	-2.8691	-2.2704	 0.3420	-1.9282	-2.6124	-2.3190	 0.3126	-2.0063	-2.6317	65.7183	100.0000	
   578	-2.5020	 0.3296	-2.1723	-2.8316	-2.2264	 0.3193	-1.9070	-2.5457	-2.2463	 0.2911	-1.9551	-2.5374	65.8799	99.9999	
   579	-2.4198	 0.3069	-2.1128	-2.7267	-2.1504	 0.2912	-1.8591	-2.4416	-2.1800	 0.2547	-1.9252	-2.4347	65.9602	100.0000	
   580	-2.4137	 0.2818	-2.1318	-2.6954	-2.1332	 0.2522	-1.8809	-2.3854	-2.1981	 0.2328	-1.9653	-2.4309	65.9198	99.9999	
   581	-2.4224	 0.2621	-2.1602	-2.6845	-2.1601	 0.2360	-1.9240	-2.3960	-2.2105	 0.2144	-1.9960	-2.4248	65.9197	99.9999	
   582	-2.4461	 0.2480	-2.1980	-2.6940	-2.1802	 0.2238	-1.9562	-2.4040	-2.2286	 0.1925	-2.0361	-2.4211	65.9599	99.9999	
   583	-2.4408	 0.2080	-2.2327	-2.6488	-2.1951	 0.1901	-2.0048	-2.3852	-2.2421	 0.1515	-2.0905	-2.3936	65.9597	100.0000	
   584	-2.4723	 0.1891	-2.2831	-2.6614	-2.2412	 0.1745	-2.0666	-2.4158	-2.2720	 0.1225	-2.1494	-2.3945	65.9998	100.0000	
   585	-2.4802	 0.1844	-2.2957	-2.6646	-2.2226	 0.1611	-2.0614	-2.3837	-2.2268	 0.1170	-2.1097	-2.3439	66.1210	99.9999	
   586	-2.3822	 0.1711	-2.2110	-2.5533	-2.1012	 0.1359	-1.9652	-2.2370	-2.1365	 0.1061	-2.0303	-2.2426	66.1613	99.9999	
   587	-2.3534	 0.1452	-2.2081	-2.4986	-2.0833	 0.1097	-1.9735	-2.1929	-2.1383	 0.0723	-2.0659	-2.2105	66.1612	99.9999	
   588	-2.3691	 0.1358	-2.2332	-2.5049	-2.1019	 0.1231	-1.9787	-2.2250	-2.1301	 0.1209	-2.0090	-2.2510	66.0005	99.9998	
   589	-2.2965	 0.2080	-2.0884	-2.5045	-1.9559	 0.1867	-1.7691	-2.1426	-1.9946	 0.2139	-1.7806	-2.2084	66.0413	99.9998	
   590	-2.2301	 0.1759	-2.0541	-2.4059	-1.8918	 0.1761	-1.7156	-2.0679	-1.9031	 0.2255	-1.6775	-2.1286	66.0017	99.9997	
   591	-2.2301	 0.1759	-2.0541	-2.4059	-1.8799	 0.1586	-1.7211	-2.0385	-1.8855	 0.2362	-1.6492	-2.1216	66.0018	99.9994	
   592	-2.2064	 0.1900	-2.0163	-2.3964	-1.8590	 0.1836	-1.6753	-2.0426	-1.8614	 0.2616	-1.5997	-2.1231	65.9621	99.9995	
   593	-2.1706	 0.1539	-2.0166	-2.3245	-1.8478	 0.1533	-1.6944	-2.0012	-1.9148	 0.2184	-1.6963	-2.1332	65.8413	99.9997	
   594	-2.3595	 0.0408	-2.3186	-2.4003	-2.0922	 0.0673	-2.0248	-2.1595	-2.2380	 0.1212	-2.1167	-2.3592	65.4762	99.9999	
   595	-2.6630	 0.0462	-2.6167	-2.7092	-2.3947	 0.0941	-2.3005	-2.4888	-2.5090	 0.1539	-2.3550	-2.6629	65.2740	99.9999	
   596	-2.7723	 0.1247	-2.6475	-2.8969	-2.5094	 0.1234	-2.3860	-2.6328	-2.6398	 0.1513	-2.4885	-2.7911	65.3921	99.9999	
   597	-2.8090	 0.1458	-2.6631	-2.9548	-2.5214	 0.1408	-2.3804	-2.6622	-2.6334	 0.1661	-2.4672	-2.7995	65.4740	99.9999	
   598	-2.8099	 0.1309	-2.6788	-2.9408	-2.5214	 0.1408	-2.3804	-2.6622	-2.6222	 0.1619	-2.4602	-2.7842	65.4744	99.9999	
   599	-2.8247	 0.1364	-2.6882	-2.9611	-2.5214	 0.1408	-2.3804	-2.6622	-2.6334	 0.1661	-2.4672	-2.7995	65.4744	99.9999	
   600	-2.7635	 0.1443	-2.6191	-2.9078	-2.5087	 0.1362	-2.3724	-2.6449	-2.6633	 0.1371	-2.5261	-2.8004	65.4312	99.9999	
   601	-2.8256	 0.1215	-2.7040	-2.9471	-2.6003	 0.1178	-2.4825	-2.7181	-2.7659	 0.1296	-2.6362	-2.8956	65.2672	99.9999	
   602	-2.9087	 0.1293	-2.7793	-3.0380	-2.6845	 0.1162	-2.5682	-2.8007	-2.8569	 0.1292	-2.7275	-2.9861	65.2254	99.9999	
   603	-2.9551	 0.1160	-2.8390	-3.0710	-2.7367	 0.1093	-2.6272	-2.8460	-2.9085	 0.1199	-2.7885	-3.0283	65.1841	99.9999	
   604	-3.0084	 0.1128	-2.8955	-3.1212	-2.7948	 0.1112	-2.6835	-2.9060	-2.9935	 0.1230	-2.8704	-3.1166	65.0602	99.9999	
   605	-3.0390	 0.1089	-2.9300	-3.1479	-2.8142	 0.1118	-2.7022	-2.9260	-2.9988	 0.1308	-2.8680	-3.1296	65.0613	99.9999	
   606	-2.9384	 0.1403	-2.7980	-3.0787	-2.7032	 0.1296	-2.5735	-2.8328	-2.8792	 0.1376	-2.7415	-3.0168	65.2254	99.9999	
   607	-2.8781	 0.1333	-2.7447	-3.0113	-2.6644	 0.1284	-2.5360	-2.7928	-2.8563	 0.1405	-2.7157	-2.9968	65.1434	99.9999	
   608	-2.9157	 0.1395	-2.7761	-3.0552	-2.7032	 0.1296	-2.5735	-2.8328	-2.8962	 0.1382	-2.7578	-3.0344	65.1427	99.9999	
   609	-2.9612	 0.1411	-2.8200	-3.1022	-2.7419	 0.1309	-2.6110	-2.8728	-2.9302	 0.1395	-2.7906	-3.0697	65.1427	99.9999	
   610	-2.9918	 0.1372	-2.8545	-3.1289	-2.7806	 0.1321	-2.6485	-2.9128	-2.9754	 0.1450	-2.8303	-3.1203	65.0605	99.9999	
   611	-3.0294	 0.1434	-2.8859	-3.1728	-2.8127	 0.1374	-2.6752	-2.9501	-3.0147	 0.1540	-2.8606	-3.1686	65.0194	99.9999	
   612	-2.9446	 0.1654	-2.7790	-3.1099	-2.7211	 0.1558	-2.5651	-2.8769	-2.9173	 0.1692	-2.7480	-3.0865	65.1023	99.9999	
   613	-2.8685	 0.1678	-2.7006	-3.0362	-2.6823	 0.1546	-2.5277	-2.8369	-2.8891	 0.1644	-2.7247	-3.0535	65.0602	99.9999	
   614	-2.9069	 0.1592	-2.7477	-3.0661	-2.7218	 0.1430	-2.5787	-2.8648	-2.9525	 0.1479	-2.8045	-3.1004	65.0175	99.9999	
   615	-2.9594	 0.1709	-2.7884	-3.1303	-2.7732	 0.1489	-2.6242	-2.9222	-3.0088	 0.1575	-2.8512	-3.1663	64.9759	99.9999	
   616	-2.9970	 0.1772	-2.8197	-3.1742	-2.8045	 0.1670	-2.6374	-2.9715	-3.0082	 0.1688	-2.8393	-3.1770	65.0183	99.9999	
   617	-2.9892	 0.1819	-2.8072	-3.1710	-2.7837	 0.1920	-2.5916	-2.9756	-2.9772	 0.2204	-2.7567	-3.1976	64.8988	99.9999	
   618	-2.8798	 0.2329	-2.6468	-3.1127	-2.6242	 0.2637	-2.3604	-2.8880	-2.7689	 0.2918	-2.4771	-3.0607	65.0681	99.9999	
   619	-2.6944	 0.2864	-2.4079	-2.9808	-2.4268	 0.3214	-2.1053	-2.7483	-2.5730	 0.3447	-2.2282	-2.9178	65.1517	99.9999	
   620	-2.6236	 0.3288	-2.2947	-2.9523	-2.3538	 0.3532	-2.0005	-2.7071	-2.5320	 0.3696	-2.1623	-2.9016	65.1511	99.9998	
   621	-2.6393	 0.3194	-2.3199	-2.9586	-2.3859	 0.3585	-2.0272	-2.7444	-2.5490	 0.3702	-2.1787	-2.9192	65.1107	99.9999	
   622	-2.6402	 0.3044	-2.3356	-2.9446	-2.3993	 0.3504	-2.0487	-2.7497	-2.5660	 0.3709	-2.1950	-2.9369	65.0295	99.9999	
   623	-2.6997	 0.3264	-2.3731	-3.0260	-2.4566	 0.3651	-2.0915	-2.8217	-2.6335	 0.3847	-2.2487	-3.0181	64.9880	99.9999	
   624	-2.7058	 0.3515	-2.3542	-3.0573	-2.4425	 0.3860	-2.0564	-2.8285	-2.5930	 0.3982	-2.1946	-2.9912	65.1110	99.9999	
   625	-2.5755	 0.3720	-2.2034	-2.9474	-2.3054	 0.4072	-1.8981	-2.7126	-2.4616	 0.4122	-2.0493	-2.8738	65.1930	99.9999	
   626	-2.5221	 0.3751	-2.1469	-2.8972	-2.2406	 0.4094	-1.8311	-2.6500	-2.4211	 0.4257	-1.9953	-2.8469	65.1530	99.9998	
   627	-2.5763	 0.3571	-2.2192	-2.9334	-2.3456	 0.3829	-1.9627	-2.7285	-2.5032	 0.3761	-2.1271	-2.8793	65.1908	99.9999	
   628	-2.6227	 0.3437	-2.2789	-2.9664	-2.3456	 0.3829	-1.9627	-2.7285	-2.4622	 0.4009	-2.0612	-2.8631	65.2349	99.9999	
   629	-2.4793	 0.3288	-2.1503	-2.8081	-2.2026	 0.3954	-1.8071	-2.5979	-2.3361	 0.4226	-1.9134	-2.7586	65.1560	99.9999	
   630	-2.4181	 0.3367	-2.0813	-2.7547	-2.1624	 0.4197	-1.7426	-2.5821	-2.3062	 0.4516	-1.8545	-2.7578	65.0354	99.9999	
   631	-2.3166	 0.3830	-1.9335	-2.6996	-2.0044	 0.4658	-1.5385	-2.4703	-2.1437	 0.5171	-1.6265	-2.6608	65.1202	99.9998	
   632	-2.0402	 0.4334	-1.6068	-2.4736	-1.8137	 0.5195	-1.2941	-2.3332	-1.9595	 0.5630	-1.3964	-2.5225	65.0394	99.9999	
   633	-2.0009	 0.4569	-1.5439	-2.4578	-1.8137	 0.5195	-1.2941	-2.3332	-1.9824	 0.5601	-1.4222	-2.5425	64.9963	100.0000	
   634	-2.1181	 0.4012	-1.7168	-2.5192	-1.9403	 0.4552	-1.4850	-2.3956	-2.1337	 0.4904	-1.6432	-2.6241	64.9523	99.9999	
   635	-2.2816	 0.3320	-1.9495	-2.6136	-2.1072	 0.3667	-1.7404	-2.4739	-2.2827	 0.3565	-1.9260	-2.6392	65.1908	99.9999	
   636	-2.4959	 0.1750	-2.3208	-2.6709	-2.4051	 0.1371	-2.2679	-2.5423	-2.6146	 0.0900	-2.5244	-2.7046	65.3435	100.0000	
   637	-2.9297	-0.0991	-3.0287	-2.8306	-2.8446	-0.1904	-3.0349	-2.6542	-2.9876	-0.2013	-3.1888	-2.7863	65.5451	99.9994	
   638	-3.1064	-0.2624	-3.3687	-2.8440	-2.9168	-0.3204	-3.2372	-2.5964	-2.9647	-0.3077	-3.2722	-2.6570	65.8347	99.9993	
   639	-3.0548	-0.2891	-3.3438	-2.7657	-2.8401	-0.3357	-3.1757	-2.5044	-2.9078	-0.3060	-3.2137	-2.6017	65.7944	99.9995	
   640	-3.1038	-0.3472	-3.4509	-2.7566	-2.9078	-0.3891	-3.2968	-2.5188	-2.9793	-0.3712	-3.3504	-2.6081	65.7936	99.9995	
   641	-3.2525	-0.4218	-3.6742	-2.8307	-3.0553	-0.4783	-3.5335	-2.5771	-3.0966	-0.4422	-3.5387	-2.6544	65.8342	99.9991	
   642	-3.4099	-0.5160	-3.9258	-2.8939	-3.2170	-0.5884	-3.8052	-2.6286	-3.2432	-0.5309	-3.7740	-2.7123	65.8336	99.9986	
   643	-3.6400	-0.6825	-4.3224	-2.9574	-3.4658	-0.7512	-4.2168	-2.7146	-3.4209	-0.6712	-4.0920	-2.7497	65.8743	99.9974	
   644	-3.7668	-0.7728	-4.5395	-2.9940	-3.5358	-0.8429	-4.3785	-2.6929	-3.4197	-0.7580	-4.1776	-2.6618	66.1609	99.9969	
   645	-3.8341	-0.8851	-4.7191	-2.9491	-3.6266	-0.9595	-4.5860	-2.6671	-3.4942	-0.8795	-4.3736	-2.6146	66.2425	99.9965	
   646	-3.9846	-0.9895	-4.9740	-2.9951	-3.7756	-1.0743	-4.8498	-2.7013	-3.6361	-0.9873	-4.6233	-2.6488	66.2836	99.9961	
   647	-4.0790	-1.0460	-5.1250	-3.0330	-3.8694	-1.1311	-5.0004	-2.7384	-3.7129	-1.0447	-4.7575	-2.6682	66.3246	99.9958	
   648	-4.1578	-1.0932	-5.2508	-3.0646	-3.9432	-1.1757	-5.1187	-2.7675	-3.7839	-1.0986	-4.8824	-2.6853	66.3658	99.9961	
   649	-4.2295	-1.1505	-5.3799	-3.0790	-4.0177	-1.2331	-5.2506	-2.7846	-3.8660	-1.1483	-5.0142	-2.7177	66.3249	99.9960	
   650	-4.2907	-1.1583	-5.4489	-3.1323	-4.0504	-1.2405	-5.2909	-2.8099	-3.8771	-1.1441	-5.0211	-2.7330	66.3657	99.9957	
   651	-4.1665	-1.1128	-5.2792	-3.0537	-3.9052	-1.1897	-5.0948	-2.7155	-3.6988	-1.1018	-4.8005	-2.5971	66.5286	99.9958	
   652	-4.0205	-1.0829	-5.1033	-2.9375	-3.7688	-1.1813	-4.9500	-2.5876	-3.6138	-1.1049	-4.7186	-2.5088	66.5701	99.9963	
   653	-4.0143	-1.1080	-5.1223	-2.9063	-3.7830	-1.2022	-4.9850	-2.5808	-3.6437	-1.1340	-4.7775	-2.5097	66.5297	99.9965	
   654	-4.0371	-1.1072	-5.1442	-2.9298	-3.8217	-1.2009	-5.0225	-2.6208	-3.6941	-1.1208	-4.8148	-2.5733	66.4069	99.9963	
   655	-3.9470	-0.9958	-4.9426	-2.9512	-3.7115	-1.0849	-4.7963	-2.6266	-3.6038	-1.0224	-4.6261	-2.5814	66.4066	99.9972	
   656	-3.8193	-0.8905	-4.7097	-2.9287	-3.5946	-0.9648	-4.5593	-2.6298	-3.4713	-0.8766	-4.3478	-2.5947	66.2425	99.9966	
   657	-3.3076	-0.3253	-3.6327	-2.9823	-3.0039	-0.4842	-3.4880	-2.5197	-3.1259	-0.4599	-3.5857	-2.6660	66.2017	99.9993	
   658	-3.1344	-0.4806	-3.6150	-2.6538	-2.8981	-0.6669	-3.5649	-2.2311	-3.0091	-0.7281	-3.7371	-2.2810	66.7361	99.9995	
   659	-3.1310	-0.6800	-3.8109	-2.4510	-2.9620	-0.8784	-3.8404	-2.0836	-3.0853	-0.8835	-3.9687	-2.2018	66.5728	99.9987	
   660	-3.2771	-0.8393	-4.1163	-2.4377	-3.1632	-1.0000	-4.1631	-2.1631	-3.2043	-0.9883	-4.1926	-2.2160	66.4903	99.9978	
   661	-3.2867	-0.8739	-4.1605	-2.4128	-3.1579	-1.0216	-4.1794	-2.1364	-3.2096	-0.9806	-4.1901	-2.2290	66.3664	99.9977	
   662	-3.2429	-0.7758	-4.0186	-2.4672	-3.0939	-0.9211	-4.0149	-2.1728	-3.1246	-0.8745	-3.9990	-2.2501	66.3660	99.9976	
   663	-2.9666	-0.5959	-3.5624	-2.3706	-2.7513	-0.7016	-3.4527	-2.0497	-2.8120	-0.6525	-3.4644	-2.1595	66.2833	99.9987	
   664	-2.6019	-0.4639	-3.0657	-2.1379	-2.4101	-0.6186	-3.0285	-1.7915	-2.5791	-0.6537	-3.2327	-1.9255	66.5705	99.9996	
   665	-2.8135	-0.7058	-3.5192	-2.1077	-2.6692	-0.8494	-3.5185	-1.8199	-2.8108	-0.8485	-3.6592	-1.9623	66.4484	99.9991	
   666	-2.9578	-0.7058	-3.6635	-2.2520	-2.8160	-0.8148	-3.6307	-2.0013	-2.8184	-0.7766	-3.5950	-2.0418	66.4061	99.9978	
   667	-2.6928	-0.3313	-3.0240	-2.3614	-2.3684	-0.3466	-2.7150	-2.0218	-2.3469	-0.3383	-2.6851	-2.0087	66.4432	99.9997	
   668	-2.0867	 0.0315	-2.0551	-2.1181	-1.9507	 0.1652	-1.7854	-2.1159	-2.0526	-0.0289	-2.0814	-2.0236	65.9587	99.9986	
   669	-1.9581	 0.1516	-1.8064	-2.1097	-1.7279	 0.1025	-1.6253	-1.8304	-1.9588	 0.1372	-1.8215	-2.0959	65.6764	99.9998	
   670	-1.6730	 0.3511	-1.3218	-2.0240	-1.3532	 0.3168	-1.0363	-1.6700	-1.5300	 0.2983	-1.2317	-1.8283	66.1213	99.9997	
   671	-1.3862	-0.0672	-1.4533	-1.3190	-1.5615	-0.4879	-2.0493	-1.0736	-1.9785	-0.5744	-2.5527	-1.4041	66.7023	99.9976	
   672	-2.7830	-0.9608	-3.7437	-1.8221	-2.5186	-1.1532	-3.6717	-1.3655	-2.5813	-1.1360	-3.7172	-1.4454	67.2651	99.9985	
   673	-3.0497	-1.1061	-4.1558	-1.9436	-2.7577	-1.2608	-4.0184	-1.4970	-2.7268	-1.2021	-3.9288	-1.5246	67.2209	99.9977	
   674	-3.1774	-1.2114	-4.3887	-1.9660	-2.8806	-1.3721	-4.2527	-1.5085	-2.8229	-1.3041	-4.1269	-1.5189	67.3031	99.9971	
   675	-3.3200	-1.3111	-4.6310	-2.0089	-3.0535	-1.4520	-4.5053	-1.6015	-2.9584	-1.3970	-4.3553	-1.5614	67.3049	99.9970	
   676	-3.3908	-1.3535	-4.7442	-2.0373	-3.1265	-1.4838	-4.6101	-1.6427	-2.9713	-1.4266	-4.3979	-1.5447	67.3848	99.9963	
   677	-3.3069	-1.3464	-4.6532	-1.9605	-3.0102	-1.4875	-4.4976	-1.5227	-2.8411	-1.4353	-4.2763	-1.4058	67.5857	99.9963	
   678	-3.2457	-1.3385	-4.5841	-1.9071	-2.9655	-1.4975	-4.4629	-1.4680	-2.8469	-1.4388	-4.2857	-1.4081	67.5072	99.9964	
   679	-3.2667	-1.3079	-4.5745	-1.9587	-2.9953	-1.4538	-4.4491	-1.5415	-2.8687	-1.4192	-4.2877	-1.4495	67.5076	99.9969	
   680	-3.2177	-1.2498	-4.4674	-1.9678	-2.9462	-1.3871	-4.3332	-1.5591	-2.8364	-1.3450	-4.1813	-1.4914	67.3844	99.9971	
   681	-3.0970	-1.1344	-4.2313	-1.9625	-2.8054	-1.3019	-4.1072	-1.5035	-2.7420	-1.2769	-4.0188	-1.4651	67.4664	99.9977	
   682	-3.0629	-1.2003	-4.2631	-1.8625	-2.8113	-1.4042	-4.2155	-1.4071	-2.8000	-1.4104	-4.2104	-1.3896	67.5965	99.9980	
   683	-3.1294	-1.2977	-4.4269	-1.8316	-2.8418	-1.4844	-4.3261	-1.3575	-2.7525	-1.4800	-4.2324	-1.2725	67.7955	99.9975	
   684	-3.0541	-1.3102	-4.3643	-1.7439	-2.7577	-1.4828	-4.2404	-1.2748	-2.6727	-1.4755	-4.1481	-1.1972	67.7934	99.9977	
   685	-2.9352	-1.2246	-4.1597	-1.7105	-2.6482	-1.3796	-4.0277	-1.2686	-2.5918	-1.3391	-3.9308	-1.2527	67.5055	99.9977	
   686	-2.7594	-1.0762	-3.8355	-1.6831	-2.4396	-1.2411	-3.6806	-1.1985	-2.4393	-1.2468	-3.6860	-1.1925	67.6273	99.9989	
   687	-2.5941	-0.9773	-3.5712	-1.6168	-2.2668	-1.1613	-3.4279	-1.1055	-2.3044	-1.1651	-3.4695	-1.1393	67.6264	99.9990	
   688	-2.4148	-0.8987	-3.3134	-1.5160	-2.1089	-1.1151	-3.2238	-0.9938	-2.1895	-1.1393	-3.3286	-1.0502	67.7103	99.9991	
   689	-2.3789	-0.9348	-3.3136	-1.4441	-2.0589	-1.1466	-3.2054	-0.9123	-2.0938	-1.1579	-3.2517	-0.9359	67.8279	99.9988	
   690	-2.1778	-0.8720	-3.0496	-1.3058	-1.8407	-1.0639	-2.9045	-0.7767	-1.8686	-1.0872	-2.9557	-0.7814	67.9032	99.9991	
   691	-2.0580	-0.7714	-2.8293	-1.2865	-1.6812	-0.9922	-2.6733	-0.6891	-1.7460	-1.0239	-2.7699	-0.7221	68.0231	99.9993	
   692	-1.9984	-0.5344	-2.5327	-1.4640	-1.4489	-0.7776	-2.2264	-0.6713	-1.5138	-0.8178	-2.3315	-0.6960	68.3299	99.9994	
   693	-1.4676	-0.2885	-1.7560	-1.1790	-1.0631	-0.3715	-1.4345	-0.6916	-1.1420	-0.4398	-1.5817	-0.7022	67.5609	99.9998	
   694	-1.0897	-0.0624	-1.1520	-1.0273	-0.7175	-0.1008	-0.8182	-0.6167	-0.8588	-0.1263	-0.9849	-0.7325	67.0377	99.9997	
   695	-0.8606	 0.0892	-0.7713	-0.9497	-0.4620	 0.0661	-0.3958	-0.5281	-0.6301	 0.0122	-0.6178	-0.6422	67.0750	99.9993	
   696	-0.6787	 0.0830	-0.5956	-0.7616	-0.3331	 0.0577	-0.2753	-0.3908	-0.5802	-0.0123	-0.5924	-0.5679	66.9587	99.9989	
   697	-0.7827	-0.0081	-0.7908	-0.7746	-0.4277	-0.0119	-0.4395	-0.4158	-0.6582	-0.0923	-0.7504	-0.5659	66.9989	99.9987	
   698	-0.9113	 0.0013	-0.9099	-0.9125	-0.4977	 0.0074	-0.4902	-0.5052	-0.6957	-0.0494	-0.7451	-0.6463	66.9963	99.9988	
   699	-0.8396	 0.0586	-0.7809	-0.8981	-0.4515	 0.0230	-0.4284	-0.4746	-0.6031	-0.0152	-0.6182	-0.5878	67.1144	99.9996	
   700	-0.9253	-0.1078	-1.0331	-0.8174	-0.6816	-0.3752	-1.0568	-0.3064	-0.8944	-0.5960	-1.4903	-0.2984	68.3100	99.9997	
   701	-1.6163	-0.6222	-2.2384	-0.9941	-1.3951	-0.9672	-2.3623	-0.4279	-1.4926	-1.0673	-2.5598	-0.4253	68.4439	99.9985	
   702	-1.8454	-0.7737	-2.6191	-1.0717	-1.5434	-1.0692	-2.6125	-0.4742	-1.5108	-1.0893	-2.5999	-0.4215	68.4252	99.9972	
   703	-1.7903	-0.7407	-2.5310	-1.0496	-1.4868	-0.9856	-2.4723	-0.5012	-1.4081	-0.9725	-2.3805	-0.4357	68.2133	99.9968	
   704	-1.6259	-0.6567	-2.2825	-0.9692	-1.2953	-0.9192	-2.2144	-0.3761	-1.3665	-0.9364	-2.3028	-0.4301	68.1402	99.9986	
   705	-1.6994	-0.6144	-2.3136	-1.0850	-1.3691	-0.8528	-2.2218	-0.5163	-1.4428	-0.8732	-2.3159	-0.5696	67.9786	99.9989	
   706	-1.5856	-0.3592	-1.9448	-1.2264	-1.1942	-0.5125	-1.7066	-0.6817	-1.2312	-0.5156	-1.7466	-0.7156	67.6418	99.9994	
   707	-1.2865	-0.0507	-1.3370	-1.2358	-0.9618	-0.1869	-1.1486	-0.7749	-1.0599	-0.2808	-1.3406	-0.7791	67.5243	99.9999	
   708	-1.1308	 0.0137	-1.1170	-1.1445	-0.7756	-0.0989	-0.8744	-0.6767	-0.8576	-0.2130	-1.0705	-0.6446	67.6391	99.9999	
   709	-0.9734	-0.0215	-0.9948	-0.9518	-0.6877	-0.1445	-0.8320	-0.5432	-0.8658	-0.2617	-1.1273	-0.6041	67.4461	99.9997	
   710	-1.0425	-0.0341	-1.0765	-1.0084	-0.7688	-0.2059	-0.9746	-0.5630	-0.9942	-0.3285	-1.3226	-0.6658	67.4921	99.9997	
   711	-1.2148	-0.1229	-1.3375	-1.0919	-0.9774	-0.3444	-1.3217	-0.6330	-1.1672	-0.4878	-1.6549	-0.6794	67.7406	99.9998	
   712	-1.5646	-0.3898	-1.9544	-1.1748	-1.3647	-0.6650	-2.0296	-0.6997	-1.5291	-0.7833	-2.3123	-0.7457	67.8729	99.9995	
   713	-1.9985	-0.6639	-2.6623	-1.3345	-1.7349	-0.9136	-2.6484	-0.8213	-1.8229	-0.9721	-2.7949	-0.8508	67.8702	99.9990	
   714	-1.9976	-0.6490	-2.6465	-1.3486	-1.6001	-0.8197	-2.4197	-0.7804	-1.6006	-0.8485	-2.4490	-0.7521	67.9315	99.9994	
   715	-1.5095	-0.2273	-1.7368	-1.2822	-1.0348	-0.3297	-1.3644	-0.7051	-1.0247	-0.3688	-1.3934	-0.6559	67.7907	99.9998	
   716	-0.9130	 0.1009	-0.8120	-1.0139	-0.5469	 0.0517	-0.4951	-0.5987	-0.6828	-0.0198	-0.7025	-0.6631	67.1958	99.9996	
   717	-0.6515	 0.1568	-0.4947	-0.8083	-0.3085	 0.1465	-0.1619	-0.4551	-0.5081	 0.0641	-0.4438	-0.5722	66.9965	99.9991	
   718	-0.6507	 0.0422	-0.6084	-0.6928	-0.3621	 0.0031	-0.3589	-0.3652	-0.6165	-0.0562	-0.6726	-0.5604	66.8808	99.9993	
   719	-0.7408	 0.0602	-0.6805	-0.8009	-0.4001	 0.0171	-0.3829	-0.4172	-0.6154	-0.0336	-0.6489	-0.5818	66.9984	99.9994	
   720	-0.7591	 0.0060	-0.7530	-0.7651	-0.4895	-0.1850	-0.6743	-0.3045	-0.6722	-0.3631	-1.0352	-0.3091	67.9717	99.9997	
   721	-1.1772	-0.3881	-1.5653	-0.7891	-0.9512	-0.6740	-1.6251	-0.2772	-1.0703	-0.8118	-1.8820	-0.2586	68.3499	99.9995	
   722	-1.6102	-0.6473	-2.2574	-0.9629	-1.2417	-0.8868	-2.1283	-0.3549	-1.3096	-0.9347	-2.2442	-0.3749	68.2581	99.9993	
   723	-1.6801	-0.6748	-2.3548	-1.0053	-1.2544	-0.8821	-2.1363	-0.3723	-1.2844	-0.8867	-2.1710	-0.3977	68.1680	99.9991	
   724	-1.5752	-0.5688	-2.1439	-1.0064	-1.1188	-0.7754	-1.8941	-0.3434	-1.1261	-0.7908	-1.9168	-0.3352	68.2811	99.9992	
   725	-1.3985	-0.4055	-1.8039	-0.9930	-0.9661	-0.5967	-1.5627	-0.3694	-0.9812	-0.6267	-1.6078	-0.3546	68.1579	99.9994	
   726	-1.1588	-0.2045	-1.3632	-0.9543	-0.7345	-0.3949	-1.1293	-0.3396	-0.7220	-0.4479	-1.1698	-0.2741	68.2300	99.9995	
   727	-0.8737	-0.0050	-0.8786	-0.8687	-0.4232	-0.1572	-0.5803	-0.2659	-0.3977	-0.2188	-0.6164	-0.1788	68.1776	99.9998	
   728	-0.6262	 0.2007	-0.4253	-0.8269	-0.2027	 0.0748	-0.1278	-0.2775	-0.2681	-0.0202	-0.2882	-0.2479	67.9024	99.9998	
   729	-0.5912	 0.2792	-0.3119	-0.8704	-0.2162	 0.1777	-0.0383	-0.3939	-0.3315	 0.0726	-0.2588	-0.4041	67.5893	99.9997	
   730	-0.6095	 0.3546	-0.2549	-0.9641	-0.2304	 0.2679	 0.0376	-0.4982	-0.3720	 0.1683	-0.2036	-0.5403	67.3909	99.9995	
   731	-0.6498	 0.3161	-0.3336	-0.9658	-0.2996	 0.1890	-0.1106	-0.4886	-0.5251	 0.0648	-0.4602	-0.5898	67.3990	99.9992	
   732	-0.7460	 0.2297	-0.5162	-0.9757	-0.4039	 0.0642	-0.3396	-0.4681	-0.5837	-0.0800	-0.6636	-0.5037	67.7209	99.9996	
   733	-0.7696	 0.0861	-0.6834	-0.8557	-0.4597	-0.1176	-0.5772	-0.3421	-0.5877	-0.2683	-0.8559	-0.3194	68.0440	99.9999	
   734	-1.0451	-0.2083	-1.2534	-0.8368	-0.7516	-0.4669	-1.2185	-0.2847	-0.8874	-0.5699	-1.4571	-0.3175	68.1352	99.9996	
   735	-1.4807	-0.5122	-1.9929	-0.9684	-1.1315	-0.7707	-1.9021	-0.3607	-1.2698	-0.8232	-2.0928	-0.4466	68.1004	99.9993	
   736	-1.8192	-0.7149	-2.5340	-1.1043	-1.4063	-0.9370	-2.3432	-0.4694	-1.4873	-0.9658	-2.4530	-0.5216	68.1377	99.9994	
   737	-1.9521	-0.7800	-2.7321	-1.1721	-1.5307	-0.9629	-2.4935	-0.5679	-1.5660	-0.9478	-2.5136	-0.6182	67.9315	99.9991	
   738	-1.8358	-0.6097	-2.4454	-1.2261	-1.3513	-0.7679	-2.1191	-0.5833	-1.3572	-0.7558	-2.1129	-0.6014	67.9604	99.9994	
   739	-1.4719	-0.3631	-1.8350	-1.1088	-0.9885	-0.5362	-1.5246	-0.4523	-1.0188	-0.5838	-1.6025	-0.4350	68.1560	99.9997	
   740	-1.2218	-0.2422	-1.4639	-0.9796	-0.8127	-0.4052	-1.2178	-0.4075	-0.8804	-0.4345	-1.3148	-0.4459	67.8373	99.9996	
   741	-1.0119	-0.0302	-1.0419	-0.9817	-0.6444	-0.1800	-0.8243	-0.4644	-0.7221	-0.2293	-0.9513	-0.4927	67.6757	99.9998	
   742	-0.7119	 0.1638	-0.5480	-0.8756	-0.3696	 0.0973	-0.2722	-0.4669	-0.4852	 0.0671	-0.4180	-0.5522	67.1532	99.9998	
   743	-0.5212	 0.1772	-0.3439	-0.6984	-0.1424	 0.1113	-0.0310	-0.2537	-0.3379	 0.0578	-0.2800	-0.3957	67.2329	99.9994	
   744	-0.6769	-0.0167	-0.6935	-0.6602	-0.3718	-0.0521	-0.4238	-0.3197	-0.6242	-0.0936	-0.7176	-0.5306	66.8803	99.9993	
   745	-0.8099	-0.0819	-0.8917	-0.7279	-0.4060	-0.0852	-0.4911	-0.3209	-0.5907	-0.1061	-0.6967	-0.4846	67.0350	99.9993	
   746	-0.6699	-0.0269	-0.6968	-0.6430	-0.2802	-0.0337	-0.3138	-0.2464	-0.4904	-0.0345	-0.5248	-0.4559	66.9154	99.9993	
   747	-0.6944	 0.0735	-0.6208	-0.7679	-0.2936	 0.0692	-0.2243	-0.3628	-0.4617	 0.0813	-0.3804	-0.5430	66.8737	99.9995	
   748	-0.5964	 0.1897	-0.4066	-0.7861	-0.2243	 0.1481	-0.0761	-0.3725	-0.3960	 0.1429	-0.2531	-0.5389	66.9536	99.9996	
   749	-0.6026	 0.2149	-0.3876	-0.8174	-0.2109	 0.1562	-0.0546	-0.3672	-0.3732	 0.1458	-0.2273	-0.5189	67.0718	99.9996	
   750	-0.5868	 0.2243	-0.3624	-0.8111	-0.2102	 0.1690	-0.0411	-0.3792	-0.3890	 0.1690	-0.2199	-0.5580	66.9536	99.9996	
   751	-0.5457	 0.2777	-0.2679	-0.8233	-0.1357	 0.2264	 0.0908	-0.3621	-0.2793	 0.2026	-0.0767	-0.4819	67.1489	99.9996	
   752	-0.4311	 0.2887	-0.1423	-0.7198	-0.0254	 0.2314	 0.2060	-0.2568	-0.1884	 0.2029	 0.0146	-0.3913	67.1884	99.9995	
   753	-0.3708	 0.2816	-0.0890	-0.6524	 0.0066	 0.2261	 0.2328	-0.2195	-0.2001	 0.1958	-0.0042	-0.3960	67.0718	99.9994	
   754	-0.4224	 0.3083	-0.1140	-0.7307	-0.0329	 0.2145	 0.1818	-0.2474	-0.2289	 0.1894	-0.0394	-0.4183	67.1909	99.9995	
   755	-0.5090	 0.2565	-0.2524	-0.7654	-0.1841	 0.1724	-0.0116	-0.3566	-0.3233	 0.1213	-0.2019	-0.4446	67.2325	99.9998	
   756	-0.5238	 0.2620	-0.2618	-0.7858	-0.1640	 0.1846	 0.0207	-0.3486	-0.3333	 0.1481	-0.1851	-0.4813	67.1526	99.9997	
   757	-0.5466	 0.2628	-0.2837	-0.8093	-0.1893	 0.1940	 0.0047	-0.3833	-0.3157	 0.1587	-0.1569	-0.4744	67.1906	99.9998	
   758	-0.4451	 0.3091	-0.1359	-0.7542	-0.0582	 0.2239	 0.1658	-0.2821	-0.1784	 0.1762	-0.0021	-0.3546	67.3863	99.9998	
   759	-0.3926	 0.2973	-0.0952	-0.6900	-0.0537	 0.1896	 0.1360	-0.2433	-0.1919	 0.1352	-0.0566	-0.3271	67.3897	99.9998	
   760	-0.4766	 0.2902	-0.1863	-0.7668	-0.1320	 0.1793	 0.0474	-0.3113	-0.2599	 0.1378	-0.1221	-0.3977	67.3501	99.9998	
   761	-0.5055	 0.3161	-0.1892	-0.8216	-0.1491	 0.2183	 0.0693	-0.3674	-0.2934	 0.1503	-0.1430	-0.4437	67.3509	99.9997	
   762	-0.5912	 0.2792	-0.3119	-0.8704	-0.2705	 0.1325	-0.1379	-0.4031	-0.4541	 0.0094	-0.4446	-0.4634	67.5583	99.9996	
   763	-0.8763	 0.0798	-0.7964	-0.9560	-0.5423	-0.2046	-0.7469	-0.3377	-0.7478	-0.3980	-1.1457	-0.3499	68.3382	99.9996	
   764	-1.4247	-0.4643	-1.8890	-0.9604	-1.1099	-0.7330	-1.8428	-0.3769	-1.3425	-0.8016	-2.1440	-0.5409	67.9065	99.9995	
   765	-1.9058	-0.7667	-2.6724	-1.1391	-1.5002	-0.9937	-2.4938	-0.5064	-1.5442	-0.9674	-2.5116	-0.5768	68.0143	99.9986	
   766	-2.0877	-0.8900	-2.9776	-1.1977	-1.6626	-1.1166	-2.7791	-0.5459	-1.6574	-1.0687	-2.7260	-0.5887	68.0937	99.9981	
   767	-2.2364	-0.9646	-3.2009	-1.2718	-1.8086	-1.1803	-2.9887	-0.6283	-1.7571	-1.1290	-2.8861	-0.6281	68.1334	99.9978	
   768	-2.2688	-0.9984	-3.2670	-1.2704	-1.8741	-1.1952	-3.0693	-0.6789	-1.8158	-1.1645	-2.9802	-0.6512	68.0962	99.9981	
   769	-2.3536	-1.0204	-3.3738	-1.3332	-1.9725	-1.2177	-3.1901	-0.7548	-1.9196	-1.1946	-3.1141	-0.7250	68.0594	99.9981	
   770	-2.3789	-0.9348	-3.3136	-1.4441	-1.9986	-1.1101	-3.1086	-0.8885	-2.0100	-1.0744	-3.0843	-0.9356	67.6977	99.9987	
   771	-2.1165	-0.6051	-2.7215	-1.5114	-1.6329	-0.7162	-2.3490	-0.9168	-1.6429	-0.6773	-2.3201	-0.9656	67.5218	99.9995	
   772	-1.3731	-0.1025	-1.4755	-1.2705	-0.9119	-0.2184	-1.1302	-0.6935	-0.9849	-0.2572	-1.2420	-0.7276	67.5946	99.9997	
   773	-1.0372	 0.0554	-0.9817	-1.0926	-0.6638	-0.0684	-0.7321	-0.5955	-0.7960	-0.1211	-0.9170	-0.6750	67.3978	99.9998	
   774	-0.9585	 0.1025	-0.8559	-1.0610	-0.5901	-0.0238	-0.6138	-0.5664	-0.7251	-0.0672	-0.7921	-0.6579	67.3568	99.9998	
   775	-0.9052	 0.1057	-0.7994	-1.0108	-0.5767	-0.0156	-0.5922	-0.5611	-0.7362	-0.0630	-0.7991	-0.6732	67.2392	99.9998	
   776	-0.8990	 0.0805	-0.8184	-0.9796	-0.6110	-0.0487	-0.6596	-0.5623	-0.7679	-0.1259	-0.8936	-0.6420	67.3220	99.9998	
   777	-0.9384	 0.0570	-0.8813	-0.9954	-0.6534	-0.1114	-0.7647	-0.5420	-0.8347	-0.2101	-1.0447	-0.6246	67.4863	99.9998	
   778	-0.9471	 0.0374	-0.9097	-0.9845	-0.6474	-0.1201	-0.7675	-0.5273	-0.7831	-0.2007	-0.9837	-0.5824	67.5226	99.9998	
   779	-0.8055	 0.1222	-0.6832	-0.9276	-0.4851	 0.0028	-0.4822	-0.4878	-0.5919	-0.0194	-0.6112	-0.5725	67.2753	99.9997	
   780	-0.6331	 0.3404	-0.2926	-0.9735	-0.2684	 0.2819	 0.0136	-0.5503	-0.4301	 0.2534	-0.1766	-0.6835	66.9538	99.9997	
   781	-0.8150	 0.4762	-0.3388	-1.2911	-0.7370	 0.2329	-0.5040	-0.9699	-1.1768	 0.0966	-1.0801	-1.2735	66.5691	99.9995	
   782	-1.2995	 0.5027	-0.7967	-1.8021	-1.2183	 0.2996	-0.9186	-1.5180	-1.5171	 0.2186	-1.2983	-1.7357	66.2423	99.9997	
   783	-1.4211	 0.5019	-0.9191	-1.9229	-1.2772	 0.2887	-0.9884	-1.5659	-1.5646	 0.1790	-1.3855	-1.7435	66.4862	99.9998	
   784	-1.5426	 0.3715	-1.1710	-1.9141	-1.3382	 0.1284	-1.2097	-1.4666	-1.5287	-0.0070	-1.5357	-1.5217	67.0939	99.9998	
   785	-1.5025	 0.1510	-1.3514	-1.6534	-1.2122	-0.1532	-1.3653	-1.0590	-1.3896	-0.2836	-1.6731	-1.1061	67.7411	99.9996	
   786	-1.4422	-0.1151	-1.5571	-1.3271	-1.2083	-0.4224	-1.6306	-0.7860	-1.4306	-0.5270	-1.9575	-0.9036	67.7074	99.9995	
   787	-1.5603	-0.3153	-1.8754	-1.2450	-1.3170	-0.6238	-1.9408	-0.6932	-1.4910	-0.7056	-2.1965	-0.7853	67.8697	99.9992	
   788	-1.7536	-0.5029	-2.2564	-1.2506	-1.4690	-0.7898	-2.2586	-0.6792	-1.5818	-0.8153	-2.3970	-0.7666	67.8649	99.9986	
   789	-1.8191	-0.4558	-2.2749	-1.3633	-1.4623	-0.6747	-2.1369	-0.7876	-1.5132	-0.6972	-2.2104	-0.8160	67.8133	99.9991	
   790	-1.5384	-0.2014	-1.7397	-1.3369	-1.2225	-0.4433	-1.6657	-0.7792	-1.3637	-0.5521	-1.9157	-0.8116	67.8595	99.9997	
   791	-1.5200	-0.2768	-1.7967	-1.2432	-1.2463	-0.5194	-1.7656	-0.7270	-1.3596	-0.5824	-1.9419	-0.7772	67.7376	99.9993	
   792	-1.4089	-0.1959	-1.6048	-1.2130	-1.0384	-0.5047	-1.5430	-0.5338	-1.2088	-0.6332	-1.8420	-0.5756	68.3046	99.9996	
   793	-1.6967	-0.5696	-2.2662	-1.1271	-1.4079	-0.8515	-2.2593	-0.5563	-1.4469	-0.8429	-2.2897	-0.6040	67.9792	99.9975	
   794	-1.9215	-0.6466	-2.5680	-1.2749	-1.5330	-0.8902	-2.4231	-0.6428	-1.5103	-0.8594	-2.3696	-0.6509	68.0505	99.9978	
   795	-1.9136	-0.6419	-2.5554	-1.2717	-1.5256	-0.8734	-2.3988	-0.6522	-1.4821	-0.8642	-2.3462	-0.6179	68.1297	99.9981	
   796	-1.9215	-0.6466	-2.5680	-1.2749	-1.5315	-0.8646	-2.3961	-0.6669	-1.4762	-0.8607	-2.3368	-0.6156	68.1284	99.9982	
   797	-1.8979	-0.6325	-2.5303	-1.2654	-1.4786	-0.8450	-2.3235	-0.6337	-1.4170	-0.8139	-2.2308	-0.6031	68.0834	99.9980	
   798	-1.7177	-0.5390	-2.2566	-1.1787	-1.2738	-0.7704	-2.0441	-0.5034	-1.2270	-0.7645	-1.9913	-0.4625	68.2804	99.9984	
   799	-1.4973	-0.2776	-1.7748	-1.2197	-1.0377	-0.3809	-1.4185	-0.6569	-1.0376	-0.3984	-1.4360	-0.6392	67.7122	99.9998	
   800	-0.7879	 0.4204	-0.3674	-1.2083	-0.4286	 0.3084	-0.1200	-0.7370	-0.5321	 0.1479	-0.3841	-0.6801	67.5933	99.9996	
   801	-0.3961	 0.7557	 0.3598	-1.1517	-0.0636	 0.6895	 0.6260	-0.7532	-0.2671	 0.5488	 0.2818	-0.8159	66.9942	99.9990	
   802	-0.1223	 0.8908	 0.7686	-1.0131	 0.1747	 0.8954	 1.0702	-0.7207	-0.0185	 0.7430	 0.7247	-0.7615	66.7538	99.9986	
   803	-0.0821	 0.7998	 0.7178	-0.8818	 0.1331	 0.7345	 0.8676	-0.6014	-0.1545	 0.6388	 0.4844	-0.7934	66.5194	99.9993	
   804	-0.1468	 0.7322	 0.5855	-0.8790	 0.0728	 0.5869	 0.6598	-0.5142	-0.1204	 0.4190	 0.2986	-0.5394	67.3166	99.9997	
   805	-0.6078	 0.3844	-0.2233	-0.9921	-0.3756	 0.1060	-0.2695	-0.4816	-0.5051	-0.0980	-0.6030	-0.4071	68.1699	99.9999	
   806	-1.0853	 0.0122	-1.0730	-1.0975	-0.7919	-0.2692	-1.0610	-0.5227	-0.9003	-0.3810	-1.2812	-0.5194	68.0925	99.9995	
   807	-1.3495	-0.2179	-1.5672	-1.1316	-1.0355	-0.4535	-1.4889	-0.5819	-1.0534	-0.4845	-1.5379	-0.5689	67.9254	99.9987	
   808	-1.4815	-0.2681	-1.7496	-1.2134	-1.1040	-0.5197	-1.6236	-0.5843	-1.1126	-0.5313	-1.6439	-0.5813	68.0434	99.9985	
   809	-1.5191	-0.2619	-1.7809	-1.2572	-1.1606	-0.4922	-1.6528	-0.6684	-1.1572	-0.5146	-1.6717	-0.6427	67.9638	99.9987	
   810	-1.4343	-0.2399	-1.6741	-1.1944	-1.0571	-0.4913	-1.5483	-0.5658	-1.0434	-0.5113	-1.5546	-0.5322	68.1210	99.9985	
   811	-1.3180	-0.1990	-1.5169	-1.1189	-0.9766	-0.4426	-1.4192	-0.5340	-0.9901	-0.4681	-1.4580	-0.5220	68.0027	99.9986	
   812	-1.2830	-0.1205	-1.4034	-1.1624	-0.9513	-0.3410	-1.2922	-0.6104	-0.9907	-0.3701	-1.3606	-0.6206	67.8025	99.9990	
   813	-1.1422	 0.0789	-1.0632	-1.2210	-0.7890	-0.1070	-0.8959	-0.6820	-0.8429	-0.1495	-0.9923	-0.6935	67.6372	99.9995	
   814	-0.8596	 0.3631	-0.4964	-1.2227	-0.5112	 0.2214	-0.2897	-0.7326	-0.5779	 0.1421	-0.4357	-0.7200	67.4723	99.9999	
   815	-0.6243	 0.6191	-0.0052	-1.2434	-0.3616	 0.4600	 0.0985	-0.8216	-0.4383	 0.3140	-0.1242	-0.7524	67.4747	100.0000	
   816	-0.5063	 0.5602	 0.0540	-1.0665	-0.2214	 0.3103	 0.0890	-0.5317	-0.3468	 0.1071	-0.2395	-0.4539	68.0798	99.9999	
   817	-0.9944	 0.0091	-0.9852	-1.0034	-0.7666	-0.2786	-1.0451	-0.4880	-0.9127	-0.3993	-1.3119	-0.5133	67.9780	99.9995	
   818	-1.4509	-0.2642	-1.7150	-1.1867	-1.1234	-0.5190	-1.6423	-0.6043	-1.1813	-0.5401	-1.7212	-0.6412	67.8896	99.9987	
   819	-1.6259	-0.3977	-2.0235	-1.2281	-1.3051	-0.6413	-1.9463	-0.6638	-1.2950	-0.6526	-1.9476	-0.6424	67.9695	99.9981	
   820	-1.7693	-0.5123	-2.2815	-1.2569	-1.4287	-0.7654	-2.1941	-0.6633	-1.4082	-0.7539	-2.1620	-0.6543	68.0108	99.9977	
   821	-1.9180	-0.5870	-2.5048	-1.3310	-1.5353	-0.8175	-2.3527	-0.7177	-1.4610	-0.7859	-2.2468	-0.6751	68.0457	99.9974	
   822	-1.7859	-0.5367	-2.3225	-1.2492	-1.3572	-0.7592	-2.1163	-0.5980	-1.2710	-0.7364	-2.0073	-0.5345	68.1985	99.9979	
   823	-1.4868	-0.2281	-1.7148	-1.2586	-1.0229	-0.3472	-1.3699	-0.6757	-1.0007	-0.3433	-1.3439	-0.6574	67.7098	99.9996	
   824	-0.6471	 0.4903	-0.1567	-1.1374	-0.2319	 0.4644	 0.2325	-0.6963	-0.2899	 0.3273	 0.0375	-0.6173	67.4235	99.9993	
   825	-0.1075	 0.7558	 0.6484	-0.8632	 0.2426	 0.7267	 0.9693	-0.4841	 0.0977	 0.5729	 0.6707	-0.4751	67.2256	99.9989	
   826	 0.0464	 0.6609	 0.7074	-0.6144	 0.2590	 0.5639	 0.8230	-0.3048	-0.0055	 0.4448	 0.4395	-0.4503	66.9573	99.9995	
   827	-0.4049	 0.3476	-0.0572	-0.7524	-0.2630	 0.0383	-0.2246	-0.3014	-0.4933	-0.2002	-0.6934	-0.2931	68.1440	99.9999	
   828	-1.1991	-0.2429	-1.4419	-0.9561	-0.9051	-0.5474	-1.4524	-0.3576	-0.9296	-0.6173	-1.5468	-0.3123	68.3722	99.9984	
   829	-1.4475	-0.4636	-1.9109	-0.9839	-1.0704	-0.7215	-1.7917	-0.3489	-1.0316	-0.7228	-1.7543	-0.3089	68.3218	99.9979	
   830	-1.6040	-0.5429	-2.1468	-1.0611	-1.2037	-0.7898	-1.9934	-0.4140	-1.1583	-0.7557	-1.9139	-0.4026	68.2011	99.9976	
   831	-1.6338	-0.5319	-2.1656	-1.1018	-1.2283	-0.7676	-1.9958	-0.4607	-1.1589	-0.7670	-1.9258	-0.3919	68.3204	99.9981	
   832	-1.6478	-0.5115	-2.1592	-1.1362	-1.2537	-0.7583	-2.0118	-0.4954	-1.1982	-0.7580	-1.9561	-0.4402	68.2831	99.9980	
   833	-1.6539	-0.4864	-2.1402	-1.1674	-1.2462	-0.7414	-1.9875	-0.5048	-1.2023	-0.7277	-1.9299	-0.4746	68.2424	99.9979	
   834	-1.4833	-0.4275	-1.9107	-1.0558	-1.1054	-0.6563	-1.7616	-0.4492	-1.0739	-0.6609	-1.7347	-0.4130	68.1610	99.9984	
   835	-1.3206	-0.2438	-1.5643	-1.0768	-0.9051	-0.4364	-1.3414	-0.4687	-0.9496	-0.4545	-1.4040	-0.4951	67.9177	99.9994	
   836	-1.0399	 0.0106	-1.0291	-1.0505	-0.6578	-0.1881	-0.8459	-0.4697	-0.7596	-0.2958	-1.0553	-0.4638	68.0004	99.9998	
   837	-1.1405	-0.1503	-1.2907	-0.9901	-0.8216	-0.4476	-1.2692	-0.3740	-1.0129	-0.5803	-1.5931	-0.4327	68.2230	99.9996	
   838	-1.5638	-0.5044	-2.0681	-1.0593	-1.2179	-0.8107	-2.0284	-0.4072	-1.2973	-0.8071	-2.1043	-0.4903	68.1377	99.9980	
   839	-1.7195	-0.5688	-2.2882	-1.1506	-1.3207	-0.7988	-2.1194	-0.5219	-1.3026	-0.7993	-2.1018	-0.5033	68.1667	99.9985	
   840	-1.6119	-0.5476	-2.1594	-1.0643	-1.2030	-0.7770	-1.9799	-0.4260	-1.2052	-0.7841	-1.9893	-0.4211	68.2055	99.9988	
   841	-1.5822	-0.5586	-2.1407	-1.0236	-1.2030	-0.7770	-1.9799	-0.4260	-1.2334	-0.7793	-2.0126	-0.4541	68.0481	99.9988	
   842	-1.6425	-0.5515	-2.1940	-1.0909	-1.2611	-0.7751	-2.0361	-0.4860	-1.2962	-0.7845	-2.0806	-0.5117	68.0499	99.9989	
   843	-1.6871	-0.5351	-2.2221	-1.1520	-1.3058	-0.7651	-2.0708	-0.5407	-1.3531	-0.7861	-2.1391	-0.5669	68.0522	99.9990	
   844	-1.7186	-0.5539	-2.2724	-1.1646	-1.3647	-0.7760	-2.1406	-0.5886	-1.4328	-0.7907	-2.2234	-0.6422	67.8945	99.9990	
   845	-1.8034	-0.5759	-2.3793	-1.2275	-1.4496	-0.7904	-2.2399	-0.6592	-1.4798	-0.8191	-2.2988	-0.6607	67.9746	99.9991	
   846	-1.7667	-0.5971	-2.3637	-1.1696	-1.3676	-0.8272	-2.1947	-0.5404	-1.4012	-0.8371	-2.2381	-0.5641	68.0919	99.9989	
   847	-1.7833	-0.6214	-2.4047	-1.1618	-1.4019	-0.8603	-2.2620	-0.5416	-1.4481	-0.8655	-2.3135	-0.5826	68.0546	99.9988	
   848	-1.8306	-0.6497	-2.4802	-1.1808	-1.4861	-0.8618	-2.3478	-0.6243	-1.5108	-0.8707	-2.3814	-0.6402	67.9348	99.9988	
   849	-1.8918	-0.6576	-2.5493	-1.2342	-1.5323	-0.8774	-2.4096	-0.6549	-1.5625	-0.8801	-2.4424	-0.6824	67.9354	99.9987	
   850	-1.9224	-0.6615	-2.5838	-1.2608	-1.5531	-0.9024	-2.4554	-0.6508	-1.5971	-0.8901	-2.4870	-0.7070	67.9365	99.9985	
   851	-1.9696	-0.6898	-2.6593	-1.2798	-1.6120	-0.9133	-2.5252	-0.6987	-1.6317	-0.9001	-2.5317	-0.7316	67.8956	99.9984	
   852	-1.9469	-0.6906	-2.6373	-1.2563	-1.5665	-0.9105	-2.4769	-0.6561	-1.5413	-0.9110	-2.4522	-0.6303	68.0925	99.9985	
   853	-1.9329	-0.7110	-2.6438	-1.2219	-1.5680	-0.9360	-2.5040	-0.6320	-1.5701	-0.9175	-2.4874	-0.6526	67.9740	99.9982	
   854	-1.9617	-0.6851	-2.6467	-1.2766	-1.6038	-0.8837	-2.4873	-0.7201	-1.5783	-0.8569	-2.4351	-0.7215	67.8505	99.9982	
   855	-1.9241	-0.5618	-2.4858	-1.3622	-1.5465	-0.7873	-2.3336	-0.7592	-1.5455	-0.7714	-2.3168	-0.7741	67.8907	99.9983	
   856	-1.8419	-0.4551	-2.2969	-1.3868	-1.4839	-0.7124	-2.1962	-0.7715	-1.5314	-0.7192	-2.2505	-0.8123	67.8951	99.9986	
   857	-1.8568	-0.4496	-2.3062	-1.4071	-1.5554	-0.7187	-2.2740	-0.8368	-1.5948	-0.7356	-2.3303	-0.8591	67.8590	99.9982	
   858	-1.8410	-0.4402	-2.2811	-1.4008	-1.4846	-0.7252	-2.2098	-0.7594	-1.4986	-0.7430	-2.2415	-0.7556	68.0962	99.9982	
   859	-1.7667	-0.4676	-2.2342	-1.2990	-1.4653	-0.7258	-2.1910	-0.7394	-1.4874	-0.7472	-2.2345	-0.7402	67.9371	99.9983	
   860	-1.8445	-0.4998	-2.3442	-1.3447	-1.5644	-0.7611	-2.3253	-0.8033	-1.6024	-0.7730	-2.3753	-0.8293	67.8196	99.9981	
   861	-1.9696	-0.5603	-2.5298	-1.4093	-1.6843	-0.8213	-2.5055	-0.8630	-1.7127	-0.8179	-2.5305	-0.8947	67.7801	99.9978	
   862	-2.0955	-0.6357	-2.7311	-1.4598	-1.7848	-0.8821	-2.6668	-0.9027	-1.7889	-0.8641	-2.6529	-0.9248	67.7786	99.9977	
   863	-2.1646	-0.6483	-2.8128	-1.5163	-1.8556	-0.8756	-2.7311	-0.9801	-1.8569	-0.8615	-2.7184	-0.9954	67.6982	99.9979	
   864	-2.1244	-0.6098	-2.7341	-1.5146	-1.7700	-0.8484	-2.6183	-0.9215	-1.7590	-0.8350	-2.5939	-0.9240	67.8558	99.9980	
   865	-2.0107	-0.6137	-2.6243	-1.3970	-1.6984	-0.8422	-2.5405	-0.8563	-1.6968	-0.8411	-2.5378	-0.8557	67.8170	99.9981	
   866	-2.0562	-0.6121	-2.6682	-1.4440	-1.7252	-0.8584	-2.5835	-0.8669	-1.7426	-0.8470	-2.5894	-0.8956	67.8180	99.9980	
   867	-2.1113	-0.6451	-2.7563	-1.4661	-1.7856	-0.8949	-2.6804	-0.8907	-1.8065	-0.8747	-2.6811	-0.9318	67.7791	99.9978	
   868	-2.1515	-0.6836	-2.8350	-1.4679	-1.8638	-0.9052	-2.7689	-0.9586	-1.8517	-0.8693	-2.7208	-0.9824	67.6168	99.9974	
   869	-2.1673	-0.6930	-2.8601	-1.4742	-1.8772	-0.9133	-2.7904	-0.9639	-1.8810	-0.8870	-2.7679	-0.9940	67.6182	99.9977	
   870	-2.1340	-0.6443	-2.7782	-1.4897	-1.7960	-0.8519	-2.6478	-0.9442	-1.7361	-0.8321	-2.5681	-0.9040	67.8123	99.9977	
   871	-1.9311	-0.5516	-2.4826	-1.3794	-1.5971	-0.7686	-2.3656	-0.8286	-1.6305	-0.7682	-2.3987	-0.8623	67.7347	99.9986	
   872	-1.9224	-0.5320	-2.4543	-1.3903	-1.6024	-0.7471	-2.3493	-0.8553	-1.6699	-0.7592	-2.4290	-0.9106	67.6568	99.9990	
   873	-2.0002	-0.5642	-2.5643	-1.4359	-1.7007	-0.7695	-2.4701	-0.9312	-1.7443	-0.7715	-2.5158	-0.9728	67.5763	99.9987	
   874	-2.0465	-0.5776	-2.6240	-1.4689	-1.7402	-0.7811	-2.5211	-0.9591	-1.7737	-0.7893	-2.5628	-0.9844	67.6168	99.9988	
   875	-2.1244	-0.6098	-2.7341	-1.5146	-1.8072	-0.8216	-2.6287	-0.9856	-1.8317	-0.8135	-2.6451	-1.0183	67.6168	99.9985	
   876	-2.1340	-0.6443	-2.7782	-1.4897	-1.7960	-0.8519	-2.6478	-0.9442	-1.7760	-0.8344	-2.6103	-0.9416	67.7342	99.9981	
   877	-2.0824	-0.6710	-2.7533	-1.4114	-1.7327	-0.8752	-2.6078	-0.8575	-1.7255	-0.8476	-2.5730	-0.8780	67.7332	99.9982	
   878	-2.0973	-0.6655	-2.7627	-1.4318	-1.7580	-0.8659	-2.6238	-0.8922	-1.7596	-0.8463	-2.6058	-0.9133	67.6943	99.9984	
   879	-2.1122	-0.6600	-2.7721	-1.4521	-1.7901	-0.8606	-2.6505	-0.9295	-1.7877	-0.8415	-2.6291	-0.9462	67.6549	99.9982	
   880	-2.1122	-0.6600	-2.7721	-1.4521	-1.7841	-0.8693	-2.6533	-0.9148	-1.7936	-0.8450	-2.6385	-0.9485	67.6554	99.9982	
   881	-2.1270	-0.6545	-2.7814	-1.4725	-1.7968	-0.8646	-2.6613	-0.9321	-1.8053	-0.8521	-2.6574	-0.9532	67.6962	99.9984	
   882	-2.1034	-0.6404	-2.7437	-1.4630	-1.7759	-0.8397	-2.6155	-0.9362	-1.7473	-0.8279	-2.5751	-0.9193	67.7337	99.9982	
   883	-1.9967	-0.6341	-2.6307	-1.3626	-1.6724	-0.8387	-2.5110	-0.8336	-1.6792	-0.8305	-2.5096	-0.8487	67.7347	99.9984	
   884	-2.0343	-0.6278	-2.6620	-1.4065	-1.7111	-0.8375	-2.5485	-0.8736	-1.7191	-0.8328	-2.5518	-0.8863	67.7357	99.9984	
   885	-2.0728	-0.6365	-2.7091	-1.4363	-1.7439	-0.8450	-2.5888	-0.8989	-1.7584	-0.8238	-2.5821	-0.9347	67.6549	99.9983	
   886	-2.1043	-0.6553	-2.7595	-1.4490	-1.7767	-0.8525	-2.6290	-0.9242	-1.7707	-0.8421	-2.6128	-0.9286	67.6948	99.9984	
   887	-2.0964	-0.6506	-2.7469	-1.4458	-1.7700	-0.8484	-2.6183	-0.9215	-1.7484	-0.8505	-2.5988	-0.8979	67.7750	99.9984	
   888	-2.0719	-0.6215	-2.6934	-1.4503	-1.7029	-0.8079	-2.5107	-0.8951	-1.6487	-0.7902	-2.4388	-0.8586	67.8087	99.9983	
   889	-1.8069	-0.5061	-2.3129	-1.3008	-1.4385	-0.7096	-2.1480	-0.7288	-1.4464	-0.7223	-2.1686	-0.7240	67.8896	99.9989	
   890	-1.8095	-0.5508	-2.3603	-1.2587	-1.5204	-0.7838	-2.3041	-0.7365	-1.5983	-0.8034	-2.4015	-0.7949	67.7396	99.9988	
   891	-2.0264	-0.6231	-2.6494	-1.4033	-1.7059	-0.8590	-2.5648	-0.8469	-1.7097	-0.8708	-2.5804	-0.8389	67.8989	99.9983	
   892	-1.8935	-0.5579	-2.4513	-1.3356	-1.5666	-0.7994	-2.3659	-0.7671	-1.5654	-0.8272	-2.3925	-0.7382	68.0172	99.9985	
   893	-1.8104	-0.5657	-2.3760	-1.2447	-1.5427	-0.8344	-2.3770	-0.7084	-1.5560	-0.8652	-2.4211	-0.6908	68.0225	99.9980	
   894	-1.8410	-0.5697	-2.4106	-1.2713	-1.5226	-0.8222	-2.3447	-0.7004	-1.5144	-0.8291	-2.3434	-0.6853	68.0161	99.9979	
   895	-1.6801	-0.5453	-2.2253	-1.1348	-1.3401	-0.7982	-2.1382	-0.5419	-1.3490	-0.8164	-2.1653	-0.5325	68.1340	99.9984	
   896	-1.6827	-0.5900	-2.2727	-1.0927	-1.3758	-0.8568	-2.2325	-0.5190	-1.3965	-0.8561	-2.2525	-0.5403	68.0570	99.9978	
   897	-1.8647	-0.7133	-2.5779	-1.1513	-1.5896	-0.9738	-2.5633	-0.6158	-1.6064	-0.9613	-2.5677	-0.6451	67.9415	99.9974	
   898	-2.0921	-0.8350	-2.9270	-1.2570	-1.7892	-1.0699	-2.8590	-0.7194	-1.7425	-1.0655	-2.8079	-0.6770	68.0612	99.9975	
   899	-2.1332	-0.8884	-3.0215	-1.2447	-1.8056	-1.1291	-2.9346	-0.6765	-1.7501	-1.1029	-2.8529	-0.6472	68.0998	99.9971	
   900	-2.1594	-0.9473	-3.1066	-1.2121	-1.8004	-1.1506	-2.9509	-0.6498	-1.6879	-1.1090	-2.7968	-0.5789	68.1321	99.9970	
   901	-1.9836	-0.7989	-2.7824	-1.1847	-1.4853	-0.9601	-2.4453	-0.5252	-1.3612	-0.9441	-2.3052	-0.4171	68.3542	99.9988	
   902	-1.5813	-0.6732	-2.2544	-0.9081	-1.2231	-0.9002	-2.1231	-0.3229	-1.2398	-0.9034	-2.1431	-0.3364	68.1711	99.9986	
   903	-1.6478	-0.6410	-2.2887	-1.0067	-1.3058	-0.8762	-2.1818	-0.4296	-1.3413	-0.8883	-2.2295	-0.4530	68.0949	99.9987	
   904	-1.7553	-0.6622	-2.4175	-1.0931	-1.4421	-0.8846	-2.3266	-0.5575	-1.4557	-0.9029	-2.3585	-0.5528	68.0167	99.9986	
   905	-1.8463	-0.6591	-2.5053	-1.1871	-1.5144	-0.9036	-2.4179	-0.6108	-1.5466	-0.9033	-2.4498	-0.6434	67.9780	99.9983	
   906	-1.9311	-0.6811	-2.6122	-1.2500	-1.6008	-0.9435	-2.5442	-0.6573	-1.6340	-0.9452	-2.5791	-0.6888	68.0213	99.9982	
   907	-2.0011	-0.7086	-2.7096	-1.2924	-1.6723	-0.9498	-2.6220	-0.7225	-1.6405	-0.9601	-2.6004	-0.6804	68.0986	99.9980	
   908	-1.9180	-0.7165	-2.6344	-1.2015	-1.6023	-0.9691	-2.5713	-0.6332	-1.5900	-0.9732	-2.5631	-0.6168	68.0998	99.9978	
   909	-1.8944	-0.7023	-2.5966	-1.1920	-1.5680	-0.9360	-2.5040	-0.6320	-1.5830	-0.9471	-2.5300	-0.6358	68.0190	99.9984	
   910	-1.8061	-0.6207	-2.4266	-1.1854	-1.4473	-0.8631	-2.3103	-0.5843	-1.5478	-0.9258	-2.4735	-0.6220	68.1041	99.9994	
   911	-1.8716	-0.5736	-2.4451	-1.2980	-1.5166	-0.8309	-2.3475	-0.6857	-1.6616	-0.9291	-2.5906	-0.7325	68.1108	99.9996	
   912	-1.9591	-0.6403	-2.5993	-1.3187	-1.6321	-0.9254	-2.5574	-0.7066	-1.7748	-1.0304	-2.8051	-0.7444	68.1986	99.9995	
   913	-2.0247	-0.7228	-2.7474	-1.3019	-1.6954	-1.0131	-2.7084	-0.6823	-1.7777	-1.0868	-2.8644	-0.6909	68.2761	99.9991	
   914	-2.0370	-0.8021	-2.8389	-1.2349	-1.7244	-1.0677	-2.7920	-0.6568	-1.6920	-1.0787	-2.7706	-0.6133	68.2243	99.9975	
   915	-1.9985	-0.7934	-2.7918	-1.2051	-1.6902	-1.0346	-2.7247	-0.6556	-1.6551	-1.0236	-2.6786	-0.6315	68.0594	99.9974	
   916	-1.9110	-0.7267	-2.6376	-1.1843	-1.5620	-0.9448	-2.5067	-0.6173	-1.5431	-0.9448	-2.4878	-0.5982	68.0546	99.9983	
   917	-1.7265	-0.6881	-2.4145	-1.0383	-1.3408	-0.9220	-2.2627	-0.4188	-1.3554	-0.9405	-2.2958	-0.4148	68.2535	99.9988	
   918	-1.5595	-0.6889	-2.2482	-0.8706	-1.2029	-0.8880	-2.0909	-0.3150	-1.2005	-0.9124	-2.1128	-0.2881	68.2094	99.9990	
   919	-1.5507	-0.6692	-2.2199	-0.8814	-1.2499	-0.9164	-2.1662	-0.3335	-1.3213	-0.9418	-2.2631	-0.3795	68.1004	99.9987	
   920	-1.6355	-0.6913	-2.3267	-0.9443	-1.3028	-0.9360	-2.2387	-0.3667	-1.3384	-0.9412	-2.2794	-0.3972	68.1365	99.9984	
   921	-1.7055	-0.7187	-2.4242	-0.9867	-1.4085	-0.9753	-2.3838	-0.4332	-1.4545	-0.9896	-2.4440	-0.4649	68.1022	99.9983	
   922	-1.8918	-0.7871	-2.6788	-1.1047	-1.6127	-1.0371	-2.6497	-0.5756	-1.6228	-1.0587	-2.6814	-0.5641	68.1053	99.9981	
   923	-2.0466	-0.8366	-2.8831	-1.2100	-1.7706	-1.0833	-2.8538	-0.6873	-1.7390	-1.1071	-2.8460	-0.6318	68.1465	99.9977	
   924	-2.1463	-0.8531	-2.9993	-1.2932	-1.8503	-1.1191	-2.9694	-0.7312	-1.8252	-1.1265	-2.9516	-0.6987	68.1477	99.9974	
   925	-2.1918	-0.8516	-3.0432	-1.3402	-1.9144	-1.1085	-3.0228	-0.8059	-1.8815	-1.1169	-2.9983	-0.7646	68.0678	99.9973	
   926	-2.1507	-0.7982	-2.9487	-1.3525	-1.8347	-1.0727	-2.9073	-0.7620	-1.8340	-1.0772	-2.9111	-0.7568	68.1072	99.9977	
   927	-2.0081	-0.6984	-2.7064	-1.3096	-1.6589	-0.9417	-2.6005	-0.7172	-1.7331	-0.9943	-2.7273	-0.7388	68.0666	99.9993	
   928	-1.8813	-0.6081	-2.4893	-1.2731	-1.5390	-0.8815	-2.4203	-0.6575	-1.7097	-0.9801	-2.6896	-0.7296	68.1152	99.9996	
   929	-1.9066	-0.6521	-2.5586	-1.2545	-1.6470	-0.9591	-2.6060	-0.6879	-1.8346	-1.0885	-2.9229	-0.7461	68.1679	99.9996	
   930	-2.1419	-0.7785	-2.9203	-1.3633	-1.8809	-1.0883	-2.9690	-0.7926	-1.9900	-1.1279	-3.1178	-0.8621	67.9999	99.9983	
   931	-2.2906	-0.8532	-3.1436	-1.4374	-2.0388	-1.1344	-3.1731	-0.9044	-2.0017	-1.1350	-3.1366	-0.8668	68.0313	99.9965	
   932	-2.2066	-0.8461	-3.0526	-1.3605	-1.8891	-1.1179	-3.0068	-0.7712	-1.8129	-1.1081	-2.9209	-0.7047	68.2236	99.9966	
   933	-1.9932	-0.8334	-2.8266	-1.1598	-1.6670	-1.0823	-2.7493	-0.5847	-1.6017	-1.0896	-2.6912	-0.5121	68.2998	99.9975	
   934	-1.8551	-0.8083	-2.6632	-1.0468	-1.5166	-1.0530	-2.5695	-0.4636	-1.4756	-1.0680	-2.5434	-0.4076	68.3382	99.9980	
   935	-1.7195	-0.8278	-2.5473	-0.8916	-1.3549	-1.0539	-2.4087	-0.3009	-1.2990	-1.0595	-2.3584	-0.2395	68.4110	99.9981	
   936	-1.5883	-0.7925	-2.3807	-0.7958	-1.2394	-1.0705	-2.3097	-0.1689	-1.2714	-1.0756	-2.3469	-0.1959	68.4195	99.9981	
   937	-1.7737	-0.8459	-2.6196	-0.9278	-1.4875	-1.1095	-2.5968	-0.3780	-1.5061	-1.1083	-2.6142	-0.3978	68.1844	99.9977	
   938	-1.8420	-0.8436	-2.6854	-0.9983	-1.5195	-1.1042	-2.6236	-0.4154	-1.4885	-1.0976	-2.5860	-0.3908	68.2998	99.9974	
   939	-1.7895	-0.8553	-2.6447	-0.9341	-1.5016	-1.1303	-2.6319	-0.3713	-1.4955	-1.1237	-2.6191	-0.3718	68.2641	99.9972	
   940	-1.8822	-0.8821	-2.7642	-1.0001	-1.6186	-1.1394	-2.7579	-0.4792	-1.5935	-1.1502	-2.7436	-0.4432	68.2262	99.9973	
   941	-1.9740	-0.8939	-2.8678	-1.0801	-1.6842	-1.1544	-2.8384	-0.5298	-1.6674	-1.1512	-2.8185	-0.5161	68.1857	99.9973	
   942	-2.0134	-0.9174	-2.9307	-1.0959	-1.7244	-1.1787	-2.9030	-0.5457	-1.6803	-1.1809	-2.8611	-0.4994	68.2661	99.9971	
   943	-2.0755	-0.9402	-3.0156	-1.1352	-1.7713	-1.2071	-2.9783	-0.5642	-1.7207	-1.1945	-2.9151	-0.5263	68.2654	99.9968	
   944	-2.0213	-0.9221	-2.9433	-1.0991	-1.6916	-1.1712	-2.8627	-0.5204	-1.5940	-1.1615	-2.7555	-0.4325	68.3785	99.9968	
   945	-1.9154	-0.9307	-2.8461	-0.9847	-1.6275	-1.1818	-2.8092	-0.4457	-1.5606	-1.1741	-2.7346	-0.3865	68.3019	99.9968	
   946	-1.9688	-0.9339	-2.9026	-1.0349	-1.6670	-1.1934	-2.8603	-0.4737	-1.6116	-1.1722	-2.7837	-0.4395	68.2621	99.9967	
   947	-2.0300	-0.9418	-2.9717	-1.0882	-1.7259	-1.2043	-2.9300	-0.5216	-1.6691	-1.1851	-2.8541	-0.4840	68.2634	99.9967	
   948	-2.0694	-0.9653	-3.0346	-1.1040	-1.7661	-1.2286	-2.9946	-0.5375	-1.6984	-1.2028	-2.9012	-0.4956	68.2634	99.9964	
   949	-2.1157	-0.9787	-3.0943	-1.1370	-1.8309	-1.2308	-3.0616	-0.6001	-1.7501	-1.2122	-2.9622	-0.5378	68.2243	99.9964	
   950	-2.1000	-0.9693	-3.0691	-1.1307	-1.7728	-1.2327	-3.0053	-0.5401	-1.6539	-1.2196	-2.8733	-0.4343	68.4606	99.9962	
   951	-2.0318	-0.9716	-3.0032	-1.0601	-1.7340	-1.2339	-2.9678	-0.5001	-1.6427	-1.2238	-2.8664	-0.4189	68.3834	99.9964	
   952	-2.0860	-0.9897	-3.0755	-1.0963	-1.7936	-1.2576	-3.0511	-0.5360	-1.7113	-1.2325	-2.9437	-0.4788	68.3046	99.9960	
   953	-2.1393	-0.9928	-3.1320	-1.1465	-1.8517	-1.2557	-3.1074	-0.5960	-1.7630	-1.2419	-3.0047	-0.5211	68.3059	99.9962	
   954	-2.1621	-0.9920	-3.1540	-1.1700	-1.8838	-1.2504	-3.1341	-0.6334	-1.7800	-1.2412	-3.0211	-0.5387	68.3059	99.9961	
   955	-2.1857	-1.0062	-3.1918	-1.1795	-1.8912	-1.2673	-3.1584	-0.6240	-1.7911	-1.2371	-3.0281	-0.5541	68.2641	99.9958	
   956	-2.0921	-0.9645	-3.0565	-1.1275	-1.7534	-1.2333	-2.9866	-0.5201	-1.6251	-1.2131	-2.8381	-0.4120	68.4988	99.9960	
   957	-2.0003	-0.9527	-2.9529	-1.0475	-1.6811	-1.2143	-2.8953	-0.4669	-1.5735	-1.2037	-2.7771	-0.3698	68.4599	99.9964	
   958	-2.0081	-0.9575	-2.9655	-1.0507	-1.7072	-1.2177	-2.9248	-0.4895	-1.6134	-1.2060	-2.8193	-0.4074	68.3820	99.9964	
   959	-2.0081	-0.9575	-2.9655	-1.0507	-1.7005	-1.2136	-2.9140	-0.4869	-1.6298	-1.1941	-2.8238	-0.4357	68.3019	99.9966	
   960	-2.0160	-0.9622	-2.9781	-1.0538	-1.7393	-1.2124	-2.9515	-0.5269	-1.6644	-1.2041	-2.8684	-0.4603	68.2641	99.9966	
   961	-2.0615	-0.9606	-3.0220	-1.1008	-1.7460	-1.2164	-2.9623	-0.5295	-1.6363	-1.2089	-2.8451	-0.4273	68.4210	99.9965	
   962	-1.9399	-0.9598	-2.8996	-0.9801	-1.6230	-1.2161	-2.8391	-0.4069	-1.5225	-1.2056	-2.7280	-0.3168	68.4592	99.9965	
   963	-1.9172	-0.9606	-2.8777	-0.9566	-1.6104	-1.2208	-2.8311	-0.3896	-1.5283	-1.2092	-2.7374	-0.3191	68.4210	99.9966	
   964	-1.9635	-0.9739	-2.9374	-0.9896	-1.6558	-1.2236	-2.8793	-0.4322	-1.5741	-1.2150	-2.7890	-0.3591	68.3813	99.9968	
   965	-1.9784	-0.9684	-2.9467	-1.0099	-1.6752	-1.2230	-2.8981	-0.4522	-1.5852	-1.2108	-2.7960	-0.3744	68.3813	99.9965	
   966	-2.0011	-0.9677	-2.9687	-1.0335	-1.6946	-1.2224	-2.9168	-0.4722	-1.5911	-1.2144	-2.8054	-0.3767	68.4210	99.9965	
   967	-1.9854	-0.9582	-2.9435	-1.0271	-1.6677	-1.2061	-2.8738	-0.4616	-1.5506	-1.2008	-2.7513	-0.3498	68.4584	99.9966	
   968	-1.8787	-0.9519	-2.8305	-0.9268	-1.5575	-1.2011	-2.7585	-0.3563	-1.4480	-1.1933	-2.6412	-0.2546	68.4966	99.9966	
   969	-1.8411	-0.9582	-2.7992	-0.8829	-1.5381	-1.2018	-2.7398	-0.3363	-1.4591	-1.1892	-2.6482	-0.2699	68.3785	99.9968	
   970	-1.8945	-0.9613	-2.8557	-0.9331	-1.5835	-1.2046	-2.7880	-0.3790	-1.4937	-1.1992	-2.6928	-0.2945	68.4188	99.9969	
   971	-1.9172	-0.9606	-2.8777	-0.9566	-1.6037	-1.2167	-2.8203	-0.3869	-1.5225	-1.2056	-2.7280	-0.3168	68.4202	99.9967	
   972	-1.9863	-0.9731	-2.9593	-1.0131	-1.6759	-1.2358	-2.9116	-0.4402	-1.5805	-1.2299	-2.8103	-0.3507	68.4621	99.9965	
   973	-1.9950	-0.9928	-2.9877	-1.0022	-1.6893	-1.2439	-2.9331	-0.4455	-1.5635	-1.2305	-2.7939	-0.3330	68.4592	99.9961	
   974	-1.9496	-0.9943	-2.9438	-0.9552	-1.6387	-1.2626	-2.9012	-0.3761	-1.5307	-1.2543	-2.7849	-0.2763	68.5413	99.9962	
   975	-1.9968	-1.0226	-3.0193	-0.9742	-1.7303	-1.2810	-3.0112	-0.4493	-1.6222	-1.2660	-2.8880	-0.3562	68.3841	99.9958	
   976	-2.0807	-1.0297	-3.1103	-1.0510	-1.8152	-1.2953	-3.1105	-0.5199	-1.6914	-1.2860	-2.9773	-0.4054	68.4260	99.9955	
   977	-2.1332	-1.0179	-3.1510	-1.1152	-1.8480	-1.3028	-3.1507	-0.5452	-1.7195	-1.2812	-3.0006	-0.4383	68.4657	99.9950	
   978	-2.1490	-1.0274	-3.1762	-1.1216	-1.8867	-1.3016	-3.1882	-0.5852	-1.7653	-1.2870	-3.0522	-0.4783	68.3876	99.9952	
   979	-2.1402	-1.0077	-3.1478	-1.1324	-1.8540	-1.2941	-3.1480	-0.5599	-1.6914	-1.2860	-2.9773	-0.4054	68.5848	99.9948	
