OxySoft export of:	C:\Users\TO3 TechSupport\Documents\Train2Adapt\Post_tests\T2A_42_POST_NIRS
Export date:	2022/12/17 09:18:19
Start of measurement:	2022-12-17 08:26:52.205

Datafile sample rate:	10.00	Hz
Datafile duration:	3066.100	s
Datafile total number of samples:	30661

Description:	

Optode-template:	PortaMon TSI Fit Factor
Optode distance (mm):	 35.00
Optode gradients (mm):	 5.00
DPF:	6.03

Device id:	291
# Receivers:	1
# Light sources:	6
# ADC:	2

Light source wavelengths:
device	index	wavelength
1	1	847	nm
1	2	761	nm
1	3	848	nm
1	4	761	nm
1	5	848	nm
1	6	762	nm

Export sample rate:	10.00	Hz
Selected time span:	0	3066.100
Selected time span (sample numbers):	0	30661


Legend:
Column	Trace (Measurement)
1	(Sample number)
2	Rx1-Tx1 O2Hb (T2A_42_POST_NIRS)
3	Rx1-Tx1 HHb (T2A_42_POST_NIRS)
4	Rx1-Tx1 tHb (T2A_42_POST_NIRS)
5	Rx1-Tx1 HbDiff (T2A_42_POST_NIRS)
6	Rx1-Tx2 O2Hb (T2A_42_POST_NIRS)
7	Rx1-Tx2 HHb (T2A_42_POST_NIRS)
8	Rx1-Tx2 tHb (T2A_42_POST_NIRS)
9	Rx1-Tx2 HbDiff (T2A_42_POST_NIRS)
10	Rx1-Tx3 O2Hb (T2A_42_POST_NIRS)
11	Rx1-Tx3 HHb (T2A_42_POST_NIRS)
12	Rx1-Tx3 tHb (T2A_42_POST_NIRS)
13	Rx1-Tx3 HbDiff (T2A_42_POST_NIRS)
14	Rx1-Tx1,Tx2,Tx3 TSI% (T2A_42_POST_NIRS)
15	Rx1-Tx1,Tx2,Tx3 TSI Fit Factor (T2A_42_POST_NIRS)
16	(Event)


1	2	3	4	5	6	7	8	9	10	11	12	13	14	15	16
     0	137.2585	74.6177	211.8762	62.6408	110.6338	60.4037	171.0376	50.2302	93.2025	54.6945	147.8971	38.5079	43.7250	98.5201	
     1	 0.4605	 0.2444	 0.7049	 0.2162	 0.5154	 0.2715	 0.7869	 0.2439	 0.6017	 0.2809	 0.8826	 0.3207	68.3656	99.9715	
     2	 0.4577	 0.1957	 0.6534	 0.2620	 0.4976	 0.2070	 0.7046	 0.2906	 0.5430	 0.2216	 0.7646	 0.3214	68.3262	99.9713	
     3	 0.3463	 0.1291	 0.4754	 0.2173	 0.3752	 0.1599	 0.5350	 0.2154	 0.4352	 0.1682	 0.6034	 0.2669	68.2830	99.9709	
     4	 0.2702	 0.0991	 0.3694	 0.1711	 0.3039	 0.1436	 0.4474	 0.1604	 0.3612	 0.1710	 0.5322	 0.1901	68.1469	99.9712	
     5	 0.2293	 0.1060	 0.3353	 0.1233	 0.2966	 0.1392	 0.4357	 0.1575	 0.3306	 0.1762	 0.5068	 0.1542	68.1469	99.9705	
     6	 0.2293	 0.1060	 0.3353	 0.1233	 0.2828	 0.1442	 0.4270	 0.1386	 0.3427	 0.1717	 0.5143	 0.1709	68.1916	99.9710	
     7	 0.2474	 0.1324	 0.3798	 0.1150	 0.3257	 0.1568	 0.4825	 0.1690	 0.3746	 0.1910	 0.5656	 0.1835	68.2356	99.9710	
     8	 0.2988	 0.1632	 0.4620	 0.1356	 0.3427	 0.2074	 0.5501	 0.1355	 0.4301	 0.1889	 0.6190	 0.2411	68.3716	99.9692	
     9	 0.2902	 0.1581	 0.4483	 0.1321	 0.3273	 0.1846	 0.5120	 0.1428	 0.3739	 0.1787	 0.5526	 0.1951	68.2852	99.9694	
    10	 0.2550	 0.1213	 0.3763	 0.1337	 0.2690	 0.1493	 0.4183	 0.1197	 0.3165	 0.1439	 0.4605	 0.1725	68.2425	99.9700	
    11	 0.1931	 0.0530	 0.2462	 0.1401	 0.1758	 0.1198	 0.2956	 0.0561	 0.2412	 0.1222	 0.3634	 0.1190	68.0612	99.9703	
    12	 0.1408	 0.0060	 0.1468	 0.1348	 0.1320	 0.0933	 0.2254	 0.0388	 0.2278	 0.1022	 0.3300	 0.1256	68.0587	99.9707	
    13	 0.1313	-0.0153	 0.1160	 0.1466	 0.1369	 0.0560	 0.1929	 0.0810	 0.1902	 0.0913	 0.2815	 0.0988	67.9696	99.9710	
    14	 0.0894	-0.0247	 0.0647	 0.1142	 0.0875	 0.0530	 0.1404	 0.0346	 0.1468	 0.0888	 0.2356	 0.0579	67.9248	99.9712	
    15	 0.0571	-0.0128	 0.0443	 0.0699	 0.0737	 0.0581	 0.1318	 0.0157	 0.1462	 0.0765	 0.2227	 0.0695	68.0606	99.9704	
    16	 0.0666	 0.0086	 0.0752	 0.0580	 0.0810	 0.0625	 0.1435	 0.0186	 0.1398	 0.0727	 0.2124	 0.0670	68.1080	99.9702	
    17	 0.1009	 0.0291	 0.1299	 0.0718	 0.1166	 0.0706	 0.1873	 0.0461	 0.1525	 0.0804	 0.2329	 0.0721	68.1093	99.9698	
    18	 0.1180	 0.0393	 0.1573	 0.0787	 0.1158	 0.0567	 0.1725	 0.0592	 0.1391	 0.0604	 0.1995	 0.0787	68.1582	99.9705	
    19	 0.0590	 0.0197	 0.0787	 0.0393	 0.0583	 0.0353	 0.0936	 0.0231	 0.0766	 0.0463	 0.1229	 0.0302	68.1139	99.9708	
    20	 0.0000	 0.0000	 0.0000	-0.0000	-0.0000	 0.0000	-0.0000	 0.0000	 0.0000	-0.0000	 0.0000	-0.0000	68.1636	99.9700	
    21	-0.1304	-0.1093	-0.2397	-0.0210	-0.1386	-0.0838	-0.2224	-0.0548	-0.1103	-0.1025	-0.2128	-0.0079	68.2114	99.9690	
    22	-0.1741	-0.1512	-0.3253	-0.0229	-0.1824	-0.1102	-0.2926	-0.0721	-0.1301	-0.1264	-0.2565	-0.0039	68.2100	99.9693	
    23	-0.1827	-0.1563	-0.3390	-0.0264	-0.1897	-0.1147	-0.3043	-0.0749	-0.1544	-0.1172	-0.2716	-0.0372	68.1191	99.9695	
    24	-0.1827	-0.1563	-0.3390	-0.0264	-0.2099	-0.1001	-0.3100	-0.1098	-0.1780	-0.0959	-0.2738	-0.0822	67.9823	99.9697	
    25	-0.2065	-0.1392	-0.3457	-0.0672	-0.2237	-0.0950	-0.3187	-0.1287	-0.2022	-0.0868	-0.2890	-0.1156	67.9829	99.9698	
    26	-0.2902	-0.1581	-0.4483	-0.1321	-0.3421	-0.0726	-0.4147	-0.2694	-0.3120	-0.0581	-0.3701	-0.2540	67.7089	99.9696	
    27	-0.3891	-0.1547	-0.5438	-0.2345	-0.4167	-0.0237	-0.4404	-0.3928	-0.3759	 0.0222	-0.3536	-0.3982	67.4309	99.9692	
    28	-0.4710	-0.1410	-0.6120	-0.3299	-0.4969	 0.0485	-0.4484	-0.5454	-0.4206	 0.1141	-0.3065	-0.5347	67.1540	99.9692	
    29	-0.5690	-0.1214	-0.6904	-0.4475	-0.5456	 0.0594	-0.4862	-0.6049	-0.4691	 0.1323	-0.3368	-0.6014	67.1986	99.9687	
    30	-0.6765	-0.1232	-0.7996	-0.5533	-0.6647	 0.0679	-0.5968	-0.7325	-0.5973	 0.1617	-0.4357	-0.7591	66.9715	99.9695	
    31	-0.6041	-0.0173	-0.6214	-0.5869	-0.5310	 0.1890	-0.3420	-0.7200	-0.3874	 0.2768	-0.1106	-0.6644	67.1931	99.9697	
    32	-0.3197	-0.0974	-0.4171	-0.2222	-0.2627	 0.0828	-0.1799	-0.3454	-0.1353	 0.1321	-0.0032	-0.2675	67.6016	99.9683	
    33	-0.2883	-0.1256	-0.4139	-0.1627	-0.0925	 0.1052	 0.0127	-0.1976	 0.1085	 0.1845	 0.2930	-0.0762	67.8120	99.9671	
    34	 0.0190	 0.0427	 0.0617	-0.0237	 0.1158	 0.1775	 0.2933	-0.0616	 0.2093	 0.2217	 0.4310	-0.0126	67.8685	99.9678	
    35	 0.1237	 0.1367	 0.2604	-0.0130	 0.1531	 0.2135	 0.3665	-0.0603	 0.2157	 0.2256	 0.4413	-0.0100	67.9667	99.9691	
    36	 0.1009	 0.1700	 0.2708	-0.0691	 0.1474	 0.2369	 0.3843	-0.0894	 0.1869	 0.2677	 0.4546	-0.0808	67.8759	99.9693	
    37	 0.1294	 0.2340	 0.3635	-0.1046	 0.1911	 0.2633	 0.4545	-0.0721	 0.1882	 0.2922	 0.4804	-0.1041	67.9236	99.9688	
    38	 0.0952	 0.2135	 0.3087	-0.1183	 0.1198	 0.2470	 0.3669	-0.1271	 0.1065	 0.2666	 0.3731	-0.1602	67.8365	99.9686	
    39	 0.0124	 0.2109	 0.2233	-0.1985	 0.0420	 0.2403	 0.2823	-0.1982	 0.0134	 0.2578	 0.2711	-0.2445	67.7931	99.9679	
    40	-0.0447	 0.2237	 0.1790	-0.2684	-0.0139	 0.2467	 0.2328	-0.2605	-0.0613	 0.2483	 0.1869	-0.3097	67.7958	99.9663	
    41	-0.1018	 0.2365	 0.1347	-0.3382	-0.0634	 0.2436	 0.1803	-0.3069	-0.1296	 0.2426	 0.1130	-0.3723	67.7979	99.9658	
    42	-0.1693	 0.2117	 0.0424	-0.3810	-0.1436	 0.1951	 0.0515	-0.3386	-0.2566	 0.1776	-0.0789	-0.4343	67.8044	99.9642	
    43	-0.6165	-0.2282	-0.8447	-0.3884	-0.7838	-0.1652	-0.9490	-0.6185	-1.0216	-0.1546	-1.1762	-0.8672	66.8016	99.9624	
    44	-1.1740	-0.1549	-1.3290	-1.0191	-1.0360	 0.2192	-0.8168	-1.2551	-0.8489	 0.4375	-0.4113	-1.2865	66.1076	99.9702	
    45	-0.8058	 0.3473	-0.4585	-1.1530	-0.6026	 0.7767	 0.1741	-1.3792	-0.3474	 0.9313	 0.5838	-1.2788	66.1986	99.9647	
    46	-1.1635	 0.3053	-0.8582	-1.4688	-0.9737	 0.5656	-0.4081	-1.5393	-0.7813	 0.6687	-0.1126	-1.4501	66.6930	99.9669	
    47	-1.4376	 0.0004	-1.4372	-1.4379	-1.2476	 0.3328	-0.9148	-1.5804	-1.0793	 0.5240	-0.5552	-1.6034	66.1523	99.9681	
    48	-1.7135	-0.1961	-1.9096	-1.5174	-1.4526	 0.1954	-1.2572	-1.6480	-1.1833	 0.4254	-0.7578	-1.6088	66.1979	99.9698	
    49	-1.9171	-0.2867	-2.2038	-1.6304	-1.5880	 0.1672	-1.4207	-1.7551	-1.2554	 0.3461	-0.9092	-1.6016	66.4218	99.9642	
    50	-2.0836	-0.4490	-2.5326	-1.6347	-1.8343	-0.0757	-1.9100	-1.7585	-1.6343	 0.0692	-1.5651	-1.7036	66.4238	99.9624	
    51	-2.2559	-0.5677	-2.8236	-1.6882	-2.1114	-0.2433	-2.3547	-1.8680	-1.9853	-0.1432	-2.1284	-1.8422	66.3794	99.9615	
    52	-2.3891	-0.5848	-2.9739	-1.8042	-2.3619	-0.3142	-2.6761	-2.0475	-2.2782	-0.1896	-2.4678	-2.0886	66.0557	99.9673	
    53	-2.5689	-0.5516	-3.1205	-2.0173	-2.5775	-0.2701	-2.8476	-2.3073	-2.3963	-0.0827	-2.4790	-2.3136	65.7793	99.9752	
    54	-2.4984	-0.3372	-2.8357	-2.1612	-2.3855	 0.0071	-2.3784	-2.3925	-2.0141	 0.2556	-1.7585	-2.2698	65.8793	99.9794	
    55	-2.2501	-0.3295	-2.5796	-1.9206	-2.1220	-0.0618	-2.1838	-2.0602	-1.7741	 0.1154	-1.6587	-1.8896	66.5604	99.9776	
    56	-2.0456	-0.5045	-2.5500	-1.5411	-1.9671	-0.3037	-2.2708	-1.6633	-1.7293	-0.2142	-1.9436	-1.5152	67.0680	99.9728	
    57	-1.5014	-0.3822	-1.8835	-1.1192	-1.4889	-0.1890	-1.6780	-1.2999	-1.3216	-0.0983	-1.4198	-1.2234	66.9757	99.9725	
    58	-1.0989	-0.0004	-1.0992	-1.0985	-1.0562	 0.1130	-0.9433	-1.1691	-0.9356	 0.1948	-0.7408	-1.1305	67.1561	99.9732	
    59	-0.7811	 0.2055	-0.5755	-0.9866	-0.8042	 0.2117	-0.5925	-1.0158	-0.8226	 0.2275	-0.5952	-1.0502	67.3476	99.9704	
    60	-0.9466	 0.0595	-0.8872	-1.0061	-1.0141	 0.1116	-0.9025	-1.1256	-1.0179	 0.1569	-0.8610	-1.1749	67.0262	99.9719	
    61	-1.2007	-0.1865	-1.3872	-1.0142	-1.3172	-0.0180	-1.3352	-1.2991	-1.3184	 0.0820	-1.2364	-1.4006	66.3336	99.9714	
    62	-1.7544	-0.1893	-1.9437	-1.5651	-1.5620	 0.1292	-1.4328	-1.6912	-1.2796	 0.3552	-0.9244	-1.6350	66.3327	99.9748	
    63	-1.8362	-0.0347	-1.8709	-1.8014	-1.6496	 0.3179	-1.3317	-1.9674	-1.3454	 0.5176	-0.8278	-1.8631	66.1526	99.9728	
    64	-2.1692	 0.0633	-2.1058	-2.2325	-2.0282	 0.3440	-1.6842	-2.3721	-1.7966	 0.5180	-1.2786	-2.3147	65.9693	99.9727	
    65	-2.6021	-0.1332	-2.7353	-2.4689	-2.4674	 0.1723	-2.2951	-2.6396	-2.2796	 0.3803	-1.8994	-2.6600	65.5557	99.9721	
    66	-2.8647	-0.3843	-3.2490	-2.4804	-2.6271	 0.0892	-2.5379	-2.7162	-2.2815	 0.3435	-1.9381	-2.6251	65.4288	99.9707	
    67	-2.9846	-0.4561	-3.4407	-2.5285	-2.6870	 0.0261	-2.6610	-2.7130	-2.3491	 0.2312	-2.1180	-2.5804	65.6995	99.9652	
    68	-3.1568	-0.5748	-3.7317	-2.5820	-2.9082	-0.1480	-3.0562	-2.7601	-2.6254	 0.0283	-2.5971	-2.6538	65.7855	99.9650	
    69	-3.3528	-0.6765	-4.0294	-2.6763	-3.2235	-0.3655	-3.5890	-2.8579	-3.1205	-0.2238	-3.3443	-2.8969	65.6361	99.9640	
    70	-3.6040	-0.7329	-4.3370	-2.8711	-3.5509	-0.4293	-3.9802	-3.1215	-3.4734	-0.2352	-3.7086	-3.2383	65.1177	99.9689	
    71	-3.7229	-0.6476	-4.3705	-3.0753	-3.6912	-0.2994	-3.9905	-3.3917	-3.5073	-0.0535	-3.5609	-3.4539	64.7988	99.9746	
    72	-3.6344	-0.4068	-4.0412	-3.2276	-3.4586	-0.0513	-3.5100	-3.4072	-3.0964	 0.2427	-2.8538	-3.3392	65.1899	99.9795	
    73	-3.2890	-0.2940	-3.5830	-2.9951	-3.0761	 0.1129	-2.9632	-3.1889	-2.6619	 0.3986	-2.2633	-3.0607	65.3357	99.9780	
    74	-2.9598	-0.3160	-3.2759	-2.6438	-2.8094	-0.0211	-2.8305	-2.7882	-2.4282	 0.1357	-2.2925	-2.5641	66.2419	99.9757	
    75	-2.5926	-0.3936	-2.9863	-2.1990	-2.4875	-0.1755	-2.6630	-2.3120	-2.2284	-0.0644	-2.2928	-2.1641	66.6094	99.9733	
    76	-2.1245	-0.1604	-2.2849	-1.9641	-2.0362	 0.0841	-1.9521	-2.1202	-1.8609	 0.2294	-1.6316	-2.0904	66.1960	99.9718	
    77	-1.3461	 0.4308	-0.9154	-1.7769	-1.3004	 0.5157	-0.7847	-1.8160	-1.2350	 0.6201	-0.6150	-1.8552	66.5165	99.9736	
    78	-0.8599	 0.6905	-0.1694	-1.5504	-0.9575	 0.6022	-0.3553	-1.5597	-1.1163	 0.6443	-0.4720	-1.7608	66.6125	99.9727	
    79	-1.2662	 0.3847	-0.8815	-1.6509	-1.4648	 0.3491	-1.1157	-1.8139	-1.6625	 0.3613	-1.3012	-2.0240	66.2400	99.9696	
    80	-2.0798	-0.1023	-2.1821	-1.9775	-2.1302	 0.0407	-2.0895	-2.1708	-2.1647	 0.0931	-2.0716	-2.2579	66.1006	99.9661	
    81	-2.7753	-0.4091	-3.1844	-2.3662	-2.7218	-0.0890	-2.8108	-2.6328	-2.5833	 0.1251	-2.4582	-2.7086	65.3190	99.9721	
    82	-2.9636	-0.2400	-3.2037	-2.7236	-2.6612	 0.2296	-2.4315	-2.8907	-2.2612	 0.4985	-1.7627	-2.7597	65.4780	99.9721	
    83	-2.9417	-0.0078	-2.9495	-2.9339	-2.7382	 0.3575	-2.3807	-3.0957	-2.5082	 0.6225	-1.8857	-3.1308	65.0590	99.9727	
    84	-3.3337	 0.0706	-3.2630	-3.4043	-3.2197	 0.4288	-2.7909	-3.6484	-2.9434	 0.6920	-2.2514	-3.6356	64.6865	99.9765	
    85	-3.7314	-0.0892	-3.8206	-3.6422	-3.6014	 0.2785	-3.3230	-3.8798	-3.3792	 0.5115	-2.8677	-3.8909	64.5827	99.9720	
    86	-4.2928	-0.3626	-4.6554	-3.9302	-3.9815	 0.1560	-3.8256	-4.1374	-3.6001	 0.5444	-3.0557	-4.1445	64.1534	99.9757	
    87	-4.1910	-0.3173	-4.5083	-3.8737	-3.8802	 0.2038	-3.6764	-4.0839	-3.5113	 0.4673	-3.0441	-3.9787	64.6030	99.9677	
    88	-4.3280	-0.3993	-4.7273	-3.9287	-4.1331	 0.0911	-4.0419	-4.2241	-3.8642	 0.3369	-3.5272	-4.2012	64.2604	99.9671	
    89	-4.5021	-0.4096	-4.9117	-4.0925	-4.4281	-0.0202	-4.4482	-4.4078	-4.3026	 0.2262	-4.0764	-4.5289	63.9016	99.9694	
    90	-4.6714	-0.3388	-5.0102	-4.3326	-4.6275	 0.0606	-4.5669	-4.6880	-4.4832	 0.3191	-4.1642	-4.8024	63.6182	99.9712	
    91	-4.7399	-0.2389	-4.9788	-4.5010	-4.6640	 0.1593	-4.5047	-4.8232	-4.4016	 0.4636	-3.9380	-4.8653	63.6843	99.9772	
    92	-4.4735	-0.0638	-4.5373	-4.4097	-4.2637	 0.3880	-3.8757	-4.6516	-3.8752	 0.7227	-3.1524	-4.5980	64.0017	99.9778	
    93	-3.9321	 0.0098	-3.9223	-3.9419	-3.7693	 0.4186	-3.3507	-4.1878	-3.3908	 0.6472	-2.7435	-4.0381	64.6865	99.9746	
    94	-3.5715	-0.0404	-3.6120	-3.5311	-3.4628	 0.2415	-3.2213	-3.7042	-3.2025	 0.4639	-2.7385	-3.6665	65.0433	99.9768	
    95	-3.0644	 0.1536	-2.9109	-3.2180	-3.0292	 0.4366	-2.5927	-3.4657	-2.9153	 0.6377	-2.2776	-3.5531	64.7163	99.9724	
    96	-2.3974	 0.6781	-1.7193	-3.0754	-2.3145	 0.8689	-1.4456	-3.1833	-2.3131	 1.0498	-1.2633	-3.3629	64.9076	99.9699	
    97	-1.7903	 1.0258	-0.7645	-2.8161	-1.8728	 1.0823	-0.7905	-2.9551	-2.0342	 1.1829	-0.8514	-3.2172	64.9857	99.9692	
    98	-2.0311	 0.8660	-1.1650	-2.8971	-2.2124	 0.9306	-1.2818	-3.1430	-2.4560	 1.0346	-1.4214	-3.4907	64.5020	99.9684	
    99	-2.6039	 0.5388	-2.0651	-3.1427	-2.7465	 0.7016	-2.0449	-3.4480	-2.9307	 0.8187	-2.1121	-3.7495	64.2650	99.9658	
   100	-3.4040	 0.2790	-3.1251	-3.6830	-3.4346	 0.6076	-2.8270	-4.0421	-3.4113	 0.8489	-2.5624	-4.2603	63.6834	99.9711	
   101	-3.8017	 0.4009	-3.4008	-4.2026	-3.5376	 0.8943	-2.6434	-4.4318	-3.2576	 1.1916	-2.0660	-4.4493	63.8384	99.9692	
   102	-3.8055	 0.6178	-3.1876	-4.4233	-3.6390	 1.0880	-2.5510	-4.7270	-3.4376	 1.4156	-2.0220	-4.8534	63.1875	99.9717	
   103	-4.2821	 0.6612	-3.6209	-4.9433	-4.2218	 1.1114	-3.1104	-5.3331	-4.0362	 1.4339	-2.6024	-5.4702	62.6500	99.9741	
   104	-4.8272	 0.8045	-4.0227	-5.6317	-4.6515	 1.3482	-3.3033	-5.9996	-4.4071	 1.6732	-2.7339	-6.0804	62.2568	99.9694	
   105	-5.1916	 0.6490	-4.5427	-5.8406	-5.0292	 1.2674	-3.7618	-6.2966	-4.7313	 1.6197	-3.1115	-6.3511	61.8894	99.9699	
   106	-5.4885	 0.5182	-4.9703	-6.0067	-5.3380	 1.1612	-4.1767	-6.4991	-5.0561	 1.5540	-3.5021	-6.6101	61.5080	99.9710	
   107	-5.6664	 0.5839	-5.0825	-6.2503	-5.5341	 1.1768	-4.3573	-6.7109	-5.3490	 1.5075	-3.8415	-6.8566	61.4643	99.9660	
   108	-5.9737	 0.5565	-5.4172	-6.5302	-6.0180	 1.0855	-4.9325	-7.1035	-5.9316	 1.3571	-4.5745	-7.2888	61.0463	99.9659	
   109	-6.2934	 0.5999	-5.6934	-6.8933	-6.3309	 1.1514	-5.1795	-7.4822	-6.1958	 1.5063	-4.6895	-7.7023	60.5411	99.9718	
   110	-6.1963	 0.8459	-5.3504	-7.0422	-6.1713	 1.3553	-4.8160	-7.5265	-5.9630	 1.7067	-4.2563	-7.6698	60.9080	99.9744	
   111	-5.8357	 0.9365	-4.8992	-6.7722	-5.7077	 1.4612	-4.2465	-7.1688	-5.3976	 1.8824	-3.5152	-7.2801	61.2641	99.9787	
   112	-5.2487	 0.9435	-4.3051	-6.1922	-5.1930	 1.4771	-3.7159	-6.6700	-4.9528	 1.8781	-3.0747	-6.8310	61.3101	99.9769	
   113	-5.0556	 0.8556	-4.1999	-5.9112	-5.0487	 1.2959	-3.7527	-6.3445	-4.8544	 1.6284	-3.2260	-6.4830	61.8777	99.9764	
   114	-4.7787	 0.9275	-3.8512	-5.7061	-4.7974	 1.3808	-3.4166	-6.1781	-4.7026	 1.6966	-3.0060	-6.3992	61.6840	99.9722	
   115	-4.1326	 1.2359	-2.8967	-5.3686	-4.1839	 1.6444	-2.5395	-5.8283	-4.2202	 1.9409	-2.2793	-6.1612	61.6393	99.9692	
   116	-3.7882	 1.4734	-2.3148	-5.2616	-3.8339	 1.8562	-1.9777	-5.6900	-3.9306	 2.1638	-1.7668	-6.0944	61.5586	99.9686	
   117	-3.4818	 1.7664	-1.7154	-5.2482	-3.5673	 2.0845	-1.4828	-5.6517	-3.7539	 2.3540	-1.3999	-6.1079	61.5447	99.9667	
   118	-3.3876	 1.9637	-1.4239	-5.3512	-3.5212	 2.2735	-1.2476	-5.7946	-3.7265	 2.5251	-1.2013	-6.2517	61.3537	99.9666	
   119	-3.4037	 2.1105	-1.2932	-5.5142	-3.5301	 2.3621	-1.1680	-5.8921	-3.8024	 2.6100	-1.1925	-6.4125	61.2907	99.9660	
   120	-3.5264	 2.1310	-1.3954	-5.6574	-3.6841	 2.3763	-1.3078	-6.0604	-3.9799	 2.6453	-1.3346	-6.6253	60.9955	99.9676	
   121	-3.6986	 2.1531	-1.5455	-5.8518	-3.8373	 2.4045	-1.4329	-6.2417	-4.1145	 2.6708	-1.4437	-6.7854	60.9488	99.9673	
   122	-3.8651	 2.1317	-1.7334	-5.9969	-4.0059	 2.4099	-1.5960	-6.4157	-4.2683	 2.6848	-1.5836	-6.9532	60.7599	99.9672	
   123	-4.0583	 2.0787	-1.9795	-6.1370	-4.1899	 2.3926	-1.7973	-6.5824	-4.4406	 2.6994	-1.7412	-7.1401	60.4817	99.9678	
   124	-4.2390	 2.0957	-2.1433	-6.3348	-4.3431	 2.4207	-1.9224	-6.7638	-4.5932	 2.7379	-1.8553	-7.3312	60.3415	99.9671	
   125	-4.3951	 2.1119	-2.2831	-6.5070	-4.4955	 2.4628	-2.0327	-6.9582	-4.7387	 2.7925	-1.9462	-7.5313	60.1081	99.9669	
   126	-4.5083	 2.1537	-2.3545	-6.6620	-4.5839	 2.5167	-2.0671	-7.1006	-4.8038	 2.8482	-1.9556	-7.6522	60.0706	99.9667	
   127	-4.6167	 2.1358	-2.4810	-6.7525	-4.7111	 2.5069	-2.2042	-7.2180	-4.9353	 2.8163	-2.1190	-7.7516	60.0078	99.9652	
   128	-4.7937	 1.9359	-2.8578	-6.7296	-4.8699	 2.3169	-2.5530	-7.1867	-5.1177	 2.6345	-2.4832	-7.7523	59.9891	99.9636	
   129	-5.0639	 1.8368	-3.2272	-6.9007	-5.1390	 2.2884	-2.8506	-7.4273	-5.3519	 2.6473	-2.7046	-7.9994	59.5748	99.9644	
   130	-5.1752	 1.9110	-3.2642	-7.0862	-5.2258	 2.3701	-2.8556	-7.5958	-5.4030	 2.7353	-2.6677	-8.1384	59.5430	99.9652	
   131	-5.1629	 1.9810	-3.1818	-7.1439	-5.2072	 2.4485	-2.7587	-7.6556	-5.3807	 2.8083	-2.5724	-8.1891	59.5038	99.9644	
   132	-5.1914	 2.0579	-3.1335	-7.2492	-5.2380	 2.5238	-2.7142	-7.7618	-5.4260	 2.8879	-2.5382	-8.3140	59.3614	99.9642	
   133	-5.2380	 2.1082	-3.1298	-7.3462	-5.2915	 2.5720	-2.7195	-7.8635	-5.4912	 2.9436	-2.5475	-8.4349	59.2162	99.9646	
   134	-5.3017	 2.1483	-3.1534	-7.4501	-5.3596	 2.6114	-2.7482	-7.9709	-5.5754	 2.9878	-2.5877	-8.5633	59.0682	99.9643	
   135	-5.3579	 2.1774	-3.1805	-7.5352	-5.4075	 2.6361	-2.7713	-8.0435	-5.6112	 3.0137	-2.5975	-8.6249	59.0709	99.9649	
   136	-5.3645	 2.2047	-3.1598	-7.5692	-5.4334	 2.6741	-2.7593	-8.1075	-5.6335	 3.0596	-2.5739	-8.6932	58.9308	99.9656	
   137	-5.3455	 2.2474	-3.0981	-7.5928	-5.4091	 2.7291	-2.6800	-8.1381	-5.6061	 3.1119	-2.4942	-8.7181	58.8923	99.9649	
   138	-5.3873	 2.3789	-3.0084	-7.7662	-5.4999	 2.8621	-2.6378	-8.3620	-5.7644	 3.2777	-2.4867	-9.0422	58.3062	99.9655	
   139	-5.4130	 2.3635	-3.0495	-7.7765	-5.5153	 2.8394	-2.6760	-8.3546	-5.7433	 3.2072	-2.5361	-8.9506	58.6337	99.9639	
   140	-5.5100	 2.3993	-3.1107	-7.9093	-5.5680	 2.9015	-2.6666	-8.4694	-5.7625	 3.3145	-2.4480	-9.0771	58.4812	99.9658	
   141	-5.4301	 2.6350	-2.7951	-8.0651	-5.4604	 3.1814	-2.2790	-8.6417	-5.6165	 3.6288	-1.9876	-9.2454	58.2147	99.9669	
   142	-5.3501	 2.8707	-2.4794	-8.2208	-5.4142	 3.3704	-2.0439	-8.7845	-5.6261	 3.8014	-1.8247	-9.4276	58.0520	99.9667	
   143	-5.4937	 3.0978	-2.3959	-8.5915	-5.6316	 3.6282	-2.0033	-9.2597	-5.8898	 4.0818	-1.8080	-9.9717	57.2346	99.9669	
   144	-5.6335	 3.3898	-2.2438	-9.0233	-5.8003	 3.8752	-1.9250	-9.6754	-6.1285	 4.3654	-1.7631	-10.4940	56.6420	99.9691	
   145	-5.8285	 3.5861	-2.2424	-9.4146	-6.0549	 4.0971	-1.9577	-10.1519	-6.4062	 4.6136	-1.7927	-11.0199	55.9166	99.9703	
   146	-5.9921	 3.8952	-2.0970	-9.8873	-6.2349	 4.3909	-1.8440	-10.6258	-6.6144	 4.8919	-1.7225	-11.5064	55.5195	99.9694	
   147	-5.9902	 4.0685	-1.9217	-10.0587	-6.3015	 4.5789	-1.7225	-10.8803	-6.6770	 5.1156	-1.5614	-11.7927	55.0054	99.9729	
   148	-6.0824	 4.1854	-1.8970	-10.2679	-6.4458	 4.7601	-1.6857	-11.2058	-6.7932	 5.2594	-1.5338	-12.0526	54.6742	99.9705	
   149	-6.2470	 4.3374	-1.9096	-10.5844	-6.5845	 4.9179	-1.6666	-11.5022	-6.8717	 5.4140	-1.4578	-12.2858	54.6619	99.9717	
   150	-6.3431	 4.3894	-1.9537	-10.7325	-6.6364	 4.9939	-1.6425	-11.6301	-6.9253	 5.4529	-1.4725	-12.3783	54.7170	99.9670	
   151	-6.5067	 4.4167	-2.0900	-10.9234	-6.8042	 5.0132	-1.7910	-11.8173	-7.1277	 5.4850	-1.6426	-12.6128	54.4494	99.9669	
   152	-6.6894	 4.4013	-2.2881	-11.0907	-6.9590	 5.0135	-1.9455	-11.9724	-7.2815	 5.4990	-1.7825	-12.7805	54.3094	99.9662	
   153	-6.8359	 4.4388	-2.3971	-11.2747	-7.1041	 5.0600	-2.0441	-12.1640	-7.4583	 5.5466	-1.9117	-13.0049	54.0491	99.9644	
   154	-7.0271	 4.4182	-2.6089	-11.4454	-7.3083	 5.0573	-2.2511	-12.3655	-7.6561	 5.5458	-2.1103	-13.2019	53.8391	99.9643	
   155	-7.1974	 4.4728	-2.7246	-11.6703	-7.4518	 5.1316	-2.3203	-12.5833	-7.8131	 5.6172	-2.1959	-13.4304	53.6471	99.9617	
   156	-7.3278	 4.5044	-2.8234	-11.8321	-7.6253	 5.1743	-2.4510	-12.7996	-7.9963	 5.6609	-2.3353	-13.6573	53.3278	99.9621	
   157	-7.4210	 4.6051	-2.8159	-12.0261	-7.6975	 5.2649	-2.4326	-12.9623	-8.1074	 5.7840	-2.3234	-13.8914	53.0413	99.9624	
   158	-7.5256	 4.6520	-2.8736	-12.1777	-7.8775	 5.3172	-2.5603	-13.1945	-8.3027	 5.8323	-2.4704	-14.1350	52.6519	99.9634	
   159	-7.6122	 4.7254	-2.8867	-12.3376	-7.9569	 5.4033	-2.5536	-13.3602	-8.4035	 5.9139	-2.4896	-14.3175	52.4531	99.9613	
   160	-7.7597	 4.7467	-3.0129	-12.5064	-8.1539	 5.4050	-2.7489	-13.5588	-8.6199	 5.9138	-2.7060	-14.5338	52.1960	99.9628	
   161	-7.9442	 4.6989	-3.2454	-12.6431	-8.3330	 5.3504	-2.9826	-13.6833	-8.8515	 5.8569	-2.9946	-14.7085	51.9895	99.9603	
   162	-8.1868	 4.6476	-3.5393	-12.8344	-8.5899	 5.2890	-3.3010	-13.8788	-9.1610	 5.8479	-3.3131	-15.0090	51.4947	99.9623	
   163	-8.3562	 4.7184	-3.6378	-13.0746	-8.7407	 5.3589	-3.3819	-14.0995	-9.3123	 5.9110	-3.4013	-15.2233	51.3879	99.9612	
   164	-8.4180	 4.7909	-3.6271	-13.2089	-8.7667	 5.3969	-3.3698	-14.1634	-9.2906	 5.9717	-3.3189	-15.2623	51.5759	99.9654	
   165	-8.3362	 4.7773	-3.5589	-13.1135	-8.6540	 5.3979	-3.2561	-14.0518	-9.1719	 5.9959	-3.1760	-15.1679	51.6258	99.9655	
   166	-8.3124	 4.7602	-3.5522	-13.0726	-8.6394	 5.4067	-3.2327	-14.0460	-9.1636	 6.0366	-3.1270	-15.2003	51.4052	99.9664	
   167	-8.3371	 4.7611	-3.5761	-13.0982	-8.6743	 5.4125	-3.2618	-14.0866	-9.2057	 6.0587	-3.1471	-15.2645	51.2574	99.9672	
   168	-8.4094	 4.7961	-3.6134	-13.2055	-8.7691	 5.4759	-3.2932	-14.2449	-9.3142	 6.1119	-3.2023	-15.4263	50.9973	99.9654	
   169	-8.6140	 4.9710	-3.6429	-13.5850	-9.0051	 5.6554	-3.3497	-14.6604	-9.5402	 6.2844	-3.2559	-15.8247	50.6357	99.9660	
   170	-8.7528	 5.1384	-3.6145	-13.8912	-9.1267	 5.7429	-3.3838	-14.8695	-9.6710	 6.2646	-3.4064	-15.9358	51.0783	99.9617	
   171	-8.8690	 4.8497	-4.0193	-13.7187	-9.2052	 5.4806	-3.7246	-14.6858	-9.7195	 6.0451	-3.6744	-15.7646	51.1969	99.9634	
   172	-9.2096	 4.8180	-4.3916	-14.0276	-9.5675	 5.5434	-4.0241	-15.1109	-10.0896	 6.1778	-3.9119	-16.2675	50.2841	99.9638	
   173	-9.3485	 4.7035	-4.6450	-14.0520	-9.5959	 5.4189	-4.1770	-15.0147	-10.0590	 6.0536	-4.0053	-16.1127	50.8317	99.9634	
   174	-9.1810	 4.7412	-4.4399	-13.9222	-9.3478	 5.4481	-3.8998	-14.7958	-9.7354	 6.0949	-3.6406	-15.8304	51.3889	99.9655	
   175	-8.7349	 4.6013	-4.1336	-13.3361	-8.8630	 5.1909	-3.6721	-14.0538	-9.3671	 5.8064	-3.5607	-15.1736	52.1381	99.9626	
   176	-8.4770	 4.6304	-3.8466	-13.1074	-8.6191	 5.2713	-3.3478	-13.8903	-9.0698	 5.9388	-3.1310	-15.0087	52.0555	99.9666	
   177	-8.1126	 4.6450	-3.4676	-12.7577	-8.2130	 5.2350	-2.9780	-13.4479	-8.6722	 5.9773	-2.6949	-14.6496	52.3270	99.9718	
   178	-7.9080	 4.8927	-3.0153	-12.8008	-7.9999	 5.3908	-2.6091	-13.3906	-8.5280	 6.1359	-2.3922	-14.6640	52.4051	99.9727	
   179	-7.8005	 5.0353	-2.7652	-12.8359	-7.8881	 5.4987	-2.3894	-13.3867	-8.3947	 6.2047	-2.1900	-14.5995	52.7013	99.9727	
   180	-7.7729	 4.9423	-2.8307	-12.7152	-7.8823	 5.3545	-2.5279	-13.2367	-8.4572	 6.0717	-2.3854	-14.5290	52.6773	99.9731	
   181	-7.8471	 4.9448	-2.9023	-12.7920	-7.8645	 5.4189	-2.4456	-13.2834	-8.3002	 6.1192	-2.1810	-14.4195	53.1391	99.9728	
   182	-7.5141	 4.9876	-2.5265	-12.5018	-7.5444	 5.4783	-2.0660	-13.0226	-7.9875	 6.1895	-1.7980	-14.1771	53.1875	99.9729	
   183	-7.3315	 5.0031	-2.3284	-12.3345	-7.4163	 5.5021	-1.9142	-12.9183	-7.8701	 6.1892	-1.6809	-14.0594	53.1731	99.9724	
   184	-7.3239	 4.9920	-2.3319	-12.3158	-7.4155	 5.5160	-1.8995	-12.9314	-7.8688	 6.2137	-1.6551	-14.0827	53.0434	99.9722	
   185	-7.3248	 4.9757	-2.3491	-12.3005	-7.3880	 5.5058	-1.8821	-12.8937	-7.7903	 6.1780	-1.6123	-13.9684	53.3554	99.9717	
   186	-7.1793	 4.9220	-2.2573	-12.1012	-7.2210	 5.4726	-1.7484	-12.6935	-7.6116	 6.1672	-1.4444	-13.7790	53.4489	99.9721	
   187	-7.0356	 4.9767	-2.0589	-12.0123	-7.0629	 5.5279	-1.5350	-12.5907	-7.4425	 6.2101	-1.2324	-13.6528	53.6199	99.9715	
   188	-6.9271	 4.9946	-1.9325	-11.9218	-6.9211	 5.5466	-1.3745	-12.4676	-7.2741	 6.2407	-1.0333	-13.5149	53.8082	99.9723	
   189	-6.7416	 5.0587	-1.6829	-11.8003	-6.7331	 5.6334	-1.0997	-12.3664	-7.0603	 6.3106	-0.7497	-13.3710	53.9448	99.9714	
   190	-6.5256	 5.0785	-1.4472	-11.6041	-6.4656	 5.6341	-0.8315	-12.0996	-6.7636	 6.3119	-0.4517	-13.0755	54.3712	99.9720	
   191	-6.3001	 5.1195	-1.1806	-11.4197	-6.2298	 5.6962	-0.5335	-11.9259	-6.5370	 6.3895	-0.1475	-12.9266	54.3686	99.9715	
   192	-6.1517	 5.2553	-0.8964	-11.4070	-6.0936	 5.8591	-0.2346	-11.9526	-6.4069	 6.6347	 0.2278	-13.0418	53.9276	99.9751	
   193	-5.8453	 5.2665	-0.5788	-11.1119	-5.6235	 5.8347	 0.2111	-11.4581	-5.7815	 6.5376	 0.7561	-12.3192	55.3777	99.9742	
   194	-5.7875	 4.2837	-1.5038	-10.0712	-5.4383	 4.8996	-0.5388	-10.3378	-5.5106	 5.5599	 0.0494	-11.0706	56.7860	99.9697	
   195	-5.8133	 3.8457	-1.9676	-9.6589	-5.3969	 4.6427	-0.7542	-10.0396	-5.2469	 5.2795	 0.0326	-10.5265	57.3424	99.9676	
   196	-5.8542	 3.5707	-2.2835	-9.4249	-5.5257	 4.4843	-1.0414	-10.0099	-5.5015	 5.2562	-0.2453	-10.7578	56.1141	99.9681	
   197	-6.1938	 3.9779	-2.2159	-10.1717	-6.0008	 4.7876	-1.2132	-10.7883	-6.0856	 5.5568	-0.5287	-11.6425	55.2651	99.9716	
   198	-6.8559	 4.2390	-2.6169	-11.0949	-6.6502	 4.9989	-1.6512	-11.6490	-6.7532	 6.0327	-0.7205	-12.7860	53.8442	99.9851	
   199	-6.2325	 5.5670	-0.6655	-11.7995	-5.9650	 6.5007	 0.5357	-12.4656	-6.1609	 7.5685	 1.4076	-13.7295	52.4206	99.9768	
   200	-5.5445	 6.3075	 0.7630	-11.8520	-5.4148	 6.7664	 1.3516	-12.1811	-5.8169	 7.4080	 1.5912	-13.2250	54.3933	99.9681	
   201	-6.0766	 5.1281	-0.9484	-11.2047	-6.3018	 5.5452	-0.7566	-11.8470	-6.6908	 6.2846	-0.4062	-12.9754	53.8547	99.9839	
   202	-6.3677	 5.2356	-1.1320	-11.6033	-6.3027	 5.7729	-0.5298	-12.0755	-6.6034	 6.4207	-0.1827	-13.0242	54.5248	99.9709	
   203	-6.2450	 5.0743	-1.1707	-11.3192	-6.2767	 5.6141	-0.6626	-11.8908	-6.5664	 6.3004	-0.2659	-12.8669	54.3626	99.9759	
   204	-6.1594	 4.9846	-1.1747	-11.1440	-6.1316	 5.4468	-0.6847	-11.5783	-6.4169	 6.0816	-0.3353	-12.4987	55.1294	99.9748	
   205	-6.1413	 4.7293	-1.4120	-10.8707	-6.0828	 5.1944	-0.8884	-11.2772	-6.3792	 5.8548	-0.5245	-12.2341	55.3120	99.9748	
   206	-6.1166	 4.5876	-1.5290	-10.7042	-6.0828	 5.0736	-1.0092	-11.1563	-6.3811	 5.6990	-0.6820	-12.0802	55.4254	99.9726	
   207	-6.1423	 4.4313	-1.7110	-10.5737	-6.1176	 4.9586	-1.1590	-11.0761	-6.3874	 5.5763	-0.8111	-11.9638	55.4751	99.9719	
   208	-6.0643	 4.3528	-1.7115	-10.4171	-6.0098	 4.8761	-1.1336	-10.8858	-6.2495	 5.4932	-0.7563	-11.7429	55.7763	99.9724	
   209	-5.9121	 4.2717	-1.6404	-10.1839	-5.8663	 4.8018	-1.0644	-10.6680	-6.0995	 5.4056	-0.6939	-11.5053	55.9663	99.9719	
   210	-5.8265	 4.1821	-1.6444	-10.0086	-5.7592	 4.7055	-1.0538	-10.4647	-5.9808	 5.3110	-0.6698	-11.2919	56.2090	99.9721	
   211	-5.7314	 4.1138	-1.6176	-9.8452	-5.6303	 4.6224	-1.0080	-10.2526	-5.8544	 5.2448	-0.6096	-11.0993	56.4091	99.9727	
   212	-5.5345	 4.0908	-1.4436	-9.6253	-5.4139	 4.5922	-0.8217	-10.0060	-5.6036	 5.1944	-0.4092	-10.7981	56.8039	99.9727	
   213	-5.3537	 4.0738	-1.2799	-9.4275	-5.2388	 4.5773	-0.6616	-9.8160	-5.4192	 5.1753	-0.2439	-10.5945	56.9568	99.9730	
   214	-5.2795	 4.0713	-1.2082	-9.3508	-5.2007	 4.6271	-0.5736	-9.8278	-5.3803	 5.2107	-0.1696	-10.5911	56.7790	99.9710	
   215	-5.2700	 4.0926	-1.1773	-9.3626	-5.1983	 4.6689	-0.5295	-9.8671	-5.4000	 5.1868	-0.2132	-10.5870	56.8493	99.9655	
   216	-5.3014	 3.9799	-1.3215	-9.2813	-5.2243	 4.7069	-0.5174	-9.9311	-5.3012	 5.3061	 0.0050	-10.6074	56.4526	99.9689	
   217	-4.7933	 4.0492	-0.7441	-8.8426	-4.6391	 4.7252	 0.0861	-9.3642	-4.6630	 5.2167	 0.5538	-9.8798	57.6308	99.9645	
   218	-4.5231	 4.1484	-0.3747	-8.6715	-4.3757	 4.8979	 0.5222	-9.2736	-4.4294	 5.3105	 0.8811	-9.7400	57.6460	99.9545	
   219	-4.7439	 3.7658	-0.9781	-8.5097	-4.6730	 4.5033	-0.1697	-9.1763	-4.7848	 5.0122	 0.2274	-9.7970	57.1743	99.9615	
   220	-4.8114	 3.8819	-0.9296	-8.6933	-4.7598	 4.5851	-0.1747	-9.3448	-4.9545	 5.0759	 0.1214	-10.0306	56.9449	99.9588	
   221	-4.9380	 3.8374	-1.1005	-8.7754	-4.8449	 4.5739	-0.2710	-9.4187	-4.8384	 5.0511	 0.2127	-9.8896	57.4719	99.9638	
   222	-4.5850	 3.7983	-0.7867	-8.3833	-4.3602	 4.5583	 0.1981	-8.9184	-4.2589	 5.0212	 0.7623	-9.2803	58.2878	99.9620	
   223	-4.3386	 3.7736	-0.5650	-8.1122	-4.2037	 4.4650	 0.2613	-8.6686	-4.1797	 4.8789	 0.6991	-9.0587	58.4517	99.9614	
   224	-4.3453	 3.6600	-0.6853	-8.0053	-4.1729	 4.3897	 0.2168	-8.5625	-4.1255	 4.8523	 0.7268	-8.9779	58.3930	99.9627	
   225	-4.1797	 3.8061	-0.3736	-7.9858	-4.0189	 4.4962	 0.4773	-8.5150	-3.9730	 4.9327	 0.9597	-8.9058	58.5735	99.9632	
   226	-3.9485	 3.8036	-0.1449	-7.7521	-3.7133	 4.4260	 0.7127	-8.1392	-3.6373	 4.8504	 1.2131	-8.4878	59.2696	99.9647	
   227	-3.6669	 3.8156	 0.1487	-7.4826	-3.4385	 4.4311	 0.9926	-7.8695	-3.3648	 4.8608	 1.4960	-8.2257	59.4193	99.9656	
   228	-3.5565	 3.8661	 0.3095	-7.4226	-3.3453	 4.4606	 1.1153	-7.8059	-3.3086	 4.8710	 1.5623	-8.1797	59.4515	99.9643	
   229	-3.6070	 3.8515	 0.2446	-7.4585	-3.4183	 4.4165	 0.9982	-7.8347	-3.4165	 4.8176	 1.4011	-8.2342	59.4252	99.9642	
   230	-3.6831	 3.8216	 0.1385	-7.5047	-3.4977	 4.3819	 0.8842	-7.8795	-3.4994	 4.7674	 1.2680	-8.2669	59.4577	99.9633	
   231	-3.6612	 3.7721	 0.1109	-7.4333	-3.4733	 4.3161	 0.8427	-7.7893	-3.4968	 4.6976	 1.2008	-8.1945	59.5372	99.9628	
   232	-3.6898	 3.7081	 0.0183	-7.3978	-3.5398	 4.2625	 0.7227	-7.8022	-3.5689	 4.6183	 1.0494	-8.1873	59.5182	99.9615	
   233	-3.7412	 3.6773	-0.0639	-7.4184	-3.5965	 4.2550	 0.6585	-7.8514	-3.5951	 4.5906	 0.9955	-8.1858	59.5653	99.9604	
   234	-3.8363	 3.6047	-0.2316	-7.4410	-3.8048	 4.1827	 0.3779	-7.9874	-3.9065	 4.5448	 0.6383	-8.4514	58.9171	99.9611	
   235	-4.0285	 3.5679	-0.4606	-7.5964	-3.9037	 4.1766	 0.2729	-8.0802	-3.8421	 4.5957	 0.7536	-8.4379	59.1707	99.9675	
   236	-3.9105	 3.4663	-0.4442	-7.3769	-3.7359	 4.1573	 0.4214	-7.8931	-3.6940	 4.5902	 0.8962	-8.2843	59.0674	99.9624	
   237	-3.8506	 3.3613	-0.4893	-7.2119	-3.7342	 4.0643	 0.3301	-7.7985	-3.7501	 4.4611	 0.7110	-8.2113	58.9846	99.9586	
   238	-3.9657	 3.3707	-0.5951	-7.3364	-3.8031	 4.0897	 0.2866	-7.8928	-3.8095	 4.5084	 0.6989	-8.3180	58.9109	99.9583	
   239	-3.8506	 3.5022	-0.3484	-7.3528	-3.6354	 4.1912	 0.5558	-7.8265	-3.6097	 4.5460	 0.9363	-8.1559	59.4204	99.9551	
   240	-3.7878	 3.3050	-0.4829	-7.0928	-3.6710	 3.9415	 0.2705	-7.6124	-3.7666	 4.2608	 0.4942	-8.0275	59.3850	99.9525	
   241	-4.1133	 3.1102	-1.0031	-7.2235	-4.0300	 3.8183	-0.2117	-7.8482	-4.1208	 4.2248	 0.1040	-8.3457	58.6999	99.9564	
   242	-4.1961	 2.9667	-1.2293	-7.1628	-3.9780	 3.6215	-0.3565	-7.5995	-3.8871	 3.9619	 0.0748	-7.8492	60.0077	99.9583	
   243	-4.0143	 2.9659	-1.0484	-6.9803	-3.7300	 3.6507	-0.0793	-7.3806	-3.6536	 4.0557	 0.4021	-7.7094	59.9140	99.9588	
   244	-3.6899	 3.1445	-0.5454	-6.8344	-3.4764	 3.7773	 0.3009	-7.2536	-3.4079	 4.1449	 0.7370	-7.5530	60.0853	99.9607	
   245	-3.3911	 3.1668	-0.2243	-6.5579	-3.1602	 3.7671	 0.6069	-6.9273	-3.1112	 4.1461	 1.0350	-7.2574	60.3224	99.9618	
   246	-3.2342	 3.1668	-0.0673	-6.4010	-3.0476	 3.7681	 0.7205	-6.8156	-3.0059	 4.1504	 1.1445	-7.1564	60.2759	99.9631	
   247	-3.2361	 3.1344	-0.1017	-6.3705	-3.0784	 3.7227	 0.6443	-6.8009	-3.0518	 4.0988	 1.0470	-7.1508	60.2612	99.9635	
   248	-3.3464	 3.0840	-0.2625	-6.4304	-3.2024	 3.6477	 0.4453	-6.8499	-3.1801	 4.0093	 0.8293	-7.1895	60.3314	99.9638	
   249	-3.3855	 2.9824	-0.4031	-6.3678	-3.2023	 3.5269	 0.3246	-6.7291	-3.1692	 3.8613	 0.6922	-7.0306	60.6869	99.9622	
   250	-3.3512	 2.8620	-0.4893	-6.2132	-3.1755	 3.3820	 0.2065	-6.5574	-3.1589	 3.7011	 0.5422	-6.8601	60.8971	99.9618	
   251	-3.3294	 2.8125	-0.5169	-6.1418	-3.1649	 3.3213	 0.1563	-6.4861	-3.1614	 3.6520	 0.4905	-6.8135	60.8914	99.9629	
   252	-3.2961	 2.8167	-0.4793	-6.1128	-3.1301	 3.3155	 0.1854	-6.4455	-3.1142	 3.6092	 0.4950	-6.7235	61.1139	99.9613	
   253	-3.2989	 2.7681	-0.5309	-6.0670	-3.1754	 3.2612	 0.0858	-6.4366	-3.1729	 3.5499	 0.3770	-6.7229	61.0542	99.9620	
   254	-3.3123	 2.6818	-0.6304	-5.9941	-3.1811	 3.1638	-0.0172	-6.3448	-3.1901	 3.4562	 0.2662	-6.6464	61.1388	99.9620	
   255	-3.3503	 2.5964	-0.7539	-5.9467	-3.2281	 3.0817	-0.1463	-6.3097	-3.2373	 3.3801	 0.1428	-6.6175	61.1333	99.9625	
   256	-3.3951	 2.5383	-0.8567	-5.9334	-3.3075	 3.0471	-0.2604	-6.3545	-3.3017	 3.3292	 0.0275	-6.6310	61.0808	99.9619	
   257	-3.4379	 2.5127	-0.9252	-5.9506	-3.3302	 3.0200	-0.3102	-6.3501	-3.3336	 3.3099	-0.0237	-6.6436	61.0808	99.9615	
   258	-3.3808	 2.4999	-0.8809	-5.8807	-3.2532	 3.0128	-0.2403	-6.2659	-3.2232	 3.2935	 0.0703	-6.5168	61.2740	99.9614	
   259	-3.2752	 2.4692	-0.8060	-5.7444	-3.1502	 2.9677	-0.1825	-6.1178	-3.1447	 3.2578	 0.1131	-6.4026	61.3173	99.9618	
   260	-3.2942	 2.4265	-0.8677	-5.7207	-3.1737	 2.9267	-0.2470	-6.1003	-3.1836	 3.2223	 0.0387	-6.4060	61.2669	99.9616	
   261	-3.3209	 2.3949	-0.9260	-5.7158	-3.2175	 2.9002	-0.3173	-6.1176	-3.2340	 3.2037	-0.0303	-6.4378	61.1711	99.9621	
   262	-3.3551	 2.3744	-0.9807	-5.7295	-3.2393	 2.8870	-0.3524	-6.1262	-3.2232	 3.1746	-0.0486	-6.3979	61.3120	99.9617	
   263	-3.2733	 2.3608	-0.9125	-5.6341	-3.1348	 2.8697	-0.2651	-6.0044	-3.1070	 3.1498	 0.0427	-6.2569	61.5011	99.9612	
   264	-3.2514	 2.3112	-0.9402	-5.5627	-3.1372	 2.8279	-0.3092	-5.9650	-3.1217	 3.1052	-0.0165	-6.2270	61.4492	99.9608	
   265	-3.2866	 2.2745	-1.0121	-5.5612	-3.1745	 2.7920	-0.3825	-5.9663	-3.1785	 3.0827	-0.0957	-6.2613	61.3536	99.9609	
   266	-3.3199	 2.2702	-1.0497	-5.5902	-3.1817	 2.7876	-0.3942	-5.9692	-3.1600	 3.0820	-0.0779	-6.2421	61.4526	99.9615	
   267	-3.2286	 2.2780	-0.9507	-5.5066	-3.0472	 2.8018	-0.2454	-5.8489	-3.0049	 3.0927	 0.0878	-6.0976	61.6495	99.9605	
   268	-3.0964	 2.2789	-0.8175	-5.3752	-2.9410	 2.8123	-0.1287	-5.7533	-2.8939	 3.0885	 0.1947	-5.9825	61.6961	99.9601	
   269	-3.1049	 2.2737	-0.8312	-5.3787	-2.9410	 2.8123	-0.1287	-5.7533	-2.8932	 3.1008	 0.2076	-5.9941	61.6544	99.9605	
   270	-3.1040	 2.2900	-0.8140	-5.3939	-2.9329	 2.8307	-0.1023	-5.7635	-2.8856	 3.1292	 0.2436	-6.0149	61.6128	99.9608	
   271	-3.0773	 2.3216	-0.7558	-5.3989	-2.8811	 2.8754	-0.0056	-5.7564	-2.8026	 3.1794	 0.3768	-5.9821	61.6724	99.9612	
   272	-2.9594	 2.3609	-0.5985	-5.3202	-2.6955	 2.9206	 0.2251	-5.6160	-2.5537	 3.2111	 0.6574	-5.7649	62.0570	99.9608	
   273	-2.8157	 2.4156	-0.4001	-5.2312	-2.5099	 2.9657	 0.4558	-5.4755	-2.3604	 3.2449	 0.8845	-5.6054	62.2919	99.9596	
   274	-2.7576	 2.4190	-0.3386	-5.1766	-2.4669	 2.9783	 0.5114	-5.4451	-2.3719	 3.2617	 0.8898	-5.6337	62.1073	99.9575	
   275	-2.8109	 2.3558	-0.4551	-5.1667	-2.6444	 2.9515	 0.3070	-5.5958	-2.6508	 3.2475	 0.5968	-5.8984	61.4006	99.9558	
   276	-2.9936	 2.3404	-0.6532	-5.3340	-2.8560	 2.9443	 0.0884	-5.8002	-2.8371	 3.2299	 0.3928	-6.0671	61.3006	99.9566	
   277	-3.0031	 2.3190	-0.6841	-5.3221	-2.8649	 2.9121	 0.0472	-5.7769	-2.8269	 3.1885	 0.3616	-6.0155	61.4351	99.9573	
   278	-2.8442	 2.3515	-0.4927	-5.1957	-2.6306	 2.9464	 0.3157	-5.5769	-2.5289	 3.2143	 0.6854	-5.7432	61.8699	99.9572	
   279	-2.7415	 2.2721	-0.4694	-5.0136	-2.4693	 2.8157	 0.3465	-5.2850	-2.2984	 3.0089	 0.7105	-5.3074	62.7686	99.9557	
   280	-2.6007	 2.4191	-0.1816	-5.0197	-2.3040	 2.8755	 0.5715	-5.1793	-2.1957	 3.0829	 0.8872	-5.2787	62.8985	99.9577	
   281	-2.3200	 2.4149	 0.0949	-4.7349	-2.1386	 2.8144	 0.6758	-4.9529	-2.0999	 3.0220	 0.9220	-5.1220	62.8334	99.9611	
   282	-2.4275	 2.2722	-0.1553	-4.6998	-2.2998	 2.7034	 0.4036	-5.0032	-2.2837	 2.9345	 0.6508	-5.2183	62.5065	99.9617	
   283	-2.6464	 2.2039	-0.4425	-4.8502	-2.5341	 2.6692	 0.1351	-5.2032	-2.4886	 2.9176	 0.4290	-5.4062	62.2789	99.9629	
   284	-2.7786	 2.2030	-0.5757	-4.9816	-2.6767	 2.6366	-0.0401	-5.3132	-2.6698	 2.8793	 0.2095	-5.5491	62.2167	99.9626	
   285	-2.8956	 2.1799	-0.7158	-5.0755	-2.8032	 2.6407	-0.1625	-5.4437	-2.7738	 2.8995	 0.1257	-5.6735	62.0375	99.9636	
   286	-2.8918	 2.2448	-0.6471	-5.1366	-2.7497	 2.7133	-0.0364	-5.4629	-2.6577	 2.9936	 0.3359	-5.6514	62.1514	99.9658	
   287	-2.8747	 2.2550	-0.6197	-5.1297	-2.7781	 2.7095	-0.0685	-5.4875	-2.7260	 2.9879	 0.2620	-5.7140	62.0016	99.9660	
   288	-3.2772	 2.1550	-1.1222	-5.4321	-3.2798	 2.6746	-0.6052	-5.9543	-3.2787	 3.0578	-0.2209	-6.3365	60.8433	99.9703	
   289	-3.4941	 2.2599	-1.2341	-5.7540	-3.3293	 2.7923	-0.5370	-6.1215	-3.1817	 3.1403	-0.0414	-6.3220	61.4816	99.9686	
   290	-3.2191	 2.2993	-0.9198	-5.5184	-2.9702	 2.9155	-0.0548	-5.8856	-2.7139	 3.2212	 0.5072	-5.9352	61.9358	99.9642	
   291	-3.1706	 2.2814	-0.8892	-5.4520	-2.8527	 2.8792	 0.0265	-5.7318	-2.5742	 3.1750	 0.6008	-5.7492	62.3030	99.9634	
   292	-3.1392	 2.2532	-0.8860	-5.3924	-2.7271	 2.8612	 0.1341	-5.5882	-2.4695	 3.1670	 0.6975	-5.6366	62.4489	99.9600	
   293	-3.3342	 2.1678	-1.1665	-5.5020	-3.0075	 2.7587	-0.2487	-5.7661	-2.7783	 3.0514	 0.2731	-5.8298	62.2419	99.9611	
   294	-3.3771	 2.0012	-1.3758	-5.3783	-3.0909	 2.5338	-0.5571	-5.6246	-2.8778	 2.8009	-0.0769	-5.6788	62.5304	99.9626	
   295	-2.9765	 2.2097	-0.7668	-5.1862	-2.5924	 2.6339	 0.0415	-5.2262	-2.5089	 2.7626	 0.2536	-5.2716	63.4170	99.9490	
   296	-2.9014	 2.0825	-0.8188	-4.9839	-2.7286	 2.5918	-0.1368	-5.3203	-2.6187	 2.7913	 0.1726	-5.4101	62.5541	99.9581	
   297	-2.8043	 2.1876	-0.6167	-4.9919	-2.6921	 2.6139	-0.0782	-5.3059	-2.6806	 2.7895	 0.1089	-5.4702	62.5262	99.9581	
   298	-2.9080	 2.1098	-0.7982	-5.0179	-2.8088	 2.5433	-0.2655	-5.3520	-2.8012	 2.7284	-0.0728	-5.5297	62.4288	99.9586	
   299	-2.9451	 2.0407	-0.9045	-4.9858	-2.8339	 2.4744	-0.3595	-5.3082	-2.8165	 2.6716	-0.1449	-5.4881	62.4755	99.9595	
   300	-2.9290	 2.0347	-0.8943	-4.9637	-2.8258	 2.4927	-0.3331	-5.3184	-2.7910	 2.6870	-0.1040	-5.4781	62.4343	99.9591	
   301	-2.9099	 2.0774	-0.8325	-4.9873	-2.7755	 2.5097	-0.2659	-5.2852	-2.7642	 2.7270	-0.0372	-5.4913	62.4370	99.9600	
   302	-2.9099	 2.0774	-0.8325	-4.9873	-2.8169	 2.5250	-0.2919	-5.3418	-2.8133	 2.7329	-0.0804	-5.5463	62.2942	99.9595	
   303	-2.9271	 2.0671	-0.8599	-4.9942	-2.8307	 2.5300	-0.3006	-5.3606	-2.8012	 2.7284	-0.0728	-5.5297	62.3437	99.9591	
   304	-2.9109	 2.0612	-0.8497	-4.9721	-2.8112	 2.5015	-0.3097	-5.3127	-2.8025	 2.7038	-0.0986	-5.5064	62.3848	99.9595	
   305	-2.9451	 2.0407	-0.9045	-4.9858	-2.8477	 2.4795	-0.3682	-5.3271	-2.8471	 2.6768	-0.1703	-5.5240	62.3806	99.9589	
   306	-2.9956	 2.0261	-0.9694	-5.0217	-2.9044	 2.4720	-0.4324	-5.3764	-2.9097	 2.6627	-0.2469	-5.5725	62.3310	99.9580	
   307	-3.0127	 2.0159	-0.9968	-5.0286	-2.9117	 2.4676	-0.4441	-5.3792	-2.8912	 2.6620	-0.2291	-5.5533	62.3820	99.9588	
   308	-2.9299	 2.0185	-0.9114	-4.9484	-2.8201	 2.4693	-0.3508	-5.2893	-2.7922	 2.6624	-0.1298	-5.4548	62.4782	99.9588	
   309	-2.8728	 2.0057	-0.8672	-4.8785	-2.7715	 2.4585	-0.3130	-5.2299	-2.7437	 2.6442	-0.0995	-5.3881	62.5235	99.9585	
   310	-2.8814	 2.0006	-0.8808	-4.8820	-2.7788	 2.4540	-0.3247	-5.2327	-2.7622	 2.6449	-0.1173	-5.4073	62.4768	99.9583	
   311	-2.8900	 1.9954	-0.8945	-4.8854	-2.8063	 2.4642	-0.3421	-5.2705	-2.7801	 2.6579	-0.1222	-5.4381	62.3862	99.9587	
   312	-2.8804	 2.0168	-0.8637	-4.8972	-2.7496	 2.4717	-0.2779	-5.2212	-2.7118	 2.6635	-0.0483	-5.3755	62.5754	99.9584	
   313	-2.7977	 2.0194	-0.7783	-4.8170	-2.6718	 2.4785	-0.1933	-5.1502	-2.6250	 2.6685	 0.0435	-5.2936	62.6245	99.9586	
   314	-2.7815	 2.0134	-0.7681	-4.7949	-2.6718	 2.4785	-0.1933	-5.1502	-2.6493	 2.6776	 0.0283	-5.3270	62.4850	99.9584	
   315	-2.8557	 2.0159	-0.8398	-4.8716	-2.7415	 2.4900	-0.2515	-5.2314	-2.7354	 2.6849	-0.0505	-5.4205	62.3904	99.9567	
   316	-2.8728	 2.0057	-0.8672	-4.8785	-2.7423	 2.4761	-0.2662	-5.2183	-2.6863	 2.6790	-0.0073	-5.3654	62.5355	99.9592	
   317	-2.6026	 2.1048	-0.4978	-4.7074	-2.3865	 2.5436	 0.1571	-4.9301	-2.2945	 2.7259	 0.4314	-5.0204	63.0989	99.9584	
   318	-2.5303	 2.0698	-0.4605	-4.6002	-2.4027	 2.5070	 0.1043	-4.9096	-2.3889	 2.6925	 0.3036	-5.0815	62.7638	99.9580	
   319	-3.0441	 2.0441	-1.0000	-5.0881	-2.7294	 2.6987	-0.0307	-5.4280	-2.3967	 3.0207	 0.6241	-5.4175	62.4062	99.9648	
   320	-2.7310	 2.3097	-0.4213	-5.0407	-2.3940	 3.0224	 0.6284	-5.4163	-2.1250	 3.6133	 1.4882	-5.7384	61.1027	99.9755	
   321	-2.3123	 2.6856	 0.3732	-4.9979	-2.0196	 3.2891	 1.2695	-5.3086	-1.8110	 3.5892	 1.7782	-5.4004	62.2015	99.9617	
   322	-2.1135	 2.8359	 0.7224	-4.9494	-1.6655	 3.4496	 1.7841	-5.1150	-1.3727	 3.7000	 2.3273	-5.0727	62.8969	99.9568	
   323	-1.9298	 2.8676	 0.9377	-4.7974	-1.5366	 3.4872	 1.9506	-5.0238	-1.2776	 3.7456	 2.4680	-5.0233	62.7197	99.9574	
   324	-1.8813	 2.8496	 0.9683	-4.7310	-1.5090	 3.4771	 1.9680	-4.9860	-1.2725	 3.7249	 2.4524	-4.9975	62.6713	99.9559	
   325	-1.9327	 2.8189	 0.8862	-4.7516	-1.6039	 3.4197	 1.8159	-5.0235	-1.3809	 3.6593	 2.2783	-5.0403	62.6577	99.9573	
   326	-1.9955	 2.7343	 0.7388	-4.7298	-1.6322	 3.2952	 1.6630	-4.9273	-1.3994	 3.5411	 2.1417	-4.9406	62.9186	99.9591	
   327	-2.0365	 2.6003	 0.5638	-4.6367	-1.6824	 3.1574	 1.4751	-4.8397	-1.3885	 3.3931	 2.0046	-4.7817	63.1819	99.9614	
   328	-2.1040	 2.4346	 0.3306	-4.5386	-1.7423	 2.9735	 1.2313	-4.7158	-1.4714	 3.2240	 1.7526	-4.6955	63.2620	99.9620	
   329	-2.2458	 2.2714	 0.0256	-4.5173	-1.8987	 2.8253	 0.9266	-4.7239	-1.6335	 3.0783	 1.4449	-4.7119	63.2098	99.9616	
   330	-2.3657	 2.1997	-0.1660	-4.5654	-1.9870	 2.7584	 0.7714	-4.7453	-1.7107	 3.0197	 1.3091	-4.7305	63.2547	99.9614	
   331	-2.3077	 2.2031	-0.1046	-4.5108	-1.8889	 2.7506	 0.8617	-4.6395	-1.5939	 3.0072	 1.4133	-4.6011	63.4810	99.9612	
   332	-2.2611	 2.1528	-0.1083	-4.4138	-1.8638	 2.6987	 0.8350	-4.5624	-1.6028	 2.9542	 1.3514	-4.5571	63.4313	99.9604	
   333	-2.2953	 2.1322	-0.1631	-4.4276	-1.9067	 2.6862	 0.7794	-4.5928	-1.6468	 2.9395	 1.2926	-4.5864	63.3855	99.9601	
   334	-2.3296	 2.1117	-0.2178	-4.4413	-1.9497	 2.6736	 0.7239	-4.6232	-1.6908	 2.9247	 1.2339	-4.6156	63.3395	99.9597	
   335	-2.3534	 2.1288	-0.2245	-4.4822	-1.9489	 2.6875	 0.7387	-4.6363	-1.6660	 2.9279	 1.2619	-4.5939	63.4752	99.9594	
   336	-2.2801	 2.1101	-0.1700	-4.3902	-1.8864	 2.6716	 0.7851	-4.5579	-1.6174	 2.9097	 1.2922	-4.5272	63.4743	99.9589	
   337	-2.2820	 2.0776	-0.2044	-4.3596	-1.8889	 2.6298	 0.7410	-4.5186	-1.6379	 2.8735	 1.2357	-4.5115	63.4714	99.9590	
   338	-2.3496	 2.0528	-0.2967	-4.4024	-1.9537	 2.6040	 0.6504	-4.5577	-1.7017	 2.8349	 1.1332	-4.5367	63.5125	99.9580	
   339	-2.3933	 2.0110	-0.3824	-4.4043	-2.0193	 2.5643	 0.5450	-4.5836	-1.7776	 2.8008	 1.0233	-4.5785	63.4195	99.9585	
   340	-2.3876	 1.9674	-0.4202	-4.3551	-1.9934	 2.5263	 0.5330	-4.5196	-1.7240	 2.7619	 1.0380	-4.4860	63.5565	99.9588	
   341	-2.3068	 1.9376	-0.3692	-4.2443	-1.9107	 2.4958	 0.5851	-4.4064	-1.6589	 2.7062	 1.0474	-4.3652	63.6867	99.9562	
   342	-2.3610	 1.8581	-0.5029	-4.2191	-1.9723	 2.4049	 0.4326	-4.3771	-1.7501	 2.6153	 0.8652	-4.3655	63.6795	99.9556	
   343	-2.4571	 1.7693	-0.6878	-4.2264	-2.1043	 2.3116	 0.2072	-4.4158	-1.8917	 2.5058	 0.6141	-4.3977	63.6696	99.9552	
   344	-2.5780	 1.6813	-0.8967	-4.2593	-2.2291	 2.2227	-0.0065	-4.4517	-2.0200	 2.4163	 0.3964	-4.4364	63.6641	99.9551	
   345	-2.5314	 1.6309	-0.9004	-4.1623	-2.1545	 2.1738	 0.0193	-4.3283	-1.9491	 2.3522	 0.4031	-4.3014	63.8435	99.9528	
   346	-2.4657	 1.6233	-0.8424	-4.0890	-2.1270	 2.1636	 0.0367	-4.2905	-1.9861	 2.3536	 0.3674	-4.3398	63.6132	99.9520	
   347	-2.4790	 1.6779	-0.8011	-4.1569	-2.1302	 2.2288	 0.0985	-4.3589	-1.9766	 2.4188	 0.4422	-4.3955	63.5724	99.9517	
   348	-2.4505	 1.7420	-0.7085	-4.1924	-2.0711	 2.2780	 0.2069	-4.3490	-1.9115	 2.4820	 0.5705	-4.3936	63.6225	99.9529	
   349	-2.3991	 1.7727	-0.6264	-4.1718	-2.1140	 2.2654	 0.1514	-4.3794	-2.0072	 2.4241	 0.4168	-4.4314	63.6028	99.9523	
   350	-2.3078	 1.7804	-0.5273	-4.0882	-2.0087	 2.2620	 0.2534	-4.2706	-1.9019	 2.4283	 0.5264	-4.3303	63.6959	99.9531	
   351	-2.1451	 1.7370	-0.4081	-3.8820	-1.9089	 2.1613	 0.2523	-4.0701	-1.8559	 2.3610	 0.5051	-4.2170	63.6410	99.9581	
   352	-2.0737	 1.6857	-0.3880	-3.7595	-1.8781	 2.0859	 0.2078	-3.9640	-1.8215	 2.3105	 0.4891	-4.1321	63.6382	99.9625	
   353	-2.1889	 1.5542	-0.6347	-3.7431	-2.0782	 1.9112	-0.1670	-3.9894	-2.0179	 2.0965	 0.0785	-4.1145	63.7993	99.9645	
   354	-2.3820	 1.3603	-1.0217	-3.7424	-2.2581	 1.7219	-0.5362	-3.9799	-2.0919	 1.9803	-0.1116	-4.0724	63.8531	99.9725	
   355	-2.2393	 1.3988	-0.8405	-3.6381	-2.0522	 1.7524	-0.2998	-3.8046	-1.8392	 1.9668	 0.1276	-3.8061	64.3576	99.9704	
   356	-2.6836	 1.2893	-1.3943	-3.9730	-2.7290	 1.7324	-0.9967	-4.4613	-2.6255	 2.0618	-0.5637	-4.6873	62.6062	99.9751	
   357	-2.9424	 1.5258	-1.4166	-4.4682	-2.7389	 2.0486	-0.6903	-4.7874	-2.4482	 2.3831	-0.0650	-4.8314	62.9853	99.9726	
   358	-2.6503	 1.7163	-0.9340	-4.3666	-2.3823	 2.2508	-0.1315	-4.6331	-2.0238	 2.4616	 0.4378	-4.4855	63.7148	99.9654	
   359	-2.5884	 1.6437	-0.9447	-4.2322	-2.2267	 2.2644	 0.0377	-4.4910	-1.8452	 2.5697	 0.7245	-4.4149	63.4313	99.9660	
   360	-2.2326	 1.6532	-0.5794	-3.8859	-1.8303	 2.0612	 0.2309	-3.8914	-1.5017	 2.1592	 0.6575	-3.6610	65.1353	99.9588	
   361	-2.0576	 1.3980	-0.6596	-3.4556	-1.7978	 1.8929	 0.0951	-3.6906	-1.5291	 2.2258	 0.6967	-3.7551	63.8086	99.9717	
   362	-1.7017	 1.6893	-0.0125	-3.3910	-1.6001	 2.0259	 0.4258	-3.6259	-1.4978	 2.1140	 0.6161	-3.6119	64.4846	99.9610	
   363	-1.9624	 1.6115	-0.3509	-3.5739	-1.8797	 1.9373	 0.0577	-3.8169	-1.8054	 2.0229	 0.2175	-3.8284	64.3391	99.9606	
   364	-2.2241	 1.5175	-0.7066	-3.7416	-2.1593	 1.8488	-0.3105	-4.0080	-2.1079	 1.9112	-0.1966	-4.0192	64.2375	99.9581	
   365	-2.4724	 1.3688	-1.1036	-3.8412	-2.4016	 1.6754	-0.7262	-4.0769	-2.3446	 1.7561	-0.5885	-4.1008	64.2765	99.9605	
   366	-2.6694	 1.1100	-1.5594	-3.7794	-2.6835	 1.4243	-1.2592	-4.1077	-2.7370	 1.5781	-1.1589	-4.3151	63.6121	99.9629	
   367	-3.0500	 1.1014	-1.9486	-4.1513	-2.9033	 1.6404	-1.2629	-4.5436	-2.6095	 1.8931	-0.7164	-4.5026	63.4089	99.9683	
   368	-2.8064	 1.1689	-1.6375	-3.9753	-2.5507	 1.7731	-0.7776	-4.3237	-2.1839	 2.1150	-0.0689	-4.2989	63.3603	99.9710	
   369	-2.1051	 1.5730	-0.5321	-3.6782	-1.8375	 1.9360	 0.0985	-3.7734	-1.7378	 2.0163	 0.2786	-3.7542	64.6682	99.9536	
   370	-2.4543	 1.5362	-0.9181	-3.9905	-2.1277	 2.0289	-0.0988	-4.1566	-1.9120	 2.2319	 0.3199	-4.1441	63.9719	99.9593	
   371	-2.3678	 1.3219	-1.0459	-3.6897	-2.2070	 1.6320	-0.5750	-3.8389	-2.1225	 1.7478	-0.3747	-3.8704	64.5164	99.9614	
   372	-2.0871	 1.4586	-0.6285	-3.5457	-2.0579	 1.7758	-0.2821	-3.8337	-2.0313	 1.8387	-0.1926	-3.8700	64.2794	99.9588	
   373	-2.2279	 1.3117	-0.9162	-3.5396	-2.1730	 1.6123	-0.5607	-3.7852	-2.1327	 1.6703	-0.4624	-3.8031	64.5049	99.9590	
   374	-2.2955	 1.2869	-1.0086	-3.5824	-2.1875	 1.6035	-0.5841	-3.7909	-2.0759	 1.6928	-0.3831	-3.7687	64.6054	99.9620	
   375	-2.2527	 1.3125	-0.9401	-3.5652	-2.1511	 1.6255	-0.5256	-3.7765	-2.0242	 1.7359	-0.2883	-3.7602	64.5624	99.9644	
   376	-2.1080	 1.3835	-0.7246	-3.4915	-1.9347	 1.7161	-0.2186	-3.6507	-1.7581	 1.8613	 0.1032	-3.6195	64.6665	99.9659	
   377	-2.1023	 1.3399	-0.7624	-3.4422	-2.0076	 1.6720	-0.3356	-3.6795	-1.9949	 1.8250	-0.1698	-3.8200	64.1056	99.9619	
   378	-2.5504	 1.3065	-1.2440	-3.8569	-2.3684	 1.7626	-0.6058	-4.1309	-2.1219	 1.9979	-0.1241	-4.1199	63.8660	99.9684	
   379	-2.1822	 1.5269	-0.6553	-3.7091	-1.8756	 2.0069	 0.1313	-3.8825	-1.5763	 2.1497	 0.5733	-3.7261	64.5559	99.9600	
   380	-2.0453	 1.3271	-0.7181	-3.3724	-1.6883	 1.8383	 0.1499	-3.5265	-1.3855	 2.0155	 0.6300	-3.4010	64.6951	99.9595	
   381	-1.9377	 1.4698	-0.4680	-3.4075	-1.5879	 1.9930	 0.4051	-3.5808	-1.2515	 2.2154	 0.9639	-3.4671	64.4821	99.9638	
   382	-1.5058	 1.3683	-0.1375	-2.8741	-1.1177	 1.7270	 0.6093	-2.8446	-0.8678	 1.7461	 0.8782	-2.6140	66.0655	99.9525	
   383	-1.7266	 0.8448	-0.8818	-2.5714	-1.3485	 1.2652	-0.0833	-2.6136	-1.1613	 1.4495	 0.2882	-2.6109	65.3974	99.9588	
   384	-1.3155	 1.3726	 0.0571	-2.6881	-1.0123	 1.7236	 0.7113	-2.7358	-0.9081	 1.8050	 0.8969	-2.7131	65.4393	99.9537	
   385	-1.2755	 1.4905	 0.2149	-2.7660	-1.2238	 1.7165	 0.4926	-2.9402	-1.2578	 1.7360	 0.4783	-2.9939	65.1500	99.9573	
   386	-1.7570	 1.3118	-0.4451	-3.0688	-1.7328	 1.5563	-0.1765	-3.2890	-1.7408	 1.5983	-0.1425	-3.3392	64.8699	99.9597	
   387	-1.9863	 1.2059	-0.7804	-3.1922	-1.8560	 1.4952	-0.3607	-3.3511	-1.7363	 1.5653	-0.1710	-3.3017	65.1083	99.9618	
   388	-1.9263	 1.2418	-0.6846	-3.1681	-1.7320	 1.5702	-0.1618	-3.3021	-1.5743	 1.7109	 0.1367	-3.2853	64.9375	99.9645	
   389	-1.8312	 1.1735	-0.6577	-3.0047	-1.7328	 1.4355	-0.2972	-3.1682	-1.6565	 1.5541	-0.1024	-3.2108	64.9709	99.9655	
   390	-2.4420	 1.0426	-1.3994	-3.4847	-2.4217	 1.4484	-0.9733	-3.8700	-2.2986	 1.6888	-0.6098	-3.9875	63.6524	99.9706	
   391	-2.5581	 1.1767	-1.3814	-3.7348	-2.2767	 1.6435	-0.6332	-3.9201	-1.9923	 1.8741	-0.1182	-3.8666	64.2785	99.9664	
   392	-2.1376	 1.0214	-1.1162	-3.1590	-1.8795	 1.4542	-0.4253	-3.3336	-1.6138	 1.5443	-0.0695	-3.1582	65.2124	99.9584	
   393	-2.3736	 0.8019	-1.5717	-3.1755	-1.8041	 1.4192	-0.3848	-3.2232	-1.3777	 1.6872	 0.3095	-3.0650	65.0189	99.9594	
   394	-1.9530	 1.0693	-0.8837	-3.0223	-1.4653	 1.5570	 0.0917	-3.0222	-1.0816	 1.6761	 0.5945	-2.7578	65.7591	99.9561	
   395	-1.5059	 1.0865	-0.4194	-2.5924	-1.1710	 1.4128	 0.2418	-2.5838	-1.0350	 1.5022	 0.4673	-2.5373	65.7956	99.9559	
   396	-1.4478	 1.0899	-0.3579	-2.5378	-1.2042	 1.3256	 0.1214	-2.5298	-1.0477	 1.4945	 0.4468	-2.5423	65.7047	99.9693	
   397	-1.4697	 0.9986	-0.4712	-2.4683	-1.2488	 1.4060	 0.1572	-2.6548	-0.9444	 1.5808	 0.6365	-2.5253	65.3987	99.9683	
   398	-1.3279	 1.1617	-0.1662	-2.4896	-1.0050	 1.6072	 0.6023	-2.6121	-0.6560	 1.7791	 1.1232	-2.4352	65.5386	99.9655	
   399	-1.1490	 1.2531	 0.1041	-2.4022	-0.8639	 1.6120	 0.7481	-2.4758	-0.5985	 1.6950	 1.0965	-2.2936	65.9326	99.9613	
   400	-1.4069	 1.0831	-0.3238	-2.4900	-1.2626	 1.4111	 0.1485	-2.6737	-1.1007	 1.5457	 0.4450	-2.6465	65.2995	99.9659	
   401	-2.0025	 0.9301	-1.0724	-2.9326	-1.8737	 1.3100	-0.5638	-3.1836	-1.6559	 1.4475	-0.2084	-3.1035	64.9802	99.9661	
   402	-2.3888	 0.9650	-1.4238	-3.3537	-2.1955	 1.3436	-0.8520	-3.5390	-1.9367	 1.5154	-0.4213	-3.4522	64.8470	99.9681	
   403	-2.7417	 1.0041	-1.7376	-3.7459	-2.4931	 1.4321	-1.0609	-3.9251	-2.1665	 1.6142	-0.5523	-3.7807	64.6722	99.9675	
   404	-3.0967	 0.7291	-2.3676	-3.8257	-2.9177	 1.1484	-1.7692	-4.0660	-2.6903	 1.2852	-1.4050	-3.9756	64.5139	99.9626	
   405	-3.8997	 0.2797	-3.6201	-4.1794	-3.6324	 0.8369	-2.7955	-4.4693	-3.3641	 1.0439	-2.3202	-4.4081	63.9677	99.9594	
   406	-4.1014	 0.5033	-3.5981	-4.6047	-3.7744	 1.0598	-2.7145	-4.8341	-3.4535	 1.2276	-2.2259	-4.6813	64.0650	99.9571	
   407	-3.5581	 0.7503	-2.8078	-4.3083	-3.3481	 1.2505	-2.0976	-4.5986	-3.1632	 1.3439	-1.8193	-4.5072	64.0506	99.9521	
   408	-3.4287	 0.8434	-2.5853	-4.2720	-3.2736	 1.3225	-1.9511	-4.5960	-3.1409	 1.4169	-1.7240	-4.5578	63.8611	99.9527	
   409	-3.3887	 0.9612	-2.4275	-4.3499	-3.2169	 1.4507	-1.7661	-4.6675	-2.9827	 1.6077	-1.3749	-4.5905	63.7895	99.9610	
   410	-3.2050	 1.1338	-2.0713	-4.3388	-2.8725	 1.6859	-1.1866	-4.5583	-2.4799	 1.8882	-0.5917	-4.3682	64.1023	99.9632	
   411	-2.9986	 1.1321	-1.8665	-4.1307	-2.6480	 1.6740	-0.9739	-4.3219	-2.3337	 1.8459	-0.4879	-4.1797	64.2332	99.9578	
   412	-3.2098	 0.9118	-2.2981	-4.1216	-2.8140	 1.4796	-1.3345	-4.2936	-2.5271	 1.6932	-0.8338	-4.2204	64.0970	99.9568	
   413	-3.4391	 0.8058	-2.6333	-4.2449	-3.0669	 1.3669	-1.7000	-4.4337	-2.7931	 1.5679	-1.2253	-4.3611	64.0413	99.9562	
   414	-3.5857	 0.8433	-2.7423	-4.4290	-3.1909	 1.4127	-1.7782	-4.6036	-2.8774	 1.6120	-1.2654	-4.4895	64.0444	99.9567	
   415	-3.4905	 0.9159	-2.5746	-4.4064	-3.1172	 1.4708	-1.6464	-4.5879	-2.8078	 1.6422	-1.1656	-4.4501	64.1326	99.9559	
   416	-3.3126	 0.9911	-2.3214	-4.3037	-2.8805	 1.5468	-1.3338	-4.4272	-2.5443	 1.7185	-0.8258	-4.2629	64.3677	99.9554	
   417	-3.1603	 1.0510	-2.1094	-4.2113	-2.7355	 1.6211	-1.1144	-4.3565	-2.3797	 1.7943	-0.5854	-4.1741	64.3731	99.9559	
   418	-3.0595	 1.0800	-1.9795	-4.1395	-2.5847	 1.6720	-0.9128	-4.2566	-2.1953	 1.8940	-0.3013	-4.0894	64.3408	99.9584	
   419	-2.8854	 1.0903	-1.7951	-3.9757	-2.4218	 1.6900	-0.7319	-4.1117	-2.0460	 1.9130	-0.1329	-3.9591	64.3428	99.9579	
   420	-2.8388	 1.0400	-1.7988	-3.8787	-2.3756	 1.6374	-0.7382	-4.0129	-1.9681	 1.8650	-0.1031	-3.8332	64.4778	99.9598	
   421	-2.7103	 0.9760	-1.7344	-3.6863	-2.2734	 1.5783	-0.6951	-3.8517	-1.8845	 1.8086	-0.0758	-3.6932	64.4765	99.9597	
   422	-2.7046	 0.9324	-1.7722	-3.6371	-2.2832	 1.5322	-0.7510	-3.8153	-1.8927	 1.7679	-0.1248	-3.6608	64.4753	99.9607	
   423	-2.7218	 0.9222	-1.7996	-3.6439	-2.3107	 1.5424	-0.7683	-3.8530	-1.9151	 1.8139	-0.1012	-3.7291	64.2565	99.9627	
   424	-2.7208	 0.9384	-1.7824	-3.6592	-2.3318	 1.5431	-0.7887	-3.8748	-1.9655	 1.7952	-0.1703	-3.7608	64.2509	99.9616	
   425	-2.7094	 0.9922	-1.7172	-3.7016	-2.2702	 1.6340	-0.6362	-3.9041	-1.8354	 1.9216	 0.0862	-3.7570	64.2210	99.9636	
   426	-2.5058	 1.0828	-1.4230	-3.5885	-2.0336	 1.7100	-0.3236	-3.7435	-1.6286	 1.9753	 0.3467	-3.6041	64.3999	99.9607	
   427	-2.4525	 1.0051	-1.4474	-3.4576	-1.9744	 1.6384	-0.3360	-3.6127	-1.5584	 1.8989	 0.3405	-3.4574	64.5327	99.9604	
   428	-2.4402	 0.9342	-1.5059	-3.3744	-1.9355	 1.5814	-0.3540	-3.5168	-1.4933	 1.8432	 0.3499	-3.3366	64.6676	99.9601	
   429	-2.3926	 0.9001	-1.4925	-3.2927	-1.8957	 1.5383	-0.3574	-3.4340	-1.4460	 1.8004	 0.3544	-3.2466	64.7551	99.9612	
   430	-2.3260	 0.9086	-1.4174	-3.2346	-1.7831	 1.5393	-0.2437	-3.3223	-1.3037	 1.8033	 0.4996	-3.1072	64.9783	99.9616	
   431	-2.1614	 0.8976	-1.2638	-3.0590	-1.6226	 1.5156	-0.1070	-3.1381	-1.1818	 1.7701	 0.5883	-2.9520	65.0647	99.9601	
   432	-2.1310	 0.8532	-1.2778	-2.9842	-1.6323	 1.4695	-0.1628	-3.1016	-1.2035	 1.7094	 0.5059	-2.9130	65.0618	99.9598	
   433	-2.1823	 0.8224	-1.3599	-3.0048	-1.6979	 1.4298	-0.2681	-3.1276	-1.2616	 1.6624	 0.4008	-2.9240	65.1039	99.9605	
   434	-2.2166	 0.8019	-1.4147	-3.0185	-1.7409	 1.4172	-0.3237	-3.1580	-1.2871	 1.6469	 0.3598	-2.9341	65.1039	99.9608	
   435	-2.1424	 0.7994	-1.3430	-2.9418	-1.6144	 1.4131	-0.2013	-3.0275	-1.1633	 1.6505	 0.4872	-2.8139	65.2382	99.9599	
   436	-2.0349	 0.8011	-1.2337	-2.8360	-1.5090	 1.4097	-0.0993	-2.9187	-1.0707	 1.6470	 0.5763	-2.7179	65.2822	99.9597	
   437	-2.0434	 0.7960	-1.2474	-2.8395	-1.5236	 1.4009	-0.1227	-2.9245	-1.1020	 1.6400	 0.5380	-2.7421	65.2375	99.9594	
   438	-2.0682	 0.7969	-1.2713	-2.8650	-1.5658	 1.4023	-0.1635	-2.9680	-1.1326	 1.6453	 0.5126	-2.7780	65.1934	99.9607	
   439	-2.0939	 0.7815	-1.3124	-2.8753	-1.5941	 1.3985	-0.1956	-2.9926	-1.1397	 1.6291	 0.4895	-2.7689	65.2375	99.9602	
   440	-2.0282	 0.7738	-1.2544	-2.8020	-1.4961	 1.3907	-0.1053	-2.8867	-1.0465	 1.6379	 0.5914	-2.6845	65.2832	99.9603	
   441	-1.9959	 0.7619	-1.2340	-2.7578	-1.4831	 1.3717	-0.1113	-2.8547	-1.0663	 1.6141	 0.5478	-2.6804	65.2375	99.9594	
   442	-2.0882	 0.7379	-1.3502	-2.8261	-1.5682	 1.3605	-0.2076	-2.9287	-1.1282	 1.6123	 0.4841	-2.7405	65.1945	99.9602	
   443	-2.0530	 0.7747	-1.2783	-2.8276	-1.5317	 1.3826	-0.1491	-2.9142	-1.0905	 1.6232	 0.5327	-2.7138	65.2819	99.9602	
   444	-2.0387	 0.7362	-1.3025	-2.7749	-1.5479	 1.3460	-0.2020	-2.8938	-1.0809	 1.5695	 0.4886	-2.6505	65.3687	99.9609	
   445	-1.9826	 0.7072	-1.2753	-2.6898	-1.4717	 1.3249	-0.1468	-2.7966	-1.0139	 1.5506	 0.5367	-2.5646	65.4133	99.9597	
   446	-2.0473	 0.7311	-1.3162	-2.7784	-1.4587	 1.3059	-0.1528	-2.7646	-1.0158	 1.5138	 0.4980	-2.5297	65.7193	99.9576	
   447	-2.0511	 0.8071	-1.2440	-2.8582	-1.5236	 1.4009	-0.1227	-2.9245	-1.1045	 1.5909	 0.4864	-2.6955	65.4550	99.9561	
   448	-2.2261	 0.7806	-1.4455	-3.0067	-1.7116	 1.3141	-0.3976	-3.0256	-1.3215	 1.4596	 0.1381	-2.7812	65.6703	99.9549	
   449	-2.3079	 0.7942	-1.5137	-3.1021	-1.7408	 1.2964	-0.4444	-3.0371	-1.3042	 1.4344	 0.1301	-2.7387	65.9794	99.9564	
   450	-2.1804	 0.8549	-1.3256	-3.0353	-1.5982	 1.3290	-0.2692	-2.9271	-1.1804	 1.4380	 0.2575	-2.6185	66.1994	99.9544	
   451	-1.9445	 0.7926	-1.1519	-2.7371	-1.4344	 1.2401	-0.1943	-2.6744	-1.0553	 1.3472	 0.2919	-2.4026	66.2433	99.9563	
   452	-1.8379	 0.7781	-1.0598	-2.6161	-1.3631	 1.2564	-0.1067	-2.6194	-0.9213	 1.4283	 0.5069	-2.3497	66.0237	99.9631	
   453	-1.4697	 0.9986	-0.4712	-2.4683	-1.0025	 1.5282	 0.5257	-2.5306	-0.6062	 1.6666	 1.0604	-2.2728	65.8495	99.9568	
   454	-1.6172	 1.0199	-0.5973	-2.6370	-1.0998	 1.5499	 0.4501	-2.6496	-0.7345	 1.9338	 1.1992	-2.6684	64.8948	99.9703	
   455	-1.0616	 0.9142	-0.1474	-1.9757	-0.8622	 1.2774	 0.4153	-2.1395	-0.5984	 1.3383	 0.7399	-1.9368	66.1538	99.9619	
   456	-1.6086	 0.8841	-0.7245	-2.4927	-1.2594	 1.3460	 0.0866	-2.6052	-0.9532	 1.4090	 0.4557	-2.3623	65.9324	99.9541	
   457	-1.7532	 0.9541	-0.7992	-2.7073	-1.3420	 1.3765	 0.0345	-2.7185	-1.0011	 1.4395	 0.4383	-2.4407	66.1545	99.9558	
   458	-1.7713	 0.9276	-0.8437	-2.6989	-1.3996	 1.3551	-0.0445	-2.7546	-1.0764	 1.4177	 0.3413	-2.4942	66.0210	99.9559	
   459	-1.7884	 0.9173	-0.8711	-2.7058	-1.4207	 1.3558	-0.0649	-2.7764	-1.0955	 1.4061	 0.3105	-2.5017	66.0209	99.9546	
   460	-1.8627	 0.9199	-0.9428	-2.7825	-1.4831	 1.3717	-0.1113	-2.8547	-1.1696	 1.4088	 0.2393	-2.5785	65.9763	99.9519	
   461	-1.9454	 0.9173	-1.0281	-2.8627	-1.5682	 1.3605	-0.2076	-2.9287	-1.2691	 1.3962	 0.1270	-2.6654	65.9312	99.9516	
   462	-2.0701	 0.9053	-1.1648	-2.9754	-1.6946	 1.3646	-0.3300	-3.0592	-1.3872	 1.3842	-0.0030	-2.7715	65.8863	99.9498	
   463	-2.1776	 0.9036	-1.2740	-3.0811	-1.7797	 1.3534	-0.4263	-3.1331	-1.4612	 1.3869	-0.0743	-2.8482	65.8864	99.9512	
   464	-2.1776	 0.9036	-1.2740	-3.0811	-1.7862	 1.3629	-0.4233	-3.1491	-1.4555	 1.3785	-0.0769	-2.8341	65.9310	99.9500	
   465	-2.2280	 0.8890	-1.3390	-3.1170	-1.8292	 1.3504	-0.4788	-3.1795	-1.5295	 1.3813	-0.1482	-2.9109	65.7968	99.9494	
   466	-2.3184	 0.8975	-1.4209	-3.2159	-1.9192	 1.3765	-0.5427	-3.2956	-1.6271	 1.4054	-0.2217	-3.0327	65.6625	99.9478	
   467	-2.3916	 0.9163	-1.4753	-3.3079	-1.9962	 1.3836	-0.6126	-3.3797	-1.6890	 1.4036	-0.2854	-3.0928	65.7067	99.9485	
   468	-2.4563	 0.9402	-1.5161	-3.3965	-2.0448	 1.3945	-0.6503	-3.4392	-1.7248	 1.4296	-0.2952	-3.1545	65.7071	99.9505	
   469	-2.3650	 0.9479	-1.4171	-3.3129	-1.9800	 1.4202	-0.5597	-3.4001	-1.6565	 1.4352	-0.2213	-3.0918	65.7071	99.9490	
   470	-2.4059	 0.9547	-1.4512	-3.3606	-2.0075	 1.4304	-0.5771	-3.4379	-1.7114	 1.4496	-0.2618	-3.1611	65.6174	99.9473	
   471	-2.4963	 0.9632	-1.5331	-3.4595	-2.1056	 1.4382	-0.6674	-3.5438	-1.7976	 1.4569	-0.3407	-3.2545	65.5722	99.9482	
   472	-2.5629	 0.9547	-1.6082	-3.5175	-2.1761	 1.4358	-0.7403	-3.6119	-1.8837	 1.4642	-0.4195	-3.3480	65.4372	99.9479	
   473	-2.6200	 0.9674	-1.6525	-3.5874	-2.2321	 1.4423	-0.7898	-3.6743	-1.9265	 1.4740	-0.4525	-3.4006	65.4372	99.9491	
   474	-2.5762	 1.0093	-1.5669	-3.5855	-2.1729	 1.4915	-0.6814	-3.6643	-1.8505	 1.5081	-0.3425	-3.3587	65.5280	99.9478	
   475	-2.5267	 1.0076	-1.5191	-3.5343	-2.1381	 1.4857	-0.6523	-3.6237	-1.8505	 1.5081	-0.3425	-3.3587	65.4375	99.9473	
   476	-2.5828	 1.0366	-1.5462	-3.6195	-2.2005	 1.5017	-0.6988	-3.7021	-1.9118	 1.5186	-0.3932	-3.4305	65.4366	99.9479	
   477	-2.6751	 1.0127	-1.6624	-3.6878	-2.3131	 1.5006	-0.8125	-3.8137	-2.0350	 1.5273	-0.5077	-3.5623	65.2113	99.9475	
   478	-2.7579	 1.0101	-1.7478	-3.7680	-2.3974	 1.5034	-0.8941	-3.9007	-2.1147	 1.5384	-0.5763	-3.6533	65.1212	99.9481	
   479	-2.7883	 1.0545	-1.7339	-3.8428	-2.4023	 1.5407	-0.8616	-3.9429	-2.0822	 1.5700	-0.5122	-3.6523	65.2579	99.9490	
   480	-2.6551	 1.0716	-1.5835	-3.7268	-2.2751	 1.5505	-0.7245	-3.8255	-1.9890	 1.5788	-0.4102	-3.5680	65.2575	99.9479	
   481	-2.6628	 1.0827	-1.5800	-3.7455	-2.3091	 1.5702	-0.7389	-3.8792	-2.0254	 1.5925	-0.4329	-3.6180	65.1668	99.9477	
   482	-2.7370	 1.0852	-1.6517	-3.8222	-2.3869	 1.5634	-0.8235	-3.9503	-2.1122	 1.5875	-0.5247	-3.6998	65.1204	99.9481	
   483	-2.8112	 1.0878	-1.7234	-3.8990	-2.4704	 1.5800	-0.8904	-4.0504	-2.1977	 1.6071	-0.5906	-3.8050	64.9848	99.9477	
   484	-2.8768	 1.0954	-1.7814	-3.9723	-2.5474	 1.5872	-0.9603	-4.1345	-2.2469	 1.6131	-0.6338	-3.8600	64.9848	99.9493	
   485	-2.8426	 1.1160	-1.7266	-3.9585	-2.4761	 1.6034	-0.8727	-4.0795	-2.1716	 1.6348	-0.5367	-3.8065	65.0772	99.9490	
   486	-2.7341	 1.1339	-1.6002	-3.8680	-2.3837	 1.6191	-0.7646	-4.0027	-2.0969	 1.6444	-0.4526	-3.7414	65.0768	99.9484	
   487	-2.7674	 1.1296	-1.6378	-3.8970	-2.4461	 1.6350	-0.8111	-4.0810	-2.1703	 1.6594	-0.5109	-3.8298	64.8955	99.9476	
   488	-2.8578	 1.1381	-1.7196	-3.9959	-2.5304	 1.6377	-0.8927	-4.1681	-2.2443	 1.6622	-0.5822	-3.9066	64.8950	99.9482	
   489	-2.9320	 1.1407	-1.7913	-4.0727	-2.5944	 1.6258	-0.9686	-4.2202	-2.3184	 1.6649	-0.6534	-3.9834	64.8491	99.9493	
   490	-2.9976	 1.1483	-1.8493	-4.1460	-2.6431	 1.6367	-1.0064	-4.2797	-2.3669	 1.6831	-0.6837	-4.0501	64.8047	99.9491	
   491	-2.9130	 1.1834	-1.7296	-4.0963	-2.5353	 1.6750	-0.8603	-4.2103	-2.2418	 1.7113	-0.5305	-3.9532	64.9427	99.9482	
   492	-2.8302	 1.1860	-1.6442	-4.0162	-2.4859	 1.6781	-0.8078	-4.1639	-2.2290	 1.7190	-0.5101	-3.9481	64.8057	99.9479	
   493	-2.8882	 1.1825	-1.7057	-4.0708	-2.5564	 1.6757	-0.8807	-4.2320	-2.2973	 1.7133	-0.5840	-4.0108	64.7592	99.9481	
   494	-2.9786	 1.1910	-1.7875	-4.1696	-2.6472	 1.6879	-0.9592	-4.3350	-2.3650	 1.7200	-0.6450	-4.0850	64.7592	99.9485	
   495	-3.0366	 1.1876	-1.8490	-4.2242	-2.7169	 1.6995	-1.0174	-4.4162	-2.4384	 1.7350	-0.7034	-4.1735	64.6233	99.9482	
   496	-3.0766	 1.2107	-1.8659	-4.2872	-2.7234	 1.7090	-1.0144	-4.4322	-2.4250	 1.7550	-0.6700	-4.1801	64.7160	99.9496	
   497	-2.9348	 1.2329	-1.7019	-4.1677	-2.5880	 1.7371	-0.8509	-4.3250	-2.3127	 1.7754	-0.5373	-4.0882	64.7165	99.9478	
   498	-2.9263	 1.2380	-1.6882	-4.1643	-2.6018	 1.7422	-0.8596	-4.3439	-2.3254	 1.7677	-0.5577	-4.0932	64.7148	99.9476	
   499	-2.9929	 1.2295	-1.7634	-4.2223	-2.6723	 1.7398	-0.9325	-4.4121	-2.4173	 1.7834	-0.6339	-4.2008	64.5333	99.9478	
   500	-3.0671	 1.2320	-1.8351	-4.2991	-2.7493	 1.7470	-1.0024	-4.4962	-2.4850	 1.7900	-0.6949	-4.2751	64.4877	99.9480	
   501	-3.1403	 1.2508	-1.8896	-4.3911	-2.8052	 1.7534	-1.0518	-4.5586	-2.5462	 1.8005	-0.7457	-4.3469	64.4871	99.9481	
   502	-3.1061	 1.2713	-1.8348	-4.3773	-2.7477	 1.7748	-0.9729	-4.5224	-2.4582	 1.8300	-0.6281	-4.2883	64.5819	99.9495	
   503	-2.9814	 1.2833	-1.6982	-4.2647	-2.6415	 1.7853	-0.8562	-4.4267	-2.3842	 1.8273	-0.5569	-4.2115	64.5801	99.9476	
   504	-2.9986	 1.2730	-1.7255	-4.2716	-2.6975	 1.7917	-0.9057	-4.4891	-2.4276	 1.8248	-0.6028	-4.2524	64.4884	99.9478	
   505	-3.0728	 1.2756	-1.7972	-4.3483	-2.7607	 1.7938	-0.9669	-4.5544	-2.5131	 1.8444	-0.6687	-4.3576	64.3522	99.9478	
   506	-3.1622	 1.3003	-1.8619	-4.4625	-2.8442	 1.8104	-1.0338	-4.6545	-2.5807	 1.8510	-0.7297	-4.4318	64.3965	99.9480	
   507	-3.1955	 1.2960	-1.8995	-4.4915	-2.8790	 1.8162	-1.0629	-4.6951	-2.6107	 1.8685	-0.7422	-4.4793	64.3072	99.9486	
   508	-3.0946	 1.3251	-1.7696	-4.4197	-2.7583	 1.8355	-0.9227	-4.5937	-2.4799	 1.8882	-0.5917	-4.3682	64.4460	99.9491	
   509	-3.0376	 1.3123	-1.7253	-4.3498	-2.7299	 1.8392	-0.8906	-4.5691	-2.4678	 1.8837	-0.5841	-4.3516	64.3542	99.9477	
   510	-3.1203	 1.3097	-1.8106	-4.4300	-2.8077	 1.8325	-0.9752	-4.6401	-2.5546	 1.8787	-0.6758	-4.4334	64.3072	99.9474	
   511	-3.2117	 1.3020	-1.9097	-4.5136	-2.8920	 1.8352	-1.0568	-4.7271	-2.6407	 1.8860	-0.7547	-4.5269	64.2165	99.9468	
   512	-3.2697	 1.2985	-1.9712	-4.5682	-2.9552	 1.8372	-1.1180	-4.7923	-2.6841	 1.8836	-0.8005	-4.5678	64.2165	99.9473	
   513	-3.2773	 1.3096	-1.9677	-4.5870	-2.9471	 1.8555	-1.0916	-4.8026	-2.6452	 1.9190	-0.7262	-4.5643	64.2216	99.9492	
   514	-3.1270	 1.3370	-1.7900	-4.4640	-2.8053	 1.8742	-0.9311	-4.6794	-2.5335	 1.9271	-0.6064	-4.4608	64.2658	99.9478	
   515	-3.1279	 1.3208	-1.8072	-4.4487	-2.8337	 1.8705	-0.9632	-4.7040	-2.5827	 1.9331	-0.6496	-4.5158	64.0831	99.9478	
   516	-3.2269	 1.3242	-1.9027	-4.5511	-2.9042	 1.8681	-1.0361	-4.7722	-2.6567	 1.9358	-0.7209	-4.5926	64.0831	99.9473	
   517	-3.2849	 1.3207	-1.9642	-4.6057	-2.9739	 1.8796	-1.0943	-4.8534	-2.7237	 1.9547	-0.7690	-4.6785	63.9474	99.9476	
   518	-3.3601	 1.3071	-2.0530	-4.6671	-3.0306	 1.8721	-1.1585	-4.9027	-2.7792	 1.9568	-0.8224	-4.7361	63.9033	99.9474	
   519	-3.3001	 1.3429	-1.9572	-4.6431	-2.9512	 1.9068	-1.0444	-4.8579	-2.6663	 1.9895	-0.6768	-4.6559	64.0444	99.9483	
   520	-3.2240	 1.3728	-1.8512	-4.5969	-2.8937	 1.9281	-0.9655	-4.8217	-2.6229	 1.9920	-0.6309	-4.6150	64.0870	99.9473	
   521	-3.2316	 1.3839	-1.8477	-4.6156	-2.9212	 1.9383	-0.9829	-4.8595	-2.6720	 1.9979	-0.6741	-4.6700	63.9932	99.9466	
   522	-3.2887	 1.3967	-1.8920	-4.6854	-2.9780	 1.9308	-1.0471	-4.9087	-2.7397	 2.0045	-0.7351	-4.7443	63.9457	99.9483	
   523	-3.3401	 1.3660	-1.9741	-4.7061	-3.0558	 1.9241	-1.1317	-4.9797	-2.8201	 2.0034	-0.8167	-4.8236	63.7631	99.9481	
   524	-3.4400	 1.3531	-2.0869	-4.7931	-3.1198	 1.9122	-1.2076	-5.0319	-2.8514	 1.9964	-0.8550	-4.8479	63.8574	99.9488	
   525	-3.3487	 1.3608	-1.9878	-4.7095	-3.0274	 1.9278	-1.0996	-4.9551	-2.7397	 2.0045	-0.7351	-4.7443	63.9515	99.9487	
   526	-3.3068	 1.3703	-1.9365	-4.6770	-3.0063	 1.9271	-1.0792	-4.9334	-2.7454	 2.0129	-0.7325	-4.7585	63.8583	99.9494	
   527	-3.3487	 1.3608	-1.9878	-4.7095	-3.0631	 1.9196	-1.1434	-4.9826	-2.8016	 2.0027	-0.7988	-4.8044	63.8107	99.9496	
   528	-3.4057	 1.3736	-2.0321	-4.7794	-3.1117	 1.9305	-1.1812	-5.0421	-2.8507	 2.0087	-0.8420	-4.8595	63.8098	99.9490	
   529	-3.4381	 1.3856	-2.0525	-4.8237	-3.1530	 1.9458	-1.2073	-5.0987	-2.9056	 2.0230	-0.8826	-4.9287	63.7171	99.9483	
   530	-3.4295	 1.3907	-2.0388	-4.8202	-3.1312	 1.9590	-1.1722	-5.0901	-2.8609	 2.0501	-0.8109	-4.9111	63.7226	99.9497	
   531	-3.2878	 1.4130	-1.8748	-4.7007	-2.9966	 1.9733	-1.0234	-4.9698	-2.7371	 2.0536	-0.6835	-4.7909	63.8134	99.9491	
   532	-3.2716	 1.4070	-1.8646	-4.6786	-3.0039	 1.9688	-1.0351	-4.9727	-2.7684	 2.0466	-0.7218	-4.8151	63.7189	99.9484	
   533	-3.3296	 1.4035	-1.9261	-4.7332	-3.0534	 1.9658	-1.0876	-5.0191	-2.8182	 2.0403	-0.7779	-4.8585	63.7180	99.9478	
   534	-3.3791	 1.4052	-1.9739	-4.7843	-3.1020	 1.9766	-1.1253	-5.0786	-2.8667	 2.0585	-0.8082	-4.9253	63.6279	99.9478	
   535	-3.4200	 1.4121	-2.0079	-4.8321	-3.1368	 1.9824	-1.1544	-5.1192	-2.8967	 2.0760	-0.8207	-4.9728	63.5839	99.9488	
   536	-3.3191	 1.4411	-1.8780	-4.7603	-3.0161	 2.0018	-1.0143	-5.0178	-2.7601	 2.0873	-0.6728	-4.8475	63.7693	99.9489	
   537	-3.2040	 1.4318	-1.7723	-4.6358	-2.9318	 1.9990	-0.9327	-4.9307	-2.7110	 2.0814	-0.6296	-4.7924	63.6757	99.9476	
   538	-3.2459	 1.4224	-1.8235	-4.6683	-2.9674	 1.9909	-0.9765	-4.9583	-2.7665	 2.0834	-0.6831	-4.8500	63.5839	99.9472	
   539	-3.3039	 1.4189	-1.8850	-4.7229	-3.0307	 1.9929	-1.0377	-5.0235	-2.8163	 2.0771	-0.7392	-4.8935	63.5829	99.9470	
   540	-3.3534	 1.4206	-1.9328	-4.7740	-3.0939	 1.9950	-1.0989	-5.0888	-2.8776	 2.0876	-0.7900	-4.9652	63.4908	99.9482	
   541	-3.3686	 1.4428	-1.9258	-4.8114	-3.0647	 2.0126	-1.0521	-5.0773	-2.8029	 2.0971	-0.7058	-4.9001	63.7244	99.9485	
   542	-3.1783	 1.4471	-1.7312	-4.6255	-2.9091	 2.0262	-0.8829	-4.9352	-2.6670	 2.0961	-0.5708	-4.7632	63.7235	99.9471	
   543	-3.1622	 1.4412	-1.7210	-4.6033	-2.9026	 2.0167	-0.8859	-4.9192	-2.7040	 2.0975	-0.6065	-4.8016	63.5839	99.9464	
   544	-3.2288	 1.4326	-1.7962	-4.6614	-2.9796	 2.0238	-0.9558	-5.0033	-2.7716	 2.1041	-0.6675	-4.8758	63.4928	99.9462	
   545	-3.2782	 1.4343	-1.8439	-4.7125	-3.0226	 2.0113	-1.0113	-5.0337	-2.8214	 2.0978	-0.7236	-4.9193	63.4908	99.9470	
   546	-3.3201	 1.4249	-1.8952	-4.7450	-3.0655	 1.9987	-1.0668	-5.0641	-2.8584	 2.0992	-0.7593	-4.9577	63.4458	99.9486	
   547	-3.2525	 1.4497	-1.8029	-4.7022	-2.9650	 2.0326	-0.9324	-4.9976	-2.7155	 2.1143	-0.6011	-4.8299	63.6804	99.9476	
   548	-3.1203	 1.4506	-1.6697	-4.5709	-2.8532	 2.0197	-0.8334	-4.8728	-2.6599	 2.1122	-0.5477	-4.7723	63.5858	99.9472	
   549	-3.1374	 1.4403	-1.6971	-4.5778	-2.9026	 2.0167	-0.8859	-4.9192	-2.7040	 2.0975	-0.6065	-4.8016	63.5369	99.9472	
   550	-3.2288	 1.4326	-1.7962	-4.6614	-2.9812	 1.9960	-0.9852	-4.9771	-2.7908	 2.0925	-0.6982	-4.8834	63.4898	99.9483	
   551	-3.2792	 1.4181	-1.8611	-4.6973	-3.0307	 1.9929	-1.0377	-5.0235	-2.8342	 2.0901	-0.7441	-4.9243	63.4448	99.9480	
   552	-3.2954	 1.4241	-1.8713	-4.7194	-3.0380	 1.9885	-1.0494	-5.0264	-2.8278	 2.0939	-0.7339	-4.9218	63.4918	99.9496	
   553	-3.1707	 1.4360	-1.7347	-4.6068	-2.9107	 1.9984	-0.9123	-4.9090	-2.6797	 2.0884	-0.5913	-4.7682	63.6767	99.9495	
   554	-3.1146	 1.4070	-1.7076	-4.5216	-2.8759	 1.9926	-0.8833	-4.8684	-2.6612	 2.0877	-0.5735	-4.7490	63.5408	99.9485	
   555	-3.1641	 1.4087	-1.7554	-4.5728	-2.9180	 1.9940	-0.9240	-4.9119	-2.7225	 2.0982	-0.6243	-4.8208	63.4488	99.9480	
   556	-3.1802	 1.4147	-1.7656	-4.5949	-2.9391	 1.9946	-0.9444	-4.9336	-2.7295	 2.0820	-0.6474	-4.8116	63.5379	99.9478	
   557	-3.2059	 1.3993	-1.8066	-4.6053	-2.9820	 1.9821	-1.0000	-4.9640	-2.7850	 2.0841	-0.7009	-4.8692	63.3997	99.9488	
   558	-3.2383	 1.4113	-1.8270	-4.6495	-2.9804	 2.0099	-0.9705	-4.9902	-2.7404	 2.1112	-0.6292	-4.8516	63.4987	99.9488	
   559	-3.0880	 1.4386	-1.6493	-4.5266	-2.8321	 2.0191	-0.8130	-4.8511	-2.6165	 2.1147	-0.5018	-4.7314	63.5886	99.9483	
   560	-3.0480	 1.4156	-1.6324	-4.4636	-2.8118	 2.0045	-0.8073	-4.8162	-2.6236	 2.0986	-0.5250	-4.7223	63.4948	99.9471	
   561	-3.1222	 1.4181	-1.7041	-4.5403	-2.8888	 2.0116	-0.8772	-4.9004	-2.6912	 2.1052	-0.5860	-4.7965	63.4488	99.9473	
   562	-3.1717	 1.4198	-1.7519	-4.5915	-2.9245	 2.0035	-0.9210	-4.9279	-2.7225	 2.0982	-0.6243	-4.8208	63.4938	99.9476	
   563	-3.1888	 1.4096	-1.7792	-4.5984	-2.9593	 2.0092	-0.9501	-4.9685	-2.7589	 2.1118	-0.6470	-4.8708	63.3577	99.9479	
   564	-3.1127	 1.4395	-1.6732	-4.5522	-2.8524	 2.0337	-0.8187	-4.8859	-2.6223	 2.1231	-0.4992	-4.7455	63.5905	99.9476	
   565	-2.9966	 1.4464	-1.5503	-4.4430	-2.7608	 2.0354	-0.7254	-4.7960	-2.5789	 2.1256	-0.4533	-4.7046	63.4958	99.9465	
   566	-3.0299	 1.4421	-1.5879	-4.4720	-2.7964	 2.0272	-0.7692	-4.8236	-2.6287	 2.1193	-0.5094	-4.7481	63.4478	99.9462	
   567	-3.0880	 1.4386	-1.6493	-4.5266	-2.8467	 2.0102	-0.8364	-4.8568	-2.6785	 2.1129	-0.5655	-4.7915	63.4468	99.9475	
   568	-3.1308	 1.4130	-1.7178	-4.5438	-2.9034	 2.0028	-0.9006	-4.9061	-2.7340	 2.1150	-0.6190	-4.8491	63.3106	99.9478	
   569	-3.1717	 1.4198	-1.7519	-4.5915	-2.9375	 2.0225	-0.9150	-4.9598	-2.7333	 2.1273	-0.6061	-4.8607	63.3598	99.9479	
   570	-3.0290	 1.4583	-1.5707	-4.4873	-2.7754	 2.0265	-0.7488	-4.8018	-2.5910	 2.1302	-0.4609	-4.7213	63.5417	99.9482	
   571	-2.9805	 1.4404	-1.5401	-4.4208	-2.7616	 2.0214	-0.7401	-4.7829	-2.5917	 2.1179	-0.4738	-4.7097	63.4478	99.9474	
   572	-3.0471	 1.4318	-1.6152	-4.4789	-2.8256	 2.0096	-0.8160	-4.8351	-2.6478	 2.1077	-0.5401	-4.7556	63.4468	99.9480	
   573	-3.1051	 1.4284	-1.6767	-4.5335	-2.8888	 2.0116	-0.8772	-4.9004	-2.7155	 2.1143	-0.6011	-4.8299	63.3546	99.9480	
   574	-3.1308	 1.4130	-1.7178	-4.5438	-2.9245	 2.0035	-0.9210	-4.9279	-2.7531	 2.1034	-0.6497	-4.8566	63.3074	99.9476	
   575	-3.1470	 1.4190	-1.7280	-4.5659	-2.9172	 2.0079	-0.9093	-4.9250	-2.7091	 2.1182	-0.5909	-4.8274	63.4048	99.9495	
   576	-2.9890	 1.4353	-1.5538	-4.4243	-2.7551	 2.0119	-0.7431	-4.7670	-2.5853	 2.1218	-0.4635	-4.7071	63.4498	99.9482	
   577	-2.9652	 1.4182	-1.5470	-4.3834	-2.7486	 2.0024	-0.7462	-4.7510	-2.5923	 2.1056	-0.4867	-4.6980	63.4017	99.9472	
   578	-3.0318	 1.4096	-1.6222	-4.4415	-2.8191	 2.0001	-0.8190	-4.8191	-2.6421	 2.0993	-0.5428	-4.7415	63.4017	99.9476	
   579	-3.0899	 1.4062	-1.6837	-4.4961	-2.8759	 1.9926	-0.8833	-4.8684	-2.6976	 2.1014	-0.5962	-4.7990	63.3557	99.9486	
   580	-3.1232	 1.4019	-1.7213	-4.5251	-2.9180	 1.9940	-0.9240	-4.9119	-2.7410	 2.0989	-0.6421	-4.8400	63.3085	99.9482	
   581	-3.0804	 1.4275	-1.6528	-4.5079	-2.8394	 2.0147	-0.8247	-4.8540	-2.6287	 2.1193	-0.5094	-4.7481	63.4978	99.9490	
   582	-2.8977	 1.4430	-1.4547	-4.3406	-2.6773	 2.0187	-0.6585	-4.6959	-2.5234	 2.1235	-0.3998	-4.6470	63.4488	99.9476	
   583	-2.9062	 1.4378	-1.4684	-4.3441	-2.6984	 2.0194	-0.6789	-4.7177	-2.5489	 2.1081	-0.4408	-4.6571	63.4458	99.9461	
   584	-2.9814	 1.4242	-1.5573	-4.4056	-2.7697	 2.0031	-0.7666	-4.7727	-2.6114	 2.0940	-0.5174	-4.7056	63.4448	99.9467	
   585	-3.0404	 1.4045	-1.6359	-4.4449	-2.8272	 1.9817	-0.8455	-4.8089	-2.6733	 2.0922	-0.5811	-4.7657	63.3536	99.9481	
   586	-3.0823	 1.3951	-1.6872	-4.4774	-2.8767	 1.9787	-0.8980	-4.8553	-2.6982	 2.0891	-0.6091	-4.7874	63.3546	99.9492	
   587	-2.9900	 1.4190	-1.5709	-4.4090	-2.7559	 1.9980	-0.7579	-4.7538	-2.5610	 2.1127	-0.4484	-4.6738	63.4978	99.9497	
   588	-2.8663	 1.4148	-1.4515	-4.2811	-2.6570	 2.0041	-0.6529	-4.6611	-2.4998	 2.1022	-0.3976	-4.6020	63.4488	99.9468	
   589	-2.9167	 1.4003	-1.5164	-4.3170	-2.7137	 1.9967	-0.7171	-4.7103	-2.5438	 2.0874	-0.4564	-4.6313	63.4478	99.9466	
   590	-2.9748	 1.3968	-1.5779	-4.3716	-2.7705	 1.9892	-0.7813	-4.7596	-2.6057	 2.0856	-0.5201	-4.6914	63.4007	99.9470	
   591	-3.0414	 1.3883	-1.6531	-4.4296	-2.8410	 1.9868	-0.8542	-4.8278	-2.6555	 2.0793	-0.5762	-4.7348	63.4007	99.9474	
   592	-3.0918	 1.3737	-1.7180	-4.4655	-2.8840	 1.9743	-0.9097	-4.8582	-2.6982	 2.0891	-0.6091	-4.7874	63.3116	99.9489	
   593	-2.9738	 1.4131	-1.5607	-4.3869	-2.7486	 2.0024	-0.7462	-4.7510	-2.5489	 2.1081	-0.4408	-4.6571	63.4978	99.9490	
   594	-2.8587	 1.4037	-1.4550	-4.2624	-2.6505	 1.9946	-0.6559	-4.6451	-2.5004	 2.0899	-0.4105	-4.5904	63.4478	99.9462	
   595	-2.9091	 1.3892	-1.5199	-4.2983	-2.7008	 1.9777	-0.7231	-4.6784	-2.5623	 2.0881	-0.4742	-4.6505	63.3557	99.9469	
   596	-2.9919	 1.3866	-1.6053	-4.3785	-2.7778	 1.9848	-0.7930	-4.7625	-2.6121	 2.0818	-0.5303	-4.6939	63.4017	99.9464	
   597	-3.0337	 1.3772	-1.6566	-4.4109	-2.8345	 1.9773	-0.8572	-4.8118	-2.6618	 2.0754	-0.5864	-4.7374	63.3546	99.9472	
   598	-3.0832	 1.3789	-1.7043	-4.4621	-2.8767	 1.9787	-0.8980	-4.8553	-2.6925	 2.0807	-0.6118	-4.7732	63.3557	99.9479	
   599	-2.9491	 1.4122	-1.5368	-4.3613	-2.7275	 2.0018	-0.7258	-4.7292	-2.5310	 2.0951	-0.4359	-4.6263	63.5417	99.9479	
   600	-2.8416	 1.4140	-1.4276	-4.2555	-2.6432	 1.9991	-0.6442	-4.6422	-2.5004	 2.0899	-0.4105	-4.5904	63.4458	99.9461	
   601	-2.8996	 1.4105	-1.4891	-4.3101	-2.7073	 1.9872	-0.7201	-4.6944	-2.5687	 2.0842	-0.4844	-4.6530	63.3976	99.9471	
   602	-2.9909	 1.4028	-1.5881	-4.3937	-2.7916	 1.9899	-0.8017	-4.7814	-2.6248	 2.0740	-0.5508	-4.6990	63.4438	99.9465	
   603	-3.0328	 1.3934	-1.6394	-4.4262	-2.8345	 1.9773	-0.8572	-4.8118	-2.6746	 2.0677	-0.6069	-4.7424	63.3966	99.9469	
   604	-3.0661	 1.3891	-1.6770	-4.4552	-2.8694	 1.9831	-0.8863	-4.8524	-2.6804	 2.0761	-0.6042	-4.7566	63.3997	99.9480	
   605	-2.9491	 1.4122	-1.5368	-4.3613	-2.7348	 1.9974	-0.7375	-4.7321	-2.5559	 2.0920	-0.4640	-4.6480	63.4938	99.9476	
   606	-2.8910	 1.4156	-1.4754	-4.3067	-2.7000	 1.9916	-0.7084	-4.6915	-2.5565	 2.0797	-0.4769	-4.6363	63.4428	99.9467	
   607	-2.9500	 1.3960	-1.5540	-4.3460	-2.7705	 1.9892	-0.7813	-4.7596	-2.6306	 2.0825	-0.5481	-4.7131	63.3053	99.9463	
   608	-3.0166	 1.3874	-1.6292	-4.4040	-2.8280	 1.9678	-0.8602	-4.7958	-2.6867	 2.0723	-0.6145	-4.7591	63.3042	99.9477	
   609	-3.0823	 1.3951	-1.6872	-4.4774	-2.8840	 1.9743	-0.9097	-4.8582	-2.7180	 2.0652	-0.6528	-4.7833	63.3956	99.9475	
   610	-3.1070	 1.3959	-1.7111	-4.5029	-2.8977	 1.9794	-0.9184	-4.8770	-2.7295	 2.0820	-0.6474	-4.8116	63.3525	99.9479	
   611	-2.9405	 1.4173	-1.5232	-4.3578	-2.7421	 1.9929	-0.7492	-4.7350	-2.5872	 2.0849	-0.5023	-4.6722	63.4438	99.9473	
   612	-2.8920	 1.3994	-1.4926	-4.2914	-2.7145	 1.9828	-0.7318	-4.6972	-2.5757	 2.0681	-0.5076	-4.6439	63.3956	99.9463	
   613	-2.9833	 1.3917	-1.5916	-4.3750	-2.8061	 1.9811	-0.8251	-4.7871	-2.6561	 2.0670	-0.5891	-4.7232	63.3494	99.9465	
   614	-3.0499	 1.3831	-1.6668	-4.4331	-2.8629	 1.9736	-0.8893	-4.8364	-2.7059	 2.0607	-0.6452	-4.7666	63.3494	99.9465	
   615	-3.0832	 1.3789	-1.7043	-4.4621	-2.8848	 1.9604	-0.9244	-4.8450	-2.7371	 2.0536	-0.6835	-4.7909	63.3484	99.9466	
   616	-3.0994	 1.3848	-1.7145	-4.4842	-2.8977	 1.9794	-0.9184	-4.8770	-2.7116	 2.0691	-0.6425	-4.7808	63.3987	99.9474	
   617	-2.9415	 1.4011	-1.5403	-4.3426	-2.7494	 1.9885	-0.7609	-4.7379	-2.5814	 2.0765	-0.5049	-4.6581	63.4448	99.9472	
   618	-2.9082	 1.4054	-1.5028	-4.3135	-2.7283	 1.9879	-0.7405	-4.7161	-2.5999	 2.0772	-0.5227	-4.6773	63.3494	99.9460	
   619	-2.9662	 1.4020	-1.5642	-4.3681	-2.7916	 1.9899	-0.8017	-4.7814	-2.6561	 2.0670	-0.5891	-4.7232	63.3473	99.9452	
   620	-3.0404	 1.4045	-1.6359	-4.4449	-2.8483	 1.9824	-0.8659	-4.8306	-2.7116	 2.0691	-0.6425	-4.7808	63.3473	99.9460	
   621	-3.0661	 1.3891	-1.6770	-4.4552	-2.8977	 1.9794	-0.9184	-4.8770	-2.7550	 2.0666	-0.6884	-4.8217	63.2548	99.9464	
   622	-3.0651	 1.4053	-1.6598	-4.4705	-2.8686	 1.9970	-0.8715	-4.8655	-2.6804	 2.0761	-0.6042	-4.7566	63.4438	99.9470	
   623	-2.8986	 1.4267	-1.4719	-4.3254	-2.7202	 2.0062	-0.7141	-4.7263	-2.5751	 2.0804	-0.4947	-4.6555	63.4407	99.9458	
   624	-2.9148	 1.4327	-1.4821	-4.3475	-2.7210	 1.9923	-0.7288	-4.7132	-2.5942	 2.0688	-0.5254	-4.6631	63.4839	99.9457	
   625	-2.9567	 1.4233	-1.5334	-4.3800	-2.7916	 1.9899	-0.8017	-4.7814	-2.6497	 2.0709	-0.5788	-4.7207	63.3915	99.9474	
   626	-3.0157	 1.4037	-1.6120	-4.4193	-2.8556	 1.9780	-0.8776	-4.8335	-2.7059	 2.0607	-0.6452	-4.7666	63.3452	99.9476	
   627	-3.0823	 1.3951	-1.6872	-4.4774	-2.8920	 1.9560	-0.9361	-4.8479	-2.7556	 2.0543	-0.7013	-4.8101	63.3452	99.9479	
   628	-3.0404	 1.4045	-1.6359	-4.4449	-2.8345	 1.9773	-0.8572	-4.8118	-2.6561	 2.0670	-0.5891	-4.7232	63.4889	99.9481	
   629	-2.9005	 1.3943	-1.5062	-4.2948	-2.7291	 1.9739	-0.7552	-4.7030	-2.5821	 2.0642	-0.5178	-4.6464	63.3956	99.9475	
   630	-2.9338	 1.3900	-1.5438	-4.3239	-2.7575	 1.9702	-0.7873	-4.7276	-2.6261	 2.0495	-0.5766	-4.6757	63.3925	99.9456	
   631	-3.0004	 1.3815	-1.6190	-4.3819	-2.8280	 1.9678	-0.8602	-4.7958	-2.6816	 2.0516	-0.6301	-4.7333	63.3473	99.9464	
   632	-3.0499	 1.3831	-1.6668	-4.4331	-2.8702	 1.9692	-0.9010	-4.8393	-2.7129	 2.0445	-0.6684	-4.7575	63.3925	99.9460	
   633	-3.0823	 1.3951	-1.6872	-4.4774	-2.8840	 1.9743	-0.9097	-4.8582	-2.7365	 2.0659	-0.6706	-4.8025	63.3484	99.9466	
   634	-2.9491	 1.4122	-1.5368	-4.3613	-2.7494	 1.9885	-0.7609	-4.7379	-2.5757	 2.0681	-0.5076	-4.6439	63.5349	99.9471	
   635	-2.8749	 1.4097	-1.4652	-4.2845	-2.6797	 1.9770	-0.7027	-4.6566	-2.5514	 2.0590	-0.4924	-4.6105	63.4859	99.9458	
   636	-2.9338	 1.3900	-1.5438	-4.3239	-2.7575	 1.9702	-0.7873	-4.7276	-2.6076	 2.0488	-0.5588	-4.6565	63.4397	99.9464	
   637	-2.9928	 1.3704	-1.6225	-4.3632	-2.8353	 1.9634	-0.8719	-4.7987	-2.6880	 2.0477	-0.6403	-4.7358	63.3011	99.9467	
   638	-3.0414	 1.3883	-1.6531	-4.4296	-2.8702	 1.9692	-0.9010	-4.8393	-2.7008	 2.0400	-0.6608	-4.7408	63.4377	99.9468	
   639	-3.0157	 1.4037	-1.6120	-4.4193	-2.8272	 1.9817	-0.8455	-4.8089	-2.6440	 2.0625	-0.5815	-4.7065	63.4879	99.9479	
   640	-2.8416	 1.4140	-1.4276	-4.2555	-2.6440	 1.9851	-0.6589	-4.6291	-2.4959	 2.0569	-0.4390	-4.5529	63.5791	99.9456	
   641	-2.8263	 1.3918	-1.4346	-4.2181	-2.6375	 1.9756	-0.6619	-4.6131	-2.5151	 2.0453	-0.4697	-4.5605	63.4859	99.9437	
   642	-2.9015	 1.3781	-1.5234	-4.2796	-2.7154	 1.9689	-0.7465	-4.6841	-2.5770	 2.0436	-0.5334	-4.6206	63.4407	99.9446	
   643	-2.9434	 1.3687	-1.5747	-4.3120	-2.7648	 1.9658	-0.7990	-4.7305	-2.5961	 2.0320	-0.5641	-4.6282	63.4869	99.9453	
   644	-2.9681	 1.3695	-1.5986	-4.3376	-2.7867	 1.9526	-0.8341	-4.7392	-2.6331	 2.0334	-0.5998	-4.6666	63.4397	99.9464	
   645	-2.9767	 1.3644	-1.6123	-4.3410	-2.7932	 1.9621	-0.8311	-4.7552	-2.6018	 2.0404	-0.5615	-4.6423	63.4898	99.9472	
   646	-2.8102	 1.3858	-1.4244	-4.1960	-2.6100	 1.9655	-0.6445	-4.5754	-2.4595	 2.0433	-0.4163	-4.5029	63.5810	99.9457	
   647	-2.7940	 1.3798	-1.4142	-4.1738	-2.5962	 1.9604	-0.6358	-4.5565	-2.4602	 2.0310	-0.4292	-4.4913	63.5791	99.9444	
   648	-2.8530	 1.3602	-1.4928	-4.2131	-2.6602	 1.9485	-0.7117	-4.6087	-2.5221	 2.0292	-0.4929	-4.5514	63.4879	99.9450	
   649	-2.9025	 1.3618	-1.5406	-4.2643	-2.7097	 1.9454	-0.7642	-4.6550	-2.5655	 2.0267	-0.5387	-4.5923	63.4869	99.9456	
   650	-2.9358	 1.3576	-1.5782	-4.2933	-2.7591	 1.9424	-0.8167	-4.7014	-2.6031	 2.0158	-0.5873	-4.6190	63.4849	99.9460	
   651	-2.9681	 1.3695	-1.5986	-4.3376	-2.7729	 1.9475	-0.8254	-4.7203	-2.5904	 2.0236	-0.5668	-4.6140	63.5791	99.9473	
   652	-2.7588	 1.4165	-1.3422	-4.1753	-2.5532	 1.9729	-0.5803	-4.5261	-2.4040	 2.0412	-0.3628	-4.4453	63.7162	99.9460	
   653	-2.6313	 1.4772	-1.1541	-4.1085	-2.4600	 2.0025	-0.4576	-4.4624	-2.3236	 2.0423	-0.2813	-4.3660	63.8471	99.9461	
   654	-2.6351	 1.4123	-1.2228	-4.0474	-2.4892	 1.9848	-0.5044	-4.4740	-2.3606	 2.0437	-0.3169	-4.4044	63.5762	99.9454	
   655	-2.6836	 1.4302	-1.2534	-4.1138	-2.4941	 2.0221	-0.4720	-4.5162	-2.3638	 2.1012	-0.2626	-4.4651	63.4928	99.9445	
   656	-2.7007	 1.4200	-1.2808	-4.1207	-2.4949	 2.0082	-0.4867	-4.5030	-2.3523	 2.0844	-0.2680	-4.4368	63.5848	99.9445	
   657	-2.7274	 1.3884	-1.3390	-4.1158	-2.5241	 1.9906	-0.5335	-4.5146	-2.3523	 2.0844	-0.2680	-4.4368	63.5437	99.9467	
   658	-2.5961	 1.3730	-1.2231	-3.9692	-2.3838	 1.9814	-0.4024	-4.3652	-2.2241	 2.0550	-0.1691	-4.2791	63.6804	99.9438	
   659	-2.6941	 1.2518	-1.4424	-3.9459	-2.4819	 1.8684	-0.6134	-4.3502	-2.3523	 1.9655	-0.3868	-4.3179	63.5398	99.9437	
   660	-2.8930	 1.1014	-1.7916	-3.9944	-2.6934	 1.7405	-0.9529	-4.4338	-2.5750	 1.8426	-0.7324	-4.4177	63.3956	99.9425	
   661	-3.1651	 0.9698	-2.1953	-4.1349	-2.9389	 1.6323	-1.3067	-4.5711	-2.7772	 1.7559	-1.0214	-4.5332	63.3515	99.9440	
   662	-3.3021	 0.8878	-2.4143	-4.1899	-3.0767	 1.5624	-1.5143	-4.6390	-2.9157	 1.7077	-1.2080	-4.6235	63.2128	99.9450	
   663	-3.4277	 0.8596	-2.5681	-4.2873	-3.1837	 1.5379	-1.6457	-4.7215	-2.9604	 1.6807	-1.2797	-4.6412	63.3536	99.9470	
   664	-3.2945	 0.8767	-2.4178	-4.1712	-3.0572	 1.5339	-1.5234	-4.5910	-2.8557	 1.6727	-1.1830	-4.5285	63.4428	99.9471	
   665	-3.2869	 0.8656	-2.4213	-4.1525	-3.0653	 1.5155	-1.5498	-4.5808	-2.8876	 1.6534	-1.2342	-4.5411	63.3925	99.9468	
   666	-3.3535	 0.8571	-2.4964	-4.2106	-3.1286	 1.5176	-1.6110	-4.6461	-2.9553	 1.6600	-1.2953	-4.6154	63.3011	99.9462	
   667	-3.4030	 0.8587	-2.5442	-4.2617	-3.1788	 1.5006	-1.6782	-4.6793	-3.0114	 1.6498	-1.3616	-4.6613	63.2979	99.9475	
   668	-3.4353	 0.8707	-2.5646	-4.3060	-3.2129	 1.5203	-1.6926	-4.7331	-3.0293	 1.6628	-1.3665	-4.6922	63.2989	99.9474	
   669	-3.3668	 0.9117	-2.4551	-4.2785	-3.1124	 1.5542	-1.5581	-4.6665	-2.9042	 1.6909	-1.2133	-4.5952	63.4879	99.9475	
   670	-3.1927	 0.9220	-2.2707	-4.1147	-2.9494	 1.5722	-1.3772	-4.5216	-2.7989	 1.6952	-1.1038	-4.4942	63.4397	99.9435	
   671	-3.2013	 0.9169	-2.2844	-4.1182	-2.9924	 1.5597	-1.4327	-4.5520	-2.8551	 1.6850	-1.1701	-4.5401	63.3431	99.9446	
   672	-3.2917	 0.9254	-2.3663	-4.2170	-3.0556	 1.5617	-1.4939	-4.6172	-2.9163	 1.6955	-1.2209	-4.6119	63.3442	99.9448	
   673	-3.3326	 0.9322	-2.4004	-4.2648	-3.1035	 1.5865	-1.5170	-4.6898	-2.9342	 1.7084	-1.2258	-4.6427	63.3463	99.9445	
   674	-3.3240	 0.9373	-2.3867	-4.2613	-3.0897	 1.5814	-1.5083	-4.6710	-2.9093	 1.7116	-1.1977	-4.6210	63.3935	99.9462	
   675	-3.1832	 0.9434	-2.2398	-4.1265	-2.9486	 1.5861	-1.3625	-4.5347	-2.7983	 1.7074	-1.0908	-4.5058	63.4387	99.9441	
   676	-3.2003	 0.9331	-2.2672	-4.1334	-2.9705	 1.5729	-1.3976	-4.5433	-2.8359	 1.6966	-1.1394	-4.5326	63.3904	99.9438	
   677	-3.2669	 0.9245	-2.3424	-4.1915	-3.0410	 1.5705	-1.4705	-4.6115	-2.9042	 1.6909	-1.2133	-4.5952	63.3431	99.9433	
   678	-3.3250	 0.9211	-2.4038	-4.2461	-3.1116	 1.5681	-1.5434	-4.6796	-2.9412	 1.6923	-1.2489	-4.6336	63.3442	99.9457	
   679	-3.3573	 0.9331	-2.4242	-4.2904	-3.1464	 1.5739	-1.5725	-4.7202	-2.9597	 1.6930	-1.2668	-4.6528	63.3894	99.9466	
   680	-3.2574	 0.9459	-2.3115	-4.2033	-3.0265	 1.5793	-1.4471	-4.6057	-2.8672	 1.6895	-1.1777	-4.5568	63.4809	99.9442	
   681	-3.2013	 0.9169	-2.2844	-4.1182	-2.9932	 1.5457	-1.4475	-4.5389	-2.8742	 1.6734	-1.2008	-4.5477	63.3400	99.9447	
   682	-3.2936	 0.8929	-2.4006	-4.1865	-3.1002	 1.5213	-1.5789	-4.6214	-2.9680	 1.6523	-1.3157	-4.6204	63.2915	99.9461	
   683	-3.3925	 0.8963	-2.4962	-4.2888	-3.1699	 1.5328	-1.6371	-4.7027	-3.0172	 1.6582	-1.3589	-4.6755	63.3400	99.9452	
   684	-3.3754	 0.9066	-2.4688	-4.2820	-3.1829	 1.5518	-1.6310	-4.7346	-3.0223	 1.6789	-1.3434	-4.7013	63.2483	99.9463	
   685	-3.3326	 0.9322	-2.4004	-4.2648	-3.0986	 1.5491	-1.5494	-4.6476	-2.9234	 1.6793	-1.2440	-4.6028	63.4809	99.9475	
   686	-3.1851	 0.9109	-2.2742	-4.0960	-2.9656	 1.5356	-1.4301	-4.5011	-2.8563	 1.6604	-1.1959	-4.5169	63.3853	99.9438	
   687	-3.2270	 0.9015	-2.3255	-4.1285	-3.0151	 1.5325	-1.4826	-4.5475	-2.9061	 1.6541	-1.2520	-4.5603	63.3379	99.9434	
   688	-3.3021	 0.8878	-2.4143	-4.1899	-3.0929	 1.5257	-1.5672	-4.6185	-2.9680	 1.6523	-1.3157	-4.6204	63.2925	99.9443	
   689	-3.3430	 0.8946	-2.4484	-4.2377	-3.1350	 1.5271	-1.6080	-4.6620	-2.9987	 1.6575	-1.3411	-4.6563	63.2925	99.9455	
   690	-3.3345	 0.8998	-2.4347	-4.2342	-3.1002	 1.5213	-1.5789	-4.6214	-2.9425	 1.6677	-1.2748	-4.6103	63.3894	99.9477	
   691	-3.1689	 0.9049	-2.2640	-4.0739	-2.9511	 1.5444	-1.4067	-4.4954	-2.8257	 1.6552	-1.1705	-4.4810	63.4326	99.9426	
   692	-3.1870	 0.8785	-2.3085	-4.0655	-2.9875	 1.5223	-1.4652	-4.5098	-2.8697	 1.6404	-1.2293	-4.5103	63.3389	99.9432	
   693	-3.2860	 0.8818	-2.4041	-4.1678	-3.0791	 1.5206	-1.5585	-4.5997	-2.9438	 1.6432	-1.3006	-4.5870	63.3389	99.9445	
   694	-3.3193	 0.8776	-2.4417	-4.1968	-3.1213	 1.5220	-1.5993	-4.6432	-2.9687	 1.6400	-1.3286	-4.6088	63.3389	99.9450	
   695	-3.3516	 0.8895	-2.4621	-4.2411	-3.1423	 1.5227	-1.6197	-4.6649	-2.9623	 1.6439	-1.3184	-4.6062	63.4326	99.9469	
   696	-3.1946	 0.8896	-2.3051	-4.0842	-2.9802	 1.5267	-1.4535	-4.5069	-2.8385	 1.6474	-1.1910	-4.4860	63.4336	99.9446	
   697	-3.1451	 0.8879	-2.2573	-4.0330	-2.9243	 1.5203	-1.4040	-4.4445	-2.8200	 1.6468	-1.1732	-4.4668	63.3863	99.9432	
   698	-3.1946	 0.8896	-2.3051	-4.0842	-2.9875	 1.5223	-1.4652	-4.5098	-2.8819	 1.6450	-1.2369	-4.5269	63.3379	99.9434	
   699	-3.2774	 0.8870	-2.3904	-4.1644	-3.0653	 1.5155	-1.5498	-4.5808	-2.9195	 1.6341	-1.2854	-4.5537	63.4306	99.9451	
   700	-3.3193	 0.8776	-2.4417	-4.1968	-3.1083	 1.5030	-1.6053	-4.6112	-2.9750	 1.6361	-1.3389	-4.6113	63.3379	99.9459	
   701	-3.2365	 0.8802	-2.3563	-4.1166	-3.0159	 1.5186	-1.4973	-4.5344	-2.8512	 1.6397	-1.2115	-4.4911	63.4809	99.9455	
   702	-3.1290	 0.8819	-2.2471	-4.0109	-2.9032	 1.5196	-1.3836	-4.4228	-2.7836	 1.6331	-1.1505	-4.4168	63.4789	99.9424	
   703	-3.1547	 0.8665	-2.2881	-4.0212	-2.9462	 1.5071	-1.4391	-4.4532	-2.8334	 1.6268	-1.2066	-4.4602	63.3853	99.9430	
   704	-3.2365	 0.8802	-2.3563	-4.1166	-3.0167	 1.5047	-1.5120	-4.5213	-2.8953	 1.6250	-1.2703	-4.5203	63.4296	99.9440	
   705	-3.2707	 0.8596	-2.4111	-4.1304	-3.0734	 1.4972	-1.5762	-4.5706	-2.9393	 1.6102	-1.3291	-4.5496	63.3822	99.9441	
   706	-3.3202	 0.8613	-2.4589	-4.1815	-3.0945	 1.4979	-1.5966	-4.5923	-2.9201	 1.6218	-1.2983	-4.5420	63.4799	99.9461	
   707	-3.1461	 0.8716	-2.2745	-4.0177	-2.9316	 1.5159	-1.4157	-4.4474	-2.7842	 1.6208	-1.1634	-4.4051	63.5251	99.9431	
   708	-3.1128	 0.8759	-2.2369	-3.9887	-2.9040	 1.5057	-1.3983	-4.4097	-2.7785	 1.6124	-1.1661	-4.3910	63.5222	99.9432	
   709	-3.1632	 0.8614	-2.3018	-4.0246	-2.9608	 1.4982	-1.4625	-4.4589	-2.8404	 1.6106	-1.2298	-4.4511	63.4296	99.9432	
   710	-3.2460	 0.8588	-2.3872	-4.1048	-3.0459	 1.4870	-1.5588	-4.5328	-2.8965	 1.6004	-1.2961	-4.4970	63.4749	99.9453	
   711	-3.2879	 0.8494	-2.4385	-4.1373	-3.0953	 1.4840	-1.6113	-4.5792	-2.9463	 1.5941	-1.3522	-4.5405	63.4275	99.9449	
   712	-3.2707	 0.8596	-2.4111	-4.1304	-3.0459	 1.4870	-1.5588	-4.5328	-2.8716	 1.6036	-1.2681	-4.4753	63.5704	99.9460	
   713	-3.1138	 0.8597	-2.2541	-3.9735	-2.8773	 1.4816	-1.3956	-4.3588	-2.7606	 1.5994	-1.1612	-4.3601	63.5694	99.9432	
   714	-3.1394	 0.8443	-2.2951	-3.9838	-2.9267	 1.4786	-1.4481	-4.4052	-2.8046	 1.5847	-1.2199	-4.3894	63.5212	99.9426	
   715	-3.2060	 0.8358	-2.3703	-4.0418	-2.9907	 1.4667	-1.5241	-4.4574	-2.8608	 1.5745	-1.2863	-4.4354	63.5202	99.9432	
   716	-3.2726	 0.8272	-2.4454	-4.0998	-3.0686	 1.4599	-1.6087	-4.5284	-2.9291	 1.5688	-1.3602	-4.4980	63.4729	99.9440	
   717	-3.3231	 0.8127	-2.5104	-4.1357	-3.1123	 1.4334	-1.6789	-4.5457	-2.9725	 1.5664	-1.4061	-4.5389	63.4275	99.9465	
   718	-3.2565	 0.8212	-2.4352	-4.0777	-3.0337	 1.4541	-1.5796	-4.4878	-2.8608	 1.5745	-1.2863	-4.4354	63.5704	99.9460	
   719	-3.1328	 0.8170	-2.3158	-3.9498	-2.9210	 1.4552	-1.4659	-4.3761	-2.7938	 1.5556	-1.2382	-4.3495	63.5665	99.9421	
   720	-3.1670	 0.7965	-2.3706	-3.9635	-2.9575	 1.4331	-1.5244	-4.3905	-2.8435	 1.5492	-1.2943	-4.3929	63.4739	99.9429	
   721	-3.2498	 0.7939	-2.4559	-4.0437	-3.0418	 1.4358	-1.6060	-4.4775	-2.9118	 1.5436	-1.3682	-4.4555	63.4729	99.9427	
   722	-3.3164	 0.7853	-2.5311	-4.1018	-3.0993	 1.4144	-1.6849	-4.5137	-2.9559	 1.5288	-1.4270	-4.4848	63.5182	99.9444	
   723	-3.3421	 0.7700	-2.5721	-4.1121	-3.1423	 1.4019	-1.7404	-4.5441	-2.9929	 1.5302	-1.4626	-4.5232	63.4265	99.9463	
   724	-3.2831	 0.7896	-2.4935	-4.0727	-3.0572	 1.4131	-1.6441	-4.4702	-2.8754	 1.5299	-1.3455	-4.4055	63.6599	99.9466	
   725	-3.2023	 0.7598	-2.4425	-3.9620	-2.9948	 1.3971	-1.5976	-4.3918	-2.8582	 1.5047	-1.3535	-4.3630	63.5646	99.9434	
   726	-3.2441	 0.7504	-2.4938	-3.9945	-3.0377	 1.3846	-1.6531	-4.4222	-2.9201	 1.5029	-1.4172	-4.4231	63.4709	99.9435	
   727	-3.3355	 0.7426	-2.5928	-4.0781	-3.1301	 1.3690	-1.7612	-4.4990	-3.0012	 1.4895	-1.5116	-4.4908	63.4688	99.9447	
   728	-3.4030	 0.7179	-2.6851	-4.1209	-3.1950	 1.3432	-1.8518	-4.5380	-3.0452	 1.4748	-1.5704	-4.5201	63.4698	99.9466	
   729	-3.4620	 0.6982	-2.7638	-4.1602	-3.2598	 1.3174	-1.9424	-4.5771	-3.1141	 1.4569	-1.6572	-4.5711	63.4214	99.9476	
   730	-3.3954	 0.7068	-2.6886	-4.1022	-3.1812	 1.3381	-1.8431	-4.5192	-2.9845	 1.4520	-1.5325	-4.4367	63.6562	99.9470	
   731	-3.2727	 0.6863	-2.5864	-3.9590	-3.0766	 1.3208	-1.7558	-4.3973	-2.9488	 1.4261	-1.5227	-4.3750	63.5587	99.9432	
   732	-3.3488	 0.6564	-2.6924	-4.0052	-3.1633	 1.2818	-1.8815	-4.4450	-3.0681	 1.3895	-1.6786	-4.4578	63.4597	99.9426	
   733	-3.4753	 0.6120	-2.8634	-4.0873	-3.2792	 1.2251	-2.0541	-4.5042	-3.1753	 1.3485	-1.8269	-4.5239	63.4577	99.9446	
   734	-3.5933	 0.5726	-3.0207	-4.1660	-3.4081	 1.1874	-2.2206	-4.5954	-3.2646	 1.2944	-1.9703	-4.5591	63.5469	99.9454	
   735	-3.7113	 0.5333	-3.1780	-4.2446	-3.5159	 1.1491	-2.3668	-4.6649	-3.3399	 1.2726	-2.0673	-4.6126	63.5489	99.9480	
   736	-3.5867	 0.5453	-3.0413	-4.1320	-3.3594	 1.1766	-2.1828	-4.5359	-3.1664	 1.2825	-1.8838	-4.4490	63.7396	99.9455	
   737	-3.4430	 0.6000	-2.8430	-4.0430	-3.2095	 1.2136	-1.9959	-4.4230	-3.0841	 1.3204	-1.7636	-4.4046	63.6913	99.9430	
   738	-3.4049	 0.6854	-2.7195	-4.0903	-3.1828	 1.3103	-1.8725	-4.4930	-3.0483	 1.4134	-1.6349	-4.4619	63.6032	99.9429	
   739	-3.2879	 0.8494	-2.4385	-4.1373	-3.0694	 1.4460	-1.6234	-4.5153	-2.9495	 1.5327	-1.4168	-4.4823	63.6496	99.9427	
   740	-3.1099	 1.0655	-2.0444	-4.1754	-2.8960	 1.6448	-1.2512	-4.5407	-2.7932	 1.6868	-1.1064	-4.4800	63.7423	99.9393	
   741	-2.8806	 1.3123	-1.5682	-4.1929	-2.7599	 1.8077	-0.9522	-4.5675	-2.6688	 1.8215	-0.8473	-4.4904	63.8252	99.9448	
   742	-2.6179	 1.5635	-1.0545	-4.1814	-2.3782	 2.0788	-0.2994	-4.4569	-2.1016	 2.1529	 0.0513	-4.2546	64.1834	99.9539	
   743	-2.3772	 1.5823	-0.7949	-3.9596	-2.0662	 2.1199	 0.0537	-4.1860	-1.9082	 2.1867	 0.2785	-4.0950	64.1409	99.9440	
   744	-2.2431	 1.6157	-0.6274	-3.8588	-1.9722	 2.1633	 0.1911	-4.1354	-1.8648	 2.1892	 0.3243	-4.0541	64.0900	99.9387	
   745	-2.4153	 1.4969	-0.9184	-3.9122	-2.2063	 2.0082	-0.1981	-4.2145	-2.0900	 2.0172	-0.0729	-4.1073	64.1670	99.9420	
   746	-2.8568	 1.2953	-1.5615	-4.1521	-2.7728	 1.7059	-1.0669	-4.4786	-2.7064	 1.6917	-1.0147	-4.3982	64.1325	99.9474	
   747	-3.1918	 0.7973	-2.3944	-3.9891	-3.1139	 1.2848	-1.8291	-4.3986	-3.0362	 1.2900	-1.7462	-4.3262	64.0319	99.9449	
   748	-3.8065	 0.1789	-3.6276	-3.9854	-3.7216	 0.7562	-2.9654	-4.4777	-3.7316	 0.7502	-2.9814	-4.4819	63.7261	99.9325	
   749	-4.6933	-0.2893	-4.9826	-4.4040	-4.6843	 0.2947	-4.3896	-4.9789	-4.7793	 0.3301	-4.4492	-5.1096	63.0169	99.9331	
   750	-5.6276	-0.5825	-6.2101	-5.0451	-5.6179	-0.0283	-5.6463	-5.5895	-5.6140	 0.0866	-5.5274	-5.7007	62.7577	99.9469	
   751	-5.6780	-0.4561	-6.1341	-5.2219	-5.5758	 0.0911	-5.4848	-5.6669	-5.4526	 0.2200	-5.2326	-5.6726	63.1211	99.9513	
   752	-5.4516	-0.3988	-5.8504	-5.0527	-5.3959	 0.1596	-5.2363	-5.5555	-5.2637	 0.2867	-4.9770	-5.5505	63.0787	99.9527	
   753	-5.2156	-0.3202	-5.5358	-4.8954	-5.1268	 0.1881	-4.9387	-5.3149	-5.0773	 0.3044	-4.7730	-5.3818	63.2650	99.9496	
   754	-5.1661	-0.3219	-5.4880	-4.8442	-5.1050	 0.2014	-4.9036	-5.3063	-5.0525	 0.3075	-4.7449	-5.3601	63.2167	99.9490	
   755	-5.2166	-0.3364	-5.5530	-4.8801	-5.1901	 0.1902	-4.9999	-5.3802	-5.1341	 0.2819	-4.8523	-5.4161	63.1625	99.9490	
   756	-5.3583	-0.3587	-5.7170	-4.9997	-5.3189	 0.1525	-5.1664	-5.4714	-5.2783	 0.2422	-5.0362	-5.5206	63.1554	99.9484	
   757	-5.4658	-0.3604	-5.8262	-5.1054	-5.4308	 0.1654	-5.2654	-5.5961	-5.3594	 0.2288	-5.1306	-5.5883	63.2016	99.9470	
   758	-5.3593	-0.3749	-5.7342	-4.9844	-5.3278	 0.1203	-5.2076	-5.4480	-5.3185	 0.1822	-5.1364	-5.5008	63.2410	99.9456	
   759	-5.4354	-0.4048	-5.8402	-5.0306	-5.4202	 0.1047	-5.3156	-5.5248	-5.3881	 0.1520	-5.2361	-5.5402	63.2387	99.9452	
   760	-5.5267	-0.4125	-5.9393	-5.1142	-5.5126	 0.0891	-5.4236	-5.6016	-5.4813	 0.1431	-5.3381	-5.6245	63.1876	99.9462	
   761	-5.6171	-0.4040	-6.0211	-5.2131	-5.5969	 0.0918	-5.5052	-5.6886	-5.5559	 0.1336	-5.4223	-5.6897	63.2329	99.9457	
   762	-5.6999	-0.4066	-6.1065	-5.2933	-5.6666	 0.1033	-5.5633	-5.7699	-5.5923	 0.1473	-5.4450	-5.7397	63.2375	99.9463	
   763	-5.5172	-0.3912	-5.9084	-5.1260	-5.5045	 0.1074	-5.3972	-5.6118	-5.4691	 0.1386	-5.3305	-5.6078	63.2817	99.9447	
   764	-5.5772	-0.4271	-6.0042	-5.1501	-5.6042	 0.0874	-5.5169	-5.6915	-5.5693	 0.1136	-5.4557	-5.6830	63.1316	99.9446	
   765	-5.7265	-0.4382	-6.1647	-5.2883	-5.7469	 0.0548	-5.6921	-5.8016	-5.7065	 0.0901	-5.6164	-5.7967	63.1268	99.9466	
   766	-5.8255	-0.4348	-6.2603	-5.3907	-5.8457	 0.0487	-5.7971	-5.8943	-5.8124	 0.0735	-5.7389	-5.8861	63.1207	99.9459	
   767	-5.9149	-0.4101	-6.3250	-5.5048	-5.8798	 0.0683	-5.8115	-5.9481	-5.8003	 0.0690	-5.7313	-5.8694	63.4159	99.9445	
   768	-5.7246	-0.4058	-6.1304	-5.3189	-5.7177	 0.0724	-5.6453	-5.7900	-5.6893	 0.0648	-5.6244	-5.7542	63.3636	99.9422	
   769	-5.8160	-0.4135	-6.2294	-5.4025	-5.8457	 0.0487	-5.7971	-5.8943	-5.8392	 0.0335	-5.8057	-5.8729	63.2552	99.9426	
   770	-5.9558	-0.4033	-6.3591	-5.5525	-5.9365	 0.0609	-5.8757	-5.9973	-5.9062	 0.0524	-5.8538	-5.9588	63.3089	99.9424	
   771	-5.9625	-0.3759	-6.3384	-5.5865	-5.9357	 0.0748	-5.8609	-6.0104	-5.9120	 0.0608	-5.8512	-5.9729	63.3558	99.9422	
   772	-5.9425	-0.3170	-6.2595	-5.6255	-5.8960	 0.1525	-5.7436	-6.0484	-5.8157	 0.1310	-5.6846	-5.9468	63.4637	99.9427	
   773	-5.7246	-0.2649	-5.9895	-5.4597	-5.7104	 0.1976	-5.5128	-5.9080	-5.6957	 0.1799	-5.5158	-5.8756	63.3158	99.9413	
   774	-5.8302	-0.2342	-6.0644	-5.5960	-5.8288	 0.2200	-5.6088	-6.0487	-5.8061	 0.1963	-5.6098	-6.0025	63.2633	99.9421	
   775	-5.9111	-0.2043	-6.1154	-5.7068	-5.9123	 0.2366	-5.6757	-6.1488	-5.8980	 0.2120	-5.6860	-6.1101	63.2107	99.9424	
   776	-5.9891	-0.2667	-6.2557	-5.7224	-6.0071	 0.1793	-5.8278	-6.1863	-5.9509	 0.1443	-5.8067	-6.0953	63.3055	99.9440	
   777	-5.8968	-0.2427	-6.1395	-5.6541	-5.8434	 0.2112	-5.6322	-6.0545	-5.7570	 0.1903	-5.5666	-5.9474	63.5146	99.9439	
   778	-5.6742	-0.2503	-5.9245	-5.4238	-5.6545	 0.1912	-5.4633	-5.8456	-5.6223	 0.1648	-5.4575	-5.7872	63.5094	99.9426	
   779	-5.6932	-0.2930	-5.9862	-5.4002	-5.6764	 0.1779	-5.4985	-5.8543	-5.6344	 0.1694	-5.4651	-5.8039	63.3692	99.9430	
   780	-5.6751	-0.2666	-5.9417	-5.4086	-5.6748	 0.2058	-5.4690	-5.8805	-5.6153	 0.1809	-5.4343	-5.7963	63.4170	99.9430	
   781	-5.7084	-0.2708	-5.9793	-5.4376	-5.6967	 0.1925	-5.5041	-5.8891	-5.6657	 0.1623	-5.5034	-5.8281	63.4126	99.9411	
   782	-5.6799	-0.2068	-5.8867	-5.4731	-5.6448	 0.2373	-5.4075	-5.8820	-5.6268	 0.1978	-5.4290	-5.8247	63.5094	99.9399	
   783	-5.5067	-0.0718	-5.5785	-5.4349	-5.4908	 0.3439	-5.1470	-5.8346	-5.5170	 0.2880	-5.2291	-5.8051	63.5062	99.9386	
   784	-5.5305	-0.0547	-5.5852	-5.4757	-5.5597	 0.3693	-5.1904	-5.9290	-5.5955	 0.3237	-5.2718	-5.9194	63.2610	99.9402	
   785	-5.7131	-0.0702	-5.7833	-5.6430	-5.7291	 0.3608	-5.3683	-6.0899	-5.7557	 0.3338	-5.4219	-6.0896	63.1159	99.9413	
   786	-5.8530	-0.0600	-5.9130	-5.7930	-5.8621	 0.3744	-5.4877	-6.2364	-5.8610	 0.3295	-5.5315	-6.1906	63.1627	99.9407	
   787	-5.8892	-0.1129	-6.0021	-5.7762	-5.8848	 0.3472	-5.5375	-6.2319	-5.8183	 0.3197	-5.4985	-6.1381	63.2224	99.9437	
   788	-5.7407	-0.1180	-5.8587	-5.6227	-5.7162	 0.3418	-5.3744	-6.0579	-5.6753	 0.3349	-5.3404	-6.0103	63.2282	99.9435	
   789	-5.8511	-0.1684	-6.0195	-5.6827	-5.8499	 0.3415	-5.5084	-6.1913	-5.7710	 0.2770	-5.4941	-6.0481	63.2725	99.9380	
   790	-6.0538	-0.2428	-6.2965	-5.8110	-6.0314	 0.2451	-5.7863	-6.2765	-5.9586	 0.2348	-5.7239	-6.1935	63.1256	99.9430	
   791	-6.0300	-0.2598	-6.2898	-5.7702	-5.8985	 0.2315	-5.6670	-6.1300	-5.7723	 0.2524	-5.5199	-6.0248	63.4355	99.9445	
   792	-5.6656	-0.2452	-5.9108	-5.4204	-5.5232	 0.2706	-5.2527	-5.7937	-5.4105	 0.3168	-5.0937	-5.7274	63.4505	99.9444	
   793	-5.3973	-0.1785	-5.5758	-5.2188	-5.1837	 0.4223	-4.7614	-5.6058	-4.9670	 0.5257	-4.4413	-5.4928	63.4448	99.9473	
   794	-4.9016	 0.1026	-4.7990	-5.0041	-4.5492	 0.8060	-3.7431	-5.3551	-4.2582	 0.9666	-3.2916	-5.2249	63.4100	99.9456	
   795	-4.1603	 0.6245	-3.5358	-4.7849	-3.7956	 1.3021	-2.4935	-5.0976	-3.5487	 1.4198	-2.1289	-4.9686	63.5684	99.9414	
   796	-3.8054	 0.7587	-3.0467	-4.5642	-3.5419	 1.3079	-2.2340	-4.8496	-3.4421	 1.3297	-2.1124	-4.7719	63.9034	99.9366	
   797	-4.2051	 0.2847	-3.9204	-4.4898	-4.0701	 0.8138	-3.2563	-4.8839	-4.0545	 0.8401	-3.2144	-4.8948	63.6311	99.9379	
   798	-5.0938	-0.2160	-5.3098	-4.8778	-5.0069	 0.3144	-4.6926	-5.3212	-5.0231	 0.3966	-4.6265	-5.4199	63.1199	99.9421	
   799	-5.8169	-0.4297	-6.2466	-5.3872	-5.6918	 0.1552	-5.5366	-5.8469	-5.6166	 0.2753	-5.3413	-5.8920	62.8328	99.9451	
   800	-6.0253	-0.4605	-6.4858	-5.5648	-5.9625	 0.0989	-5.8636	-6.0613	-5.9229	 0.2088	-5.7141	-6.1318	62.6162	99.9460	
   801	-6.2260	-0.5024	-6.7284	-5.7236	-6.1611	 0.0727	-6.0883	-6.2337	-6.0288	 0.1923	-5.8365	-6.2212	62.6720	99.9504	
   802	-6.0348	-0.4818	-6.5166	-5.5529	-5.9503	 0.0660	-5.8844	-6.0162	-5.8642	 0.1492	-5.7149	-6.0135	62.9545	99.9460	
   803	-6.1461	-0.5485	-6.6946	-5.5976	-6.0524	 0.0042	-6.0482	-6.0565	-5.9720	 0.0959	-5.8761	-6.0680	62.9032	99.9457	
   804	-6.2127	-0.5570	-6.7698	-5.6557	-6.1156	 0.0062	-6.1094	-6.1218	-6.0141	 0.1179	-5.8962	-6.1322	62.8119	99.9477	
   805	-6.1870	-0.5417	-6.7287	-5.6454	-6.1359	 0.0208	-6.1151	-6.1567	-6.0454	 0.1109	-5.9345	-6.1564	62.7550	99.9470	
   806	-6.2622	-0.5554	-6.8175	-5.7068	-6.1926	 0.0134	-6.1793	-6.2059	-6.0703	 0.1077	-5.9625	-6.1781	62.8080	99.9479	
   807	-6.2127	-0.5570	-6.7698	-5.6557	-6.0954	-0.0084	-6.1037	-6.0869	-6.0090	 0.0973	-5.9117	-6.1064	62.9057	99.9466	
   808	-6.2888	-0.5870	-6.8758	-5.7019	-6.2096	-0.0372	-6.2468	-6.1724	-6.1526	 0.0698	-6.0828	-6.2225	62.7019	99.9464	
   809	-6.3726	-0.6058	-6.9783	-5.7668	-6.3158	-0.0477	-6.3635	-6.2680	-6.2400	 0.0526	-6.1874	-6.2927	62.6501	99.9470	
   810	-6.4220	-0.6041	-7.0261	-5.8180	-6.3726	-0.0552	-6.4277	-6.3173	-6.3025	 0.0385	-6.2640	-6.3412	62.6445	99.9469	
   811	-6.4553	-0.6084	-7.0637	-5.8470	-6.3790	-0.0457	-6.4247	-6.3333	-6.2764	 0.0662	-6.2101	-6.3427	62.6556	99.9484	
   812	-6.3707	-0.5733	-6.9440	-5.7973	-6.2502	-0.0080	-6.2582	-6.2421	-6.1392	 0.0898	-6.0494	-6.2291	62.8569	99.9460	
   813	-6.3535	-0.5631	-6.9166	-5.7905	-6.2713	-0.0073	-6.2786	-6.2638	-6.1953	 0.0796	-6.1157	-6.2751	62.7497	99.9452	
   814	-6.4106	-0.5503	-6.9609	-5.8603	-6.3418	-0.0097	-6.3515	-6.3320	-6.2821	 0.0747	-6.2075	-6.3569	62.6937	99.9454	
   815	-6.4610	-0.5648	-7.0258	-5.8962	-6.4196	-0.0165	-6.4361	-6.4030	-6.3504	 0.0690	-6.2814	-6.4195	62.5939	99.9465	
   816	-6.4848	-0.5477	-7.0326	-5.9371	-6.4042	 0.0062	-6.3980	-6.4103	-6.2987	 0.1122	-6.1866	-6.4110	62.6556	99.9484	
   817	-6.3668	-0.5084	-6.8753	-5.8584	-6.2753	 0.0439	-6.2314	-6.3191	-6.1673	 0.1442	-6.0231	-6.3116	62.7577	99.9479	
   818	-6.3316	-0.4717	-6.8033	-5.8599	-6.2526	 0.0710	-6.1816	-6.3236	-6.1730	 0.1526	-6.0205	-6.3257	62.7510	99.9458	
   819	-6.3411	-0.4931	-6.8342	-5.8481	-6.3029	 0.0541	-6.2488	-6.3569	-6.2420	 0.1347	-6.1073	-6.3767	62.5981	99.9459	
   820	-6.4077	-0.5016	-6.9094	-5.9061	-6.3531	 0.0371	-6.3160	-6.3902	-6.2860	 0.1199	-6.1661	-6.4060	62.6459	99.9463	
   821	-6.4144	-0.4743	-6.8887	-5.9401	-6.3297	 0.0782	-6.2515	-6.4077	-6.2094	 0.1662	-6.0432	-6.3758	62.7564	99.9477	
   822	-6.3059	-0.4563	-6.7623	-5.8496	-6.2170	 0.0792	-6.1378	-6.2961	-6.1418	 0.1596	-5.9822	-6.3015	62.8000	99.9456	
   823	-6.3488	-0.4820	-6.8307	-5.8668	-6.2956	 0.0585	-6.2371	-6.3540	-6.2298	 0.1301	-6.0997	-6.3600	62.6951	99.9453	
   824	-6.4401	-0.4897	-6.9298	-5.9504	-6.3807	 0.0473	-6.3334	-6.4279	-6.2981	 0.1245	-6.1737	-6.4227	62.6951	99.9466	
   825	-6.4144	-0.4743	-6.8887	-5.9401	-6.3507	 0.0788	-6.2719	-6.4295	-6.2720	 0.1522	-6.1198	-6.4242	62.6501	99.9449	
   826	-6.4220	-0.4632	-6.8852	-5.9588	-6.3499	 0.0927	-6.2572	-6.4426	-6.2464	 0.1676	-6.0788	-6.4141	62.7033	99.9459	
   827	-6.3297	-0.4393	-6.7690	-5.8905	-6.2146	 0.1209	-6.0937	-6.3354	-6.0965	 0.1989	-5.8976	-6.2955	62.8595	99.9452	
   828	-6.2707	-0.4196	-6.6903	-5.8511	-6.1789	 0.1291	-6.0499	-6.3079	-6.0901	 0.2028	-5.8873	-6.2930	62.8053	99.9449	
   829	-6.3202	-0.4179	-6.7381	-5.9023	-6.2356	 0.1216	-6.1141	-6.3572	-6.1341	 0.1880	-5.9461	-6.3222	62.8504	99.9457	
   830	-6.3364	-0.4119	-6.7483	-5.9244	-6.2356	 0.1216	-6.1141	-6.3572	-6.1399	 0.1964	-5.9434	-6.3364	62.8517	99.9459	
   831	-6.3192	-0.4017	-6.7209	-5.9176	-6.2267	 0.1538	-6.0729	-6.3805	-6.1009	 0.2319	-5.8691	-6.3329	62.8106	99.9467	
   832	-6.2089	-0.3513	-6.5601	-5.8576	-6.0695	 0.1952	-5.8743	-6.2647	-5.9325	 0.2625	-5.6700	-6.1951	63.0594	99.9453	
   833	-6.1584	-0.3367	-6.4952	-5.8217	-6.0330	 0.2173	-5.8158	-6.2503	-5.8999	 0.2941	-5.6059	-6.1941	62.9658	99.9460	
   834	-6.1061	-0.2898	-6.3959	-5.8164	-5.9950	 0.2672	-5.7278	-6.2621	-5.8789	 0.3425	-5.5364	-6.2215	62.8698	99.9454	
   835	-6.1232	-0.3000	-6.4232	-5.8232	-6.0525	 0.2458	-5.8067	-6.2982	-5.9421	 0.3161	-5.6259	-6.2583	62.8132	99.9468	
   836	-6.1641	-0.2932	-6.4573	-5.8710	-6.0801	 0.2560	-5.8241	-6.3360	-5.9906	 0.3344	-5.6562	-6.3250	62.7168	99.9457	
   837	-6.1223	-0.2838	-6.4061	-5.8385	-6.0233	 0.2634	-5.7599	-6.2867	-5.8917	 0.3348	-5.5569	-6.2265	62.9159	99.9469	
   838	-6.0985	-0.3008	-6.3993	-5.7977	-5.9966	 0.2393	-5.7572	-6.2358	-5.8866	 0.3141	-5.5725	-6.2007	62.9134	99.9464	
   839	-6.1394	-0.2940	-6.4334	-5.8454	-6.0379	 0.2546	-5.7833	-6.2925	-5.9351	 0.3323	-5.6028	-6.2674	62.8172	99.9457	
   840	-6.1632	-0.2770	-6.4402	-5.8862	-6.1076	 0.2661	-5.8415	-6.3737	-6.0225	 0.3150	-5.7074	-6.3376	62.7564	99.9443	
   841	-6.2821	-0.3325	-6.6146	-5.9496	-6.2243	 0.1956	-6.0288	-6.4198	-6.1609	 0.2669	-5.8940	-6.4280	62.6528	99.9458	
   842	-6.3402	-0.3359	-6.6761	-6.0042	-6.2438	 0.2241	-6.0197	-6.4678	-6.1150	 0.3185	-5.7965	-6.4336	62.6720	99.9479	
   843	-6.2212	-0.2804	-6.5016	-5.9408	-6.1084	 0.2522	-5.8562	-6.3606	-6.0161	 0.3189	-5.6972	-6.3351	62.8595	99.9447	
   844	-6.2983	-0.3265	-6.6248	-5.9718	-6.2089	 0.2183	-5.9906	-6.4272	-6.1112	 0.2733	-5.8379	-6.3845	62.8053	99.9440	
   845	-6.4001	-0.3718	-6.7719	-6.0283	-6.3175	 0.1660	-6.1515	-6.4835	-6.2305	 0.2367	-5.9938	-6.4673	62.7033	99.9454	
   846	-6.4753	-0.3855	-6.8608	-6.0898	-6.3880	 0.1637	-6.2244	-6.5516	-6.2924	 0.2349	-6.0575	-6.5274	62.6556	99.9450	
   847	-6.4734	-0.3531	-6.8264	-6.1203	-6.3856	 0.2054	-6.1802	-6.5909	-6.2714	 0.2833	-5.9880	-6.5548	62.6135	99.9460	
   848	-6.3716	-0.3078	-6.6793	-6.0638	-6.2292	 0.2329	-5.9963	-6.4620	-6.1278	 0.3108	-5.8170	-6.4387	62.8132	99.9445	
   849	-6.3639	-0.3189	-6.6828	-6.0451	-6.2576	 0.2291	-6.0284	-6.4866	-6.1597	 0.2915	-5.8682	-6.4513	62.7590	99.9439	
   850	-6.4220	-0.3223	-6.7443	-6.0997	-6.3208	 0.2312	-6.0896	-6.5519	-6.2331	 0.3065	-5.9266	-6.5397	62.6135	99.9443	
   851	-6.4115	-0.2847	-6.6962	-6.1268	-6.3119	 0.2634	-6.0485	-6.5752	-6.2376	 0.3395	-5.8981	-6.5771	62.5644	99.9440	
   852	-6.4115	-0.2847	-6.6962	-6.1268	-6.3403	 0.2597	-6.0806	-6.5999	-6.2624	 0.3363	-5.9261	-6.5988	62.5125	99.9455	
   853	-6.4020	-0.2634	-6.6654	-6.1386	-6.3103	 0.2912	-6.0190	-6.6014	-6.1814	 0.3497	-5.8317	-6.5312	62.7141	99.9453	
   854	-6.3611	-0.2702	-6.6313	-6.0909	-6.2406	 0.2797	-5.9609	-6.5202	-6.1144	 0.3308	-5.7836	-6.4453	62.8607	99.9438	
   855	-6.3953	-0.2907	-6.6860	-6.1046	-6.2843	 0.2532	-6.0311	-6.5375	-6.1954	 0.3174	-5.8780	-6.5129	62.7101	99.9436	
   856	-6.4448	-0.2890	-6.7338	-6.1558	-6.3549	 0.2509	-6.1040	-6.6056	-6.2637	 0.3118	-5.9520	-6.5756	62.6570	99.9444	
   857	-6.4772	-0.2771	-6.7542	-6.2001	-6.3889	 0.2705	-6.1184	-6.6594	-6.2937	 0.3293	-5.9644	-6.6231	62.6093	99.9440	
   858	-6.4600	-0.2668	-6.7268	-6.1932	-6.3670	 0.2838	-6.0833	-6.6507	-6.2682	 0.3447	-5.9235	-6.6130	62.6121	99.9441	
   859	-6.4362	-0.2839	-6.7201	-6.1524	-6.3257	 0.2685	-6.0572	-6.5941	-6.2318	 0.3311	-5.9007	-6.5630	62.6625	99.9432	
   860	-6.4686	-0.2719	-6.7405	-6.1967	-6.3468	 0.2692	-6.0776	-6.6159	-6.2567	 0.3279	-5.9288	-6.5847	62.7087	99.9429	
   861	-6.4686	-0.2719	-6.7405	-6.1967	-6.3670	 0.2838	-6.0833	-6.6507	-6.2746	 0.3409	-5.9337	-6.6155	62.6121	99.9428	
   862	-6.4581	-0.2344	-6.6925	-6.2238	-6.3654	 0.3116	-6.0538	-6.6769	-6.2867	 0.3454	-5.9413	-6.6322	62.6542	99.9409	
   863	-6.5171	-0.2540	-6.7711	-6.2631	-6.4440	 0.2909	-6.1531	-6.7348	-6.3735	 0.3405	-6.0330	-6.7140	62.5053	99.9426	
   864	-6.4733	-0.2122	-6.6855	-6.2612	-6.3711	 0.3350	-6.0361	-6.7060	-6.2784	 0.3861	-5.8923	-6.6646	62.6121	99.9428	
   865	-6.3982	-0.1985	-6.5967	-6.1997	-6.3152	 0.3286	-5.9866	-6.6436	-6.2478	 0.3809	-5.8669	-6.6287	62.6065	99.9435	
   866	-6.4410	-0.2241	-6.6651	-6.2169	-6.3865	 0.3123	-6.0742	-6.6987	-6.3109	 0.3545	-5.9564	-6.6656	62.5531	99.9435	
   867	-6.5342	-0.2643	-6.7985	-6.2700	-6.4732	 0.2732	-6.2000	-6.7464	-6.4054	 0.3211	-6.0842	-6.7266	62.5010	99.9432	
   868	-6.5923	-0.2677	-6.8600	-6.3246	-6.5218	 0.2841	-6.2377	-6.8059	-6.4111	 0.3296	-6.0816	-6.7408	62.5559	99.9440	
   869	-6.5409	-0.2370	-6.7778	-6.3039	-6.4294	 0.2997	-6.1297	-6.7291	-6.3358	 0.3513	-5.9845	-6.6873	62.6570	99.9431	
   870	-6.5323	-0.2318	-6.7642	-6.3005	-6.4286	 0.3136	-6.1150	-6.7422	-6.3231	 0.3591	-5.9640	-6.6822	62.6583	99.9430	
   871	-6.5314	-0.2156	-6.7470	-6.3158	-6.4562	 0.3238	-6.1324	-6.7799	-6.3658	 0.3689	-5.9970	-6.7348	62.5559	99.9435	
   872	-6.5552	-0.1985	-6.7537	-6.3566	-6.4700	 0.3289	-6.1411	-6.7988	-6.4022	 0.3825	-6.0197	-6.7848	62.5053	99.9434	
   873	-6.5552	-0.1985	-6.7537	-6.3566	-6.4902	 0.3435	-6.1468	-6.8337	-6.3958	 0.3864	-6.0095	-6.7823	62.5067	99.9438	
   874	-6.5219	-0.1943	-6.7161	-6.3276	-6.4262	 0.3554	-6.0709	-6.7815	-6.3269	 0.4043	-5.9226	-6.7313	62.5630	99.9430	
   875	-6.4952	-0.1626	-6.6579	-6.3326	-6.3898	 0.3774	-6.0123	-6.7671	-6.2886	 0.4275	-5.8612	-6.7162	62.6135	99.9434	
   876	-6.4695	-0.1473	-6.6168	-6.3222	-6.3817	 0.3957	-5.9859	-6.7773	-6.2823	 0.4313	-5.8509	-6.7137	62.6107	99.9426	
   877	-6.4952	-0.1626	-6.6579	-6.3326	-6.4181	 0.3737	-6.0444	-6.7917	-6.3505	 0.4257	-5.9249	-6.7763	62.4604	99.9431	
   878	-6.5361	-0.1558	-6.6919	-6.3803	-6.4530	 0.3794	-6.0735	-6.8323	-6.3569	 0.4218	-5.9351	-6.7788	62.5588	99.9436	
   879	-6.4876	-0.1737	-6.6613	-6.3139	-6.3760	 0.3723	-6.0036	-6.7482	-6.2638	 0.4306	-5.8331	-6.6945	62.6176	99.9442	
   880	-6.4457	-0.1643	-6.6101	-6.2814	-6.3047	 0.3886	-5.9160	-6.6932	-6.1770	 0.4356	-5.7414	-6.6127	62.7684	99.9426	
   881	-6.4029	-0.1387	-6.5416	-6.2642	-6.2812	 0.4297	-5.8515	-6.7108	-6.1438	 0.4795	-5.6643	-6.6234	62.6761	99.9431	
   882	-6.3839	-0.0960	-6.4799	-6.2879	-6.2593	 0.4429	-5.8164	-6.7021	-6.1553	 0.4963	-5.6590	-6.6517	62.6707	99.9434	
   883	-6.4086	-0.0952	-6.5038	-6.3135	-6.3022	 0.4304	-5.8719	-6.7325	-6.2357	 0.4952	-5.7405	-6.7310	62.5182	99.9438	
   884	-6.4590	-0.1097	-6.5687	-6.3493	-6.3509	 0.4412	-5.9097	-6.7920	-6.2236	 0.4906	-5.7329	-6.7143	62.6218	99.9441	
   885	-6.4020	-0.1225	-6.5244	-6.2795	-6.2747	 0.4202	-5.8545	-6.6948	-6.1744	 0.4847	-5.6897	-6.6592	62.6232	99.9438	
   886	-6.3944	-0.1336	-6.5279	-6.2608	-6.2609	 0.4151	-5.8458	-6.6759	-6.1317	 0.4749	-5.6568	-6.6067	62.7236	99.9443	
   887	-6.3335	-0.0815	-6.4149	-6.2520	-6.1661	 0.4724	-5.6937	-6.6384	-6.0162	 0.5567	-5.4595	-6.5730	62.7383	99.9461	
   888	-6.2069	-0.0370	-6.2439	-6.1699	-6.0802	 0.4975	-5.5826	-6.5776	-5.9658	 0.5753	-5.3905	-6.5412	62.6829	99.9464	
   889	-6.2297	-0.0037	-6.2335	-6.2260	-6.0559	 0.5525	-5.5034	-6.6083	-5.9122	 0.6553	-5.2569	-6.5676	62.6520	99.9471	
   890	-5.9795	 0.1774	-5.8021	-6.1569	-5.7844	 0.7435	-5.0409	-6.5279	-5.6678	 0.8389	-4.8290	-6.5068	62.6186	99.9439	
   891	-5.8701	 0.2116	-5.6585	-6.0816	-5.7982	 0.7486	-5.0496	-6.5467	-5.7693	 0.7894	-4.9799	-6.5587	62.4404	99.9407	
   892	-6.0290	 0.1791	-5.8499	-6.2080	-5.9692	 0.7123	-5.2569	-6.6814	-5.9441	 0.7549	-5.1893	-6.6991	62.3351	99.9412	
   893	-6.1374	 0.1611	-5.9763	-6.2985	-6.0908	 0.6791	-5.4117	-6.7698	-6.0641	 0.7061	-5.3580	-6.7703	62.3723	99.9413	
   894	-6.2573	 0.0893	-6.1680	-6.3466	-6.2277	 0.6231	-5.6047	-6.8507	-6.1962	 0.6618	-5.5344	-6.8581	62.2232	99.9421	
   895	-6.3515	 0.0329	-6.3186	-6.3844	-6.3023	 0.5511	-5.7511	-6.8533	-6.2613	 0.5986	-5.6626	-6.8600	62.3172	99.9436	
   896	-6.4980	-0.0704	-6.5685	-6.4276	-6.4117	 0.4850	-5.9267	-6.8966	-6.3270	 0.5232	-5.8038	-6.8503	62.4200	99.9413	
   897	-6.6094	-0.1371	-6.7464	-6.4723	-6.5365	 0.3961	-6.1404	-6.9325	-6.4865	 0.4267	-6.0598	-6.9132	62.4023	99.9405	
   898	-6.7882	-0.2285	-7.0167	-6.5598	-6.7042	 0.2946	-6.4096	-6.9988	-6.6332	 0.3378	-6.2954	-6.9712	62.4458	99.9428	
   899	-6.8910	-0.2900	-7.1810	-6.6010	-6.8128	 0.2424	-6.5704	-7.0551	-6.7340	 0.3006	-6.4334	-7.0348	62.3469	99.9441	
   900	-6.9662	-0.3037	-7.2699	-6.6625	-6.8339	 0.2430	-6.5908	-7.0768	-6.7213	 0.3083	-6.4129	-7.0297	62.4560	99.9437	
   901	-6.8644	-0.2584	-7.1228	-6.6060	-6.7050	 0.2807	-6.4243	-6.9856	-6.6013	 0.3572	-6.2442	-6.9586	62.5125	99.9437	
   902	-6.8139	-0.2439	-7.0578	-6.5701	-6.7042	 0.2946	-6.4096	-6.9988	-6.6141	 0.3494	-6.2646	-6.9636	62.4546	99.9430	
   903	-6.8558	-0.2533	-7.1091	-6.6025	-6.7682	 0.2827	-6.4855	-7.0509	-6.6951	 0.3361	-6.3591	-7.0313	62.3500	99.9429	
   904	-6.9129	-0.2405	-7.1534	-6.6724	-6.7950	 0.3068	-6.4882	-7.1017	-6.6996	 0.3690	-6.3306	-7.0687	62.3589	99.9430	
   905	-6.8358	-0.1944	-7.0302	-6.6415	-6.7359	 0.3560	-6.3798	-7.0918	-6.6167	 0.4192	-6.1974	-7.0360	62.3649	99.9449	
   906	-6.7093	-0.1499	-6.8592	-6.5594	-6.5503	 0.4012	-6.1491	-6.9513	-6.4290	 0.4614	-5.9676	-6.8906	62.5714	99.9427	
   907	-6.6255	-0.1311	-6.7566	-6.4944	-6.5000	 0.4181	-6.0819	-6.9181	-6.4048	 0.4523	-5.9525	-6.8572	62.5630	99.9403	
   908	-6.7017	-0.1610	-6.8627	-6.5407	-6.6086	 0.3659	-6.2427	-6.9744	-6.5433	 0.4042	-6.1391	-6.9475	62.4517	99.9416	
   909	-6.8539	-0.2208	-7.0747	-6.6331	-6.7877	 0.3112	-6.4765	-7.0989	-6.7372	 0.3581	-6.3791	-7.0955	62.2464	99.9421	
   910	-6.9614	-0.2226	-7.1840	-6.7388	-6.8801	 0.2956	-6.5845	-7.1757	-6.8119	 0.3486	-6.4633	-7.1606	62.2944	99.9438	
   911	-6.9452	-0.2285	-7.1738	-6.7167	-6.8509	 0.3133	-6.5377	-7.1641	-6.7551	 0.3711	-6.3840	-7.1263	62.3051	99.9438	
   912	-6.8958	-0.2302	-7.1260	-6.6655	-6.7950	 0.3068	-6.4882	-7.1017	-6.7002	 0.3568	-6.3435	-7.0571	62.4023	99.9432	
   913	-6.9034	-0.2191	-7.1225	-6.6842	-6.7950	 0.3068	-6.4882	-7.1017	-6.7245	 0.3659	-6.3586	-7.0904	62.3515	99.9431	
   914	-6.9034	-0.2191	-7.1225	-6.6842	-6.8226	 0.3170	-6.5056	-7.1395	-6.7430	 0.3665	-6.3764	-7.1096	62.3005	99.9431	
   915	-6.9024	-0.2029	-7.1053	-6.6995	-6.8218	 0.3309	-6.4908	-7.1526	-6.7417	 0.3911	-6.3506	-7.1329	62.2541	99.9442	
   916	-6.9015	-0.1867	-7.0881	-6.7148	-6.8064	 0.3536	-6.4527	-7.1599	-6.7041	 0.4020	-6.3021	-7.1062	62.3559	99.9434	
   917	-6.8187	-0.1841	-7.0028	-6.6346	-6.7075	 0.3598	-6.3477	-7.0672	-6.6167	 0.4192	-6.1974	-7.0360	62.3619	99.9431	
   918	-6.8092	-0.1628	-6.9719	-6.6464	-6.6929	 0.3686	-6.3243	-7.0614	-6.5981	 0.4185	-6.1796	-7.0168	62.4575	99.9430	
   919	-6.7673	-0.1533	-6.9207	-6.6140	-6.6556	 0.4045	-6.2511	-7.0601	-6.5286	 0.4487	-6.0799	-6.9774	62.4662	99.9428	
   920	-6.5723	-0.0679	-6.6401	-6.5044	-6.4182	 0.4945	-5.9237	-6.9126	-6.2491	 0.5941	-5.6550	-6.8433	62.4964	99.9482	
   921	-6.0765	 0.2132	-5.8633	-6.2897	-5.8436	 0.8151	-5.0285	-6.6587	-5.6206	 0.9150	-4.7056	-6.5357	62.7350	99.9464	
   922	-5.0556	 0.7148	-4.3408	-5.7703	-4.8265	 1.2423	-3.5842	-6.0688	-4.6507	 1.2642	-3.3866	-5.9150	63.3647	99.9426	
   923	-4.1926	 0.9183	-3.2744	-5.1109	-4.1004	 1.3862	-2.7141	-5.4865	-3.8876	 1.4406	-2.4469	-5.3283	63.5651	99.9556	
   924	-3.8891	 0.8808	-3.0083	-4.7699	-3.5598	 1.4850	-2.0748	-5.0447	-3.3815	 1.5447	-1.8368	-4.9264	63.7414	99.9386	
   925	-3.5019	 1.0030	-2.4989	-4.5049	-3.5161	 1.8738	-1.6423	-5.3899	-2.8123	 1.6752	-1.1371	-4.4876	64.2658	99.9378	
   926	-4.0670	 0.9465	-3.1206	-5.0135	-3.7308	 1.5695	-2.1613	-5.3002	-3.4154	 1.6075	-1.8079	-5.0230	63.9332	99.9425	
   927	-3.7654	 1.0175	-2.7480	-4.7829	-3.4990	 1.5620	-1.9370	-5.0609	-3.2903	 1.6356	-1.6547	-4.9260	63.7859	99.9473	
   928	-3.5133	 1.0901	-2.4232	-4.6034	-3.2858	 1.5970	-1.6889	-4.8827	-3.1875	 1.5908	-1.5967	-4.7784	63.9535	99.9384	
   929	-3.5742	 1.0380	-2.5362	-4.6122	-3.3644	 1.5763	-1.7882	-4.9406	-3.2622	 1.5813	-1.6809	-4.8436	63.7697	99.9383	
   930	-3.5333	 1.0312	-2.5021	-4.5645	-3.3369	 1.5661	-1.7708	-4.9029	-3.2750	 1.5736	-1.7014	-4.8486	63.6735	99.9370	
   931	-3.5609	 0.9834	-2.5775	-4.5443	-3.3442	 1.5617	-1.7825	-4.9058	-3.2686	 1.5774	-1.6912	-4.8461	63.5877	99.9350	
   932	-3.5780	 0.9731	-2.6049	-4.5511	-3.3020	 1.5603	-1.7417	-4.8623	-3.1760	 1.5740	-1.6021	-4.7501	63.8270	99.9348	
   933	-3.3449	 1.0031	-2.3418	-4.3480	-3.0475	 1.5800	-1.4675	-4.6275	-2.9150	 1.6011	-1.3139	-4.5162	64.0172	99.9358	
   934	-3.1984	 0.9656	-2.2329	-4.1640	-2.9081	 1.5569	-1.3512	-4.4650	-2.7861	 1.5840	-1.2021	-4.3702	64.0197	99.9352	
   935	-3.1841	 0.9271	-2.2570	-4.1113	-2.8894	 1.5145	-1.3749	-4.4039	-2.7516	 1.5335	-1.2181	-4.2853	64.1564	99.9355	
   936	-3.2365	 0.8802	-2.3563	-4.1166	-2.9267	 1.4786	-1.4481	-4.4052	-2.7784	 1.4935	-1.2849	-4.2720	64.2025	99.9344	
   937	-3.2631	 0.8485	-2.4146	-4.1117	-2.9770	 1.4616	-1.5154	-4.4385	-2.8218	 1.4910	-1.3308	-4.3130	64.0658	99.9360	
   938	-3.1784	 0.8836	-2.2949	-4.0620	-2.8489	 1.4854	-1.3635	-4.3342	-2.6853	 1.5023	-1.1829	-4.1877	64.2973	99.9345	
   939	-3.0205	 0.8999	-2.1207	-3.9204	-2.7006	 1.4945	-1.2061	-4.1950	-2.5678	 1.5021	-1.0658	-4.0700	64.3418	99.9328	
   940	-2.9796	 0.8930	-2.0866	-3.8726	-2.6868	 1.4894	-1.1974	-4.1761	-2.5563	 1.4852	-1.0711	-4.0417	64.3398	99.9325	
   941	-3.0215	 0.8836	-2.1378	-3.9051	-2.7233	 1.4674	-1.2559	-4.1906	-2.6182	 1.4834	-1.1348	-4.1018	64.2470	99.9335	
   942	-3.0386	 0.8734	-2.1652	-3.9120	-2.7378	 1.4586	-1.2793	-4.1963	-2.6068	 1.4666	-1.1401	-4.0735	64.3391	99.9341	
   943	-2.9882	 0.8879	-2.1002	-3.8761	-2.6803	 1.4799	-1.2004	-4.1602	-2.5200	 1.4716	-1.0484	-3.9916	64.4781	99.9335	
   944	-2.8474	 0.8939	-1.9534	-3.7413	-2.5393	 1.4847	-1.0546	-4.0239	-2.4210	 1.4720	-0.9491	-3.8931	64.4775	99.9309	
   945	-2.7979	 0.8922	-1.9056	-3.6901	-2.5125	 1.4606	-1.0519	-3.9730	-2.4223	 1.4474	-0.9749	-3.8698	64.4736	99.9316	
   946	-2.8588	 0.8401	-2.0186	-3.6989	-2.5919	 1.4260	-1.1659	-4.0178	-2.4855	 1.4211	-1.0644	-3.9067	64.3823	99.9328	
   947	-2.8997	 0.8470	-2.0527	-3.7467	-2.6211	 1.4083	-1.2128	-4.0294	-2.4931	 1.3927	-1.1005	-3.8859	64.5637	99.9341	
   948	-2.9425	 0.8213	-2.1212	-3.7638	-2.6641	 1.3958	-1.2683	-4.0598	-2.5301	 1.3941	-1.1361	-3.9243	64.4736	99.9349	
   949	-2.9006	 0.8307	-2.0699	-3.7314	-2.5863	 1.4026	-1.1837	-3.9888	-2.4370	 1.4029	-1.0341	-3.8400	64.6138	99.9348	
   950	-2.7446	 0.8146	-1.9301	-3.5592	-2.4671	 1.3941	-1.0730	-3.8611	-2.3266	 1.3865	-0.9401	-3.7131	64.6132	99.9346	
   951	-2.7617	 0.8043	-1.9574	-3.5661	-2.4614	 1.3707	-1.0907	-3.8320	-2.3196	 1.4026	-0.9170	-3.7222	64.5704	99.9382	
   952	-2.7370	 0.8035	-1.9335	-3.5405	-2.4557	 1.3473	-1.1085	-3.8029	-2.3661	 1.3387	-1.0274	-3.7050	64.6538	99.9337	
   953	-2.8046	 0.7787	-2.0259	-3.5832	-2.5190	 1.3493	-1.1696	-3.8682	-2.3968	 1.3440	-1.0528	-3.7408	64.6108	99.9339	
   954	-2.7855	 0.8214	-1.9641	-3.6069	-2.5028	 1.3860	-1.1168	-3.8886	-2.3578	 1.3794	-0.9784	-3.7374	64.6578	99.9356	
   955	-2.6818	 0.8991	-1.7827	-3.5809	-2.3934	 1.4521	-0.9412	-3.8454	-2.2321	 1.4198	-0.8123	-3.6521	64.8409	99.9348	
   956	-2.4906	 0.9197	-1.5709	-3.4103	-2.2248	 1.4467	-0.7781	-3.6714	-2.1160	 1.3950	-0.7210	-3.5111	64.9284	99.9327	
   957	-2.5011	 0.8821	-1.6190	-3.3832	-2.2620	 1.4107	-0.8513	-3.6727	-2.1734	 1.3602	-0.8132	-3.5337	64.8347	99.9325	
   958	-2.6276	 0.8377	-1.7899	-3.4653	-2.3974	 1.3826	-1.0148	-3.7799	-2.2800	 1.3314	-0.9485	-3.6115	64.7888	99.9333	
   959	-2.7551	 0.7770	-1.9781	-3.5321	-2.4922	 1.3252	-1.1670	-3.8173	-2.3680	 1.3019	-1.0661	-3.6700	64.7445	99.9347	
   960	-2.8055	 0.7625	-2.0431	-3.5680	-2.5133	 1.3259	-1.1874	-3.8391	-2.3616	 1.3058	-1.0559	-3.6675	64.7931	99.9344	
   961	-2.7817	 0.7454	-2.0364	-3.5271	-2.5003	 1.3069	-1.1934	-3.8071	-2.3380	 1.2844	-1.0536	-3.6225	64.8383	99.9353	
   962	-2.6828	 0.7420	-1.9408	-3.4248	-2.3747	 1.2889	-1.0857	-3.6635	-2.2219	 1.2596	-0.9623	-3.4815	65.0208	99.9341	
   963	-2.6628	 0.6600	-2.0028	-3.3229	-2.3860	 1.2150	-1.1710	-3.6008	-2.2435	 1.1989	-1.0447	-3.4425	64.9284	99.9354	
   964	-2.7237	 0.7488	-1.9749	-3.4725	-2.4103	 1.2808	-1.1295	-3.6910	-2.2972	 1.2378	-1.0594	-3.5350	65.0176	99.9313	
   965	-2.6219	 0.7941	-1.8278	-3.4160	-2.4030	 1.2852	-1.1178	-3.6881	-2.3029	 1.2462	-1.0567	-3.5492	64.9216	99.9373	
   966	-2.8379	 0.6335	-2.2044	-3.4714	-2.8309	 1.0667	-1.7642	-3.8975	-2.9589	 0.9919	-1.9670	-3.9509	64.2364	99.9325	
   967	-3.3336	 0.6342	-2.6994	-3.9678	-3.3351	 1.1108	-2.2243	-4.4458	-3.3628	 1.0685	-2.2944	-4.4314	63.8656	99.9385	
   968	-3.4515	 0.7358	-2.7157	-4.1873	-3.5159	 1.1491	-2.3668	-4.6649	-3.5652	 1.1006	-2.4645	-4.6659	63.7576	99.9429	
   969	-3.6694	 0.6836	-2.9858	-4.3530	-3.7306	 1.0863	-2.6443	-4.8169	-3.7464	 1.0623	-2.6841	-4.8088	63.7089	99.9472	
   970	-3.7579	 0.5837	-3.1742	-4.3416	-3.7841	 1.0137	-2.7704	-4.7977	-3.5952	 1.1181	-2.4770	-4.7134	63.7411	99.9638	
   971	-3.3916	 0.6308	-2.7608	-4.0224	-3.2800	 1.0904	-2.1896	-4.3703	-2.8403	 1.2539	-1.5863	-4.0943	64.5208	99.9721	
   972	-2.7513	 0.5601	-2.1912	-3.3114	-2.5861	 0.9194	-1.6666	-3.5054	-2.3577	 0.9039	-1.4538	-3.2616	65.6481	99.9551	
   973	-3.6990	 0.3216	-3.3774	-4.0205	-4.2630	 0.7643	-3.4987	-5.0272	-4.4087	 0.6853	-3.7234	-5.0940	62.4734	99.9506	
   974	-4.3839	 0.4750	-3.9089	-4.8590	-4.5468	 0.8478	-3.6990	-5.3944	-4.3908	 0.7912	-3.5997	-5.1821	63.8774	99.9572	
   975	-3.7122	 0.5171	-3.1952	-4.2293	-3.7711	 0.8739	-2.8972	-4.6449	-3.5746	 0.7976	-2.7770	-4.3723	64.7466	99.9555	
   976	-3.1281	 0.4754	-2.6527	-3.6035	-3.2191	 0.8051	-2.4140	-4.0240	-3.1209	 0.7274	-2.3935	-3.8483	64.9327	99.9537	
   977	-3.1081	 0.3935	-2.7147	-3.5016	-3.1680	 0.8359	-2.3321	-4.0039	-2.9977	 0.8376	-2.1602	-3.8354	64.5290	99.9561	
