OxySoft export of:	C:\Users\TO3 TechSupport\Documents\Train2Adapt\Post_tests\T2A_23_POST_NIRS
Export date:	2022/12/22 08:08:08
Start of measurement:	2022-12-22 07:08:57.293

Datafile sample rate:	10.00	Hz
Datafile duration:	3521.100	s
Datafile total number of samples:	35211

Description:	

Optode-template:	PortaMon TSI Fit Factor
Optode distance (mm):	 35.00
Optode gradients (mm):	 5.00
DPF:	6.17

Device id:	334
# Receivers:	1
# Light sources:	6
# ADC:	2

Light source wavelengths:
device	index	wavelength
1	1	849	nm
1	2	759	nm
1	3	846	nm
1	4	757	nm
1	5	848	nm
1	6	757	nm

Export sample rate:	10.00	Hz
Selected time span:	0	3521.100
Selected time span (sample numbers):	0	35211


Legend:
Column	Trace (Measurement)
1	(Sample number)
2	Rx1-Tx1 O2Hb (T2A_23_POST_NIRS)
3	Rx1-Tx1 HHb (T2A_23_POST_NIRS)
4	Rx1-Tx1 tHb (T2A_23_POST_NIRS)
5	Rx1-Tx2 O2Hb (T2A_23_POST_NIRS)
6	Rx1-Tx2 HHb (T2A_23_POST_NIRS)
7	Rx1-Tx2 tHb (T2A_23_POST_NIRS)
8	Rx1-Tx3 O2Hb (T2A_23_POST_NIRS)
9	Rx1-Tx3 HHb (T2A_23_POST_NIRS)
10	Rx1-Tx3 tHb (T2A_23_POST_NIRS)
11	Rx1-Tx1,Tx2,Tx3 TSI% (T2A_23_POST_NIRS)
12	Rx1-Tx1,Tx2,Tx3 TSI Fit Factor (T2A_23_POST_NIRS)
13	(Event)


1	2	3	4	5	6	7	8	9	10	11	12	13
     0	114.8049	56.1305	170.9353	87.6531	43.5710	131.2240	65.7723	37.0203	102.7924	11.5652	98.7634	
     1	-0.0258	-0.0309	-0.0567	-0.0017	-0.0271	-0.0289	-0.0908	 0.0684	-0.0226	64.0323	99.9566	
     2	-0.0577	-0.0355	-0.0932	-0.0554	-0.0081	-0.0636	-0.1373	 0.0848	-0.0526	63.9426	99.9566	
     3	-0.0742	-0.0456	-0.1199	-0.0302	-0.0447	-0.0750	-0.1046	 0.0369	-0.0678	64.1220	99.9572	
     4	-0.0897	-0.0401	-0.1298	-0.0571	-0.0352	-0.0924	-0.1954	 0.1053	-0.0902	63.8226	99.9568	
     5	-0.0258	-0.0309	-0.0567	 0.0000	-0.0000	-0.0001	 0.0137	 0.0314	 0.0451	64.3031	99.9565	
     6	 0.0856	-0.0226	 0.0630	 0.1171	 0.0070	 0.1241	 0.0391	 0.0588	 0.0978	64.1528	99.9592	
     7	 0.0392	-0.0060	 0.0332	 0.0483	 0.0037	 0.0519	 0.0137	 0.0314	 0.0451	64.2712	99.9572	
     8	 0.0289	-0.0425	-0.0136	 0.0403	-0.0143	 0.0260	-0.0328	 0.0479	 0.0150	64.0922	99.9579	
     9	-0.0010	-0.0157	-0.0167	 0.0403	-0.0143	 0.0260	-0.0328	 0.0479	 0.0150	64.1819	99.9579	
    10	-0.0010	-0.0157	-0.0167	 0.0403	-0.0143	 0.0260	-0.0328	 0.0479	 0.0150	64.1819	99.9579	
    11	-0.0175	-0.0258	-0.0433	 0.0000	-0.0000	-0.0001	-0.0581	 0.0205	-0.0377	64.2107	99.9592	
    12	-0.0412	-0.0253	-0.0666	-0.0285	-0.0176	-0.0462	-0.0774	-0.0030	-0.0804	64.2697	99.9584	
    13	-0.0732	-0.0299	-0.1031	-0.0822	 0.0014	-0.0810	-0.0774	-0.0030	-0.0804	64.3004	99.9573	
    14	-0.0897	-0.0401	-0.1298	-0.0571	-0.0352	-0.0924	-0.1027	-0.0303	-0.1332	64.3294	99.9592	
    15	-0.0330	-0.0203	-0.0533	 0.0000	-0.0000	-0.0001	 0.0464	-0.0164	 0.0299	64.5112	99.9572	
    16	 0.0866	-0.0069	 0.0797	 0.1423	-0.0295	 0.1127	 0.1183	-0.0055	 0.1127	64.4810	99.9573	
    17	 0.0546	-0.0115	 0.0431	 0.0672	-0.0237	 0.0433	 0.0464	-0.0164	 0.0299	64.4199	99.9569	
    18	 0.0144	-0.0212	-0.0068	 0.0403	-0.0143	 0.0260	-0.0001	-0.0000	-0.0002	64.3305	99.9584	
    19	 0.0144	-0.0212	-0.0068	 0.0000	-0.0000	-0.0001	-0.0001	-0.0000	-0.0002	64.3305	99.9568	
    20	-0.0000	 0.0000	 0.0000	 0.0000	-0.0000	-0.0001	-0.0001	-0.0000	-0.0002	64.3901	99.9565	
    21	-0.0010	-0.0157	-0.0167	 0.0252	-0.0366	-0.0115	-0.0309	-0.0194	-0.0504	64.3592	99.9579	
    22	-0.0330	-0.0203	-0.0533	-0.0285	-0.0176	-0.0462	-0.0309	-0.0194	-0.0504	64.3898	99.9569	
    23	-0.0567	-0.0198	-0.0765	-0.0302	-0.0447	-0.0750	-0.0447	-0.0509	-0.0956	64.4787	99.9573	
    24	-0.0887	-0.0244	-0.1131	-0.0571	-0.0352	-0.0924	-0.0447	-0.0509	-0.0956	64.5093	99.9573	
    25	-0.0258	-0.0309	-0.0567	-0.0017	-0.0271	-0.0289	-0.0309	-0.0194	-0.0504	64.3600	99.9581	
    26	 0.1021	-0.0125	 0.0896	 0.1423	-0.0295	 0.1127	 0.1183	-0.0055	 0.1127	64.4510	99.9570	
    27	 0.1021	-0.0125	 0.0896	 0.1020	-0.0153	 0.0866	 0.1045	-0.0370	 0.0674	64.5095	99.9572	
    28	 0.0299	-0.0268	 0.0031	 0.0252	-0.0366	-0.0115	 0.0599	-0.0878	-0.0280	64.6282	99.9569	
    29	 0.0134	-0.0369	-0.0235	 0.0252	-0.0366	-0.0115	 0.0599	-0.0878	-0.0280	64.6286	99.9577	
    30	-0.0328	-0.2613	-0.2941	-0.0736	-0.4099	-0.4836	-0.2036	-0.6182	-0.8219	65.1907	99.9636	
    31	-0.4540	-0.7769	-1.2308	-0.5880	-0.8439	-1.4320	-0.7422	-0.9909	-1.7332	64.7634	99.9620	
    32	-0.4159	-0.6781	-1.0940	-0.5019	-0.6737	-1.1756	-0.5899	-0.8268	-1.4168	64.7371	99.9635	
    33	-0.2098	-0.5512	-0.7610	-0.2974	-0.5868	-0.8843	-0.5287	-0.6971	-1.2259	64.4933	99.9656	
    34	-0.1233	-0.4377	-0.5610	-0.2121	-0.4301	-0.6424	-0.3992	-0.6157	-1.0150	64.6160	99.9680	
    35	-0.3353	-0.8998	-1.2350	-0.6994	-1.1989	-1.8984	-1.3372	-1.7069	-3.0442	65.2716	99.9775	
    36	-1.7251	-2.0719	-3.7970	-2.2046	-2.3344	-4.5392	-2.7852	-2.6966	-5.4819	64.8219	99.9695	
    37	-1.8662	-2.1739	-4.0401	-2.0556	-2.2556	-4.3113	-2.3030	-2.4735	-4.7766	65.0255	99.9662	
    38	-1.4622	-2.0457	-3.5079	-1.6615	-2.2081	-3.8697	-1.9645	-2.4660	-4.4306	65.3362	99.9668	
    39	-1.4386	-1.9257	-3.3643	-1.5754	-2.0379	-3.6133	-1.7891	-2.1163	-3.9055	64.9068	99.9599	
    40	-1.4185	-1.3707	-2.7892	-1.4676	-1.4118	-2.8794	-1.5610	-1.2888	-2.8500	64.1866	99.9516	
    41	-0.7648	-0.3200	-1.0848	-0.7956	-0.5422	-1.3379	-0.8476	-0.7721	-1.6198	65.3106	99.9598	
    42	-1.2819	-0.8494	-2.1313	-1.4942	-0.9596	-2.4539	-1.5711	-0.9644	-2.5356	64.1806	99.9489	
    43	-1.2831	-0.6241	-1.9072	-1.4580	-0.8201	-2.2783	-1.4974	-1.0207	-2.5182	64.9113	99.9545	
    44	-1.4687	-0.6780	-2.1467	-1.6326	-0.7585	-2.3912	-1.5817	-0.8457	-2.4275	64.4284	99.9504	
    45	-1.0320	-0.1680	-1.2000	-0.9604	-0.2142	-1.1746	-0.7710	-0.2906	-1.0617	64.8052	99.9534	
    46	-0.0050	-0.1990	-0.2040	-0.4359	-0.6070	-1.0431	-0.8661	-1.2741	-2.1402	65.9291	99.9718	
    47	-1.0265	-1.5514	-2.5779	-1.7235	-2.1031	-3.8268	-2.4464	-2.8829	-5.3295	66.1368	99.9743	
    48	-1.9342	-2.2459	-4.1801	-2.6770	-2.7556	-5.4327	-3.4919	-3.4942	-6.9862	65.7170	99.9760	
    49	-2.4101	-2.7499	-5.1600	-3.4886	-3.3337	-6.8224	-4.5147	-3.8291	-8.3438	64.3470	99.9634	
    50	-2.9419	-3.0170	-5.9589	-4.0872	-3.4681	-7.5554	-4.8739	-3.8837	-8.7578	63.9864	99.9528	
    51	-3.1678	-2.9601	-6.1278	-4.3327	-3.3329	-7.6657	-5.1654	-3.7020	-8.8676	63.3522	99.9550	
    52	-3.5969	-2.7419	-6.3388	-4.9424	-3.0968	-8.0392	-5.7894	-3.5240	-9.3135	62.7266	99.9529	
    53	-4.2270	-2.6926	-6.9196	-5.6516	-3.0261	-8.6778	-6.4049	-3.5002	-9.9052	62.4766	99.9491	
    54	-4.6692	-2.7991	-7.4683	-6.1679	-3.1619	-9.3299	-6.9124	-3.7507	-10.6632	62.6176	99.9503	
    55	-5.2246	-3.1862	-8.4108	-6.7163	-3.5908	-10.3072	-7.3918	-4.2230	-11.6150	63.0108	99.9479	
    56	-5.3965	-3.5181	-8.9146	-6.7623	-3.9966	-10.7590	-7.3131	-4.6867	-11.9999	64.0424	99.9468	
    57	-5.2693	-3.8770	-9.1463	-6.6563	-4.3869	-11.0433	-7.1016	-5.1126	-12.2143	64.7274	99.9413	
    58	-5.0947	-4.2368	-9.3314	-6.4361	-4.7068	-11.1430	-6.7958	-5.3538	-12.1497	64.9713	99.9365	
    59	-4.8987	-4.2669	-9.1656	-6.1008	-4.7215	-10.8224	-6.4319	-5.3189	-11.7509	65.2131	99.9388	
    60	-4.7296	-4.3436	-9.0732	-5.9136	-4.8015	-10.7152	-6.2761	-5.3921	-11.6683	65.3145	99.9405	
    61	-4.7325	-4.5112	-9.2437	-5.8595	-4.9244	-10.7840	-6.0699	-5.5134	-11.5834	65.6855	99.9372	
    62	-4.5201	-4.5312	-9.0513	-5.5225	-4.9120	-10.4346	-5.6196	-5.4243	-11.0440	65.9169	99.9340	
    63	-4.2736	-4.5152	-8.7888	-5.2766	-4.9297	-10.2064	-5.4295	-5.4188	-10.8484	65.9501	99.9340	
    64	-4.4016	-4.4131	-8.8147	-5.3521	-4.8200	-10.1722	-5.4379	-5.2645	-10.7025	65.8826	99.9307	
    65	-4.4883	-4.2856	-8.7739	-5.5799	-4.6219	-10.2019	-5.7050	-4.8735	-10.5786	64.6616	99.9186	
    66	-5.1177	-3.8590	-8.9768	-6.1533	-4.0250	-10.1783	-6.2302	-4.1431	-10.3734	63.3913	99.9196	
    67	-5.4624	-3.5587	-9.0211	-6.5065	-3.7480	-10.2546	-6.7055	-3.8602	-10.5657	62.8200	99.9244	
    68	-5.2802	-3.3108	-8.5910	-6.3167	-3.5659	-9.8828	-6.5535	-3.7988	-10.3524	63.2095	99.9307	
    69	-5.1698	-3.3183	-8.4881	-6.2219	-3.5856	-9.8076	-6.4446	-3.7647	-10.2094	63.1476	99.9255	
    70	-4.8803	-3.1250	-8.0052	-5.8730	-3.3837	-9.2568	-6.1519	-3.5351	-9.6872	63.0593	99.9298	
    71	-4.6484	-2.9672	-7.6156	-5.6392	-3.2657	-8.9050	-5.9404	-3.4706	-9.4111	63.2887	99.9322	
    72	-4.5546	-2.9848	-7.5393	-5.5703	-3.2623	-8.8328	-5.8657	-3.4123	-9.2781	63.0961	99.9286	
    73	-4.4772	-3.0125	-7.4897	-5.4898	-3.2908	-8.7807	-5.7692	-3.3858	-9.1551	63.0362	99.9246	
    74	-4.3599	-2.7895	-7.1494	-5.2689	-3.0506	-8.3196	-5.5012	-3.1718	-8.6730	63.2474	99.9291	
    75	-4.1878	-2.6987	-6.8864	-5.0930	-2.9813	-8.0744	-5.3150	-3.1346	-8.4498	63.4444	99.9296	
    76	-4.1320	-2.8150	-6.9470	-5.0520	-3.2033	-8.2554	-5.2426	-3.4084	-8.6511	64.0235	99.9251	
    77	-4.1863	-3.1650	-7.3513	-5.0811	-3.5597	-8.6409	-5.1469	-3.6904	-8.8375	64.3211	99.9143	
    78	-4.0780	-3.2039	-7.2819	-4.8171	-3.6184	-8.4356	-4.7091	-3.9056	-8.6149	65.4893	99.9208	
    79	-4.0456	-3.6813	-7.7269	-4.7562	-4.1796	-8.9358	-4.5333	-4.6276	-9.1610	66.7820	99.9212	
    80	-3.8370	-4.0051	-7.8421	-4.4735	-4.4870	-8.9606	-4.1927	-4.8811	-9.0740	67.1295	99.9187	
    81	-3.6027	-4.1775	-7.7802	-4.2183	-4.5772	-8.7956	-3.9568	-4.9039	-8.8609	66.9311	99.9207	
    82	-3.3439	-4.2141	-7.5580	-3.9547	-4.5319	-8.4867	-3.6633	-4.8563	-8.5197	66.8932	99.9231	
    83	-3.1789	-4.2331	-7.4120	-3.7491	-4.5354	-8.2846	-3.5011	-4.8228	-8.3240	66.8267	99.9257	
    84	-3.0562	-4.1727	-7.2289	-3.6046	-4.4204	-8.0251	-3.3059	-4.7344	-8.0404	66.8852	99.9282	
    85	-3.0346	-4.2046	-7.2391	-3.6446	-4.5101	-8.1547	-3.4357	-4.9186	-8.3543	67.0869	99.9326	
    86	-3.5322	-4.5562	-8.0884	-4.2521	-4.8973	-9.1495	-4.0589	-5.2190	-9.2780	66.7450	99.9221	
    87	-4.3510	-4.4874	-8.8384	-4.9999	-4.7853	-9.7853	-4.9138	-4.9351	-9.8490	65.6504	99.9229	
    88	-4.7855	-4.1067	-8.8922	-5.4635	-4.4070	-9.8706	-5.2450	-4.5275	-9.7726	65.2963	99.9127	
    89	-4.5030	-4.0233	-8.5263	-5.0123	-4.3243	-9.3367	-4.5845	-4.5914	-9.1760	66.4457	99.9182	
    90	-4.2885	-4.1324	-8.4208	-4.7462	-4.4598	-9.2062	-4.2508	-4.8606	-9.1115	67.2719	99.9235	
    91	-3.9263	-4.4068	-8.3331	-4.3179	-4.7426	-9.0606	-3.9484	-5.0583	-9.0067	67.3019	99.9273	
    92	-3.6736	-4.4171	-8.0908	-4.2230	-4.7623	-8.9854	-3.9595	-5.1451	-9.1048	67.1870	99.9293	
    93	-3.7561	-4.4679	-8.2239	-4.4300	-4.8898	-9.3199	-4.4207	-5.2183	-9.6391	66.5911	99.9302	
    94	-4.4699	-4.1235	-8.5934	-5.2422	-4.2707	-9.5131	-5.3210	-4.3130	-9.6341	64.0990	99.9274	
    95	-4.2770	-3.2209	-7.4978	-4.8640	-3.2698	-8.1338	-4.8373	-3.2792	-8.1166	63.7437	99.9331	
    96	-3.6276	-2.9718	-6.5995	-3.9950	-2.9818	-6.9769	-3.9255	-3.0141	-6.9398	64.3013	99.9425	
    97	-2.3576	-2.6723	-5.0299	-2.5406	-2.6585	-5.1992	-2.4687	-2.7600	-5.2288	65.1219	99.9528	
    98	-0.6848	-2.0193	-2.7041	-0.7713	-2.1282	-2.8996	-0.9669	-2.3523	-3.3193	65.7994	99.9663	
    99	 0.3212	-1.6412	-1.3200	 0.3281	-1.7764	-1.4484	 0.1445	-2.1215	-1.9771	66.5577	99.9716	
   100	 0.7035	-1.3607	-0.6572	 0.8432	-1.5502	-0.7071	 0.8303	-1.9642	-1.1340	67.3605	99.9703	
   101	 0.8808	-1.3118	-0.4310	 0.9590	-1.6741	-0.7152	 0.8516	-2.3955	-1.5440	68.4518	99.9765	
   102	 0.2773	-2.0752	-1.7979	-0.0879	-2.7225	-2.8105	-0.7369	-3.7472	-4.4842	68.7574	99.9831	
   103	-0.3036	-2.7343	-3.0379	-1.0327	-3.5649	-4.5976	-2.2194	-4.6218	-6.8414	68.0515	99.9868	
   104	-1.0461	-3.6889	-4.7349	-2.5236	-4.6916	-7.2153	-4.0701	-5.7962	-9.8664	67.0540	99.9791	
   105	-3.4360	-4.9039	-8.3399	-5.2397	-5.7661	-11.0058	-6.5899	-6.5586	-13.1486	65.1141	99.9555	
   106	-5.2744	-4.9353	-10.2098	-6.8416	-5.5944	-12.4361	-7.6133	-6.1183	-13.7317	64.3578	99.9321	
   107	-5.6261	-4.8654	-10.4915	-6.8550	-5.5897	-12.4448	-7.1439	-6.3023	-13.4463	66.4763	99.9296	
   108	-5.0700	-5.2014	-10.2714	-5.9822	-5.8981	-11.8804	-6.0024	-6.5543	-12.5568	67.8013	99.9271	
   109	-4.4019	-5.1519	-9.5538	-5.0827	-5.6693	-10.7521	-4.9132	-6.2005	-11.1138	67.9119	99.9286	
   110	-3.8639	-4.9111	-8.7750	-4.4391	-5.3640	-9.8032	-4.1655	-5.9017	-10.0673	68.1736	99.9311	
   111	-3.6351	-4.8004	-8.4355	-4.1838	-5.2328	-9.4167	-3.9188	-5.7467	-9.6656	68.0995	99.9323	
   112	-3.6341	-4.7847	-8.4188	-4.1696	-5.2240	-9.3936	-3.9257	-5.7625	-9.6883	68.1661	99.9349	
   113	-4.0661	-4.8547	-8.9207	-4.6942	-5.2738	-9.9682	-4.5438	-5.6833	-10.2272	67.2729	99.9296	
   114	-4.9657	-4.3232	-9.2889	-5.6100	-4.4452	-10.0553	-5.3836	-4.6602	-10.0438	65.1999	99.9285	
   115	-4.3850	-3.4231	-7.8081	-4.8528	-3.6404	-8.4933	-4.6728	-3.8942	-8.5672	65.4585	99.9361	
   116	-3.4663	-3.4152	-6.8815	-3.7422	-3.4378	-7.1801	-3.4983	-3.6009	-7.0994	65.5229	99.9438	
   117	-1.6417	-2.9853	-4.6270	-1.8253	-3.1811	-5.0064	-2.0079	-3.5766	-5.5847	66.5872	99.9670	
   118	-0.1051	-2.2353	-2.3403	 0.0399	-2.4356	-2.3958	-0.1620	-2.8728	-3.0349	67.3901	99.9767	
   119	 0.5400	-1.8080	-1.2680	 0.7183	-2.1218	-1.4036	 0.7564	-2.6948	-1.9385	68.4948	99.9715	
   120	 0.6833	-1.7952	-1.1119	 0.8126	-2.2589	-1.4464	 0.6619	-2.9823	-2.3205	68.9902	99.9768	
   121	 0.0354	-2.5106	-2.4751	-0.2220	-3.2217	-3.4438	-0.8305	-4.2166	-5.0473	69.3034	99.9826	
   122	-0.5187	-3.1230	-3.6417	-1.0349	-3.9308	-4.9658	-2.0271	-5.0712	-7.0984	69.1254	99.9879	
   123	-1.1673	-4.0952	-5.2625	-2.3165	-5.1107	-7.4273	-3.8715	-6.4354	-10.3070	68.6269	99.9895	
   124	-3.4109	-5.2503	-8.6612	-5.1266	-6.1519	-11.2786	-6.5624	-6.9860	-13.5485	65.6503	99.9625	
   125	-5.2928	-5.0974	-10.3902	-6.8186	-5.7755	-12.5942	-7.5743	-6.3561	-13.9304	64.8115	99.9354	
   126	-5.6444	-5.1480	-10.7924	-6.6840	-5.9269	-12.6109	-6.7462	-6.6910	-13.4373	67.7627	99.9262	
   127	-4.6070	-5.2630	-9.8700	-5.2951	-5.7742	-11.0693	-5.0034	-6.4169	-11.4204	68.4059	99.9286	
   128	-3.9030	-5.0256	-8.9286	-4.5084	-5.4848	-9.9933	-4.2626	-6.1338	-10.3965	68.4795	99.9368	
   129	-3.6237	-4.8687	-8.4924	-4.1612	-5.3099	-9.4713	-3.8864	-5.8974	-9.7839	68.4258	99.9358	
   130	-3.4836	-4.7825	-8.2660	-3.9416	-5.2007	-9.1425	-3.5954	-5.7944	-9.3899	68.6324	99.9368	
   131	-3.4486	-4.7308	-8.1793	-3.8812	-5.1114	-8.9927	-3.4721	-5.7169	-9.1891	68.6851	99.9370	
   132	-3.9498	-4.6474	-8.5971	-4.4334	-4.9440	-9.3775	-4.2276	-5.3592	-9.5868	67.1913	99.9387	
   133	-4.6258	-3.9632	-8.5890	-5.0386	-4.1974	-9.2361	-4.8306	-4.5407	-9.3714	66.1617	99.9407	
   134	-4.1414	-3.6952	-7.8366	-4.5650	-3.8666	-8.4317	-4.3282	-4.1795	-8.5078	65.9668	99.9400	
   135	-2.8528	-3.4746	-6.3274	-3.0543	-3.5217	-6.5761	-2.8228	-3.9062	-6.7291	66.6147	99.9556	
   136	-1.1324	-2.9431	-4.0755	-1.1978	-3.1329	-4.3308	-1.3424	-3.5575	-4.9000	67.1071	99.9699	
   137	 0.2888	-2.2641	-1.9753	 0.4721	-2.5468	-2.0748	 0.2690	-3.1038	-2.8349	68.1872	99.9789	
   138	 0.5773	-1.9660	-1.3887	 0.8290	-2.3269	-1.4981	 0.8234	-2.9606	-2.1374	68.9561	99.9752	
   139	 0.3444	-2.1395	-1.7951	 0.4019	-2.6811	-2.2793	 0.1452	-3.5806	-3.4356	69.5073	99.9809	
   140	-0.2923	-2.6822	-2.9745	-0.4961	-3.3255	-3.8217	-1.0061	-4.3725	-5.3787	69.4897	99.9834	
   141	-0.6692	-3.1253	-3.7945	-1.1289	-3.8975	-5.0266	-2.0003	-5.0201	-7.0205	69.2052	99.9865	
   142	-1.3448	-4.0235	-5.3683	-2.3286	-4.9750	-7.3037	-3.6412	-6.2565	-9.8978	68.8952	99.9874	
   143	-3.0852	-5.1101	-8.1953	-4.7127	-6.1183	-10.8311	-6.1639	-7.0663	-13.2302	66.5471	99.9669	
   144	-5.2464	-5.1140	-10.3605	-6.6801	-5.7553	-12.4355	-7.4963	-6.3413	-13.8376	64.8133	99.9442	
   145	-5.5921	-4.8294	-10.4215	-6.7199	-5.6236	-12.3436	-6.8187	-6.4172	-13.2360	67.4612	99.9253	
   146	-4.6774	-5.0049	-9.6822	-5.2798	-5.5305	-10.8104	-4.8900	-6.2087	-11.0988	68.6520	99.9286	
   147	-3.9424	-4.7785	-8.7209	-4.4466	-5.2645	-9.7112	-4.1238	-5.8983	-10.0222	68.6236	99.9354	
   148	-3.5580	-4.5871	-8.1451	-4.0675	-5.0179	-9.0855	-3.7004	-5.6665	-9.3670	68.6059	99.9361	
   149	-3.4828	-4.5257	-8.0085	-3.9327	-4.9479	-8.8807	-3.5887	-5.5849	-9.1737	68.5987	99.9393	
   150	-3.4003	-4.4750	-7.8753	-3.8185	-4.8775	-8.6962	-3.4291	-5.4960	-8.9252	68.6187	99.9383	
   151	-3.8025	-4.4512	-8.2537	-4.3439	-4.7196	-9.0636	-4.0589	-5.2190	-9.2780	67.3170	99.9381	
   152	-4.6683	-3.7632	-8.4315	-5.0582	-3.9622	-9.0205	-4.7752	-4.3121	-9.0874	66.0955	99.9400	
   153	-3.9344	-3.4321	-7.3665	-4.3433	-3.6128	-7.9562	-4.1626	-3.8929	-8.0556	65.7442	99.9412	
   154	-2.7386	-3.1782	-5.9168	-2.7143	-3.3513	-6.0656	-2.6918	-3.8011	-6.4931	67.0219	99.9685	
   155	-1.0854	-2.4620	-3.5474	-0.8403	-2.5743	-3.4147	-0.8902	-3.0453	-3.9356	67.3897	99.9777	
   156	-0.0817	-1.8742	-1.9559	 0.0451	-2.1330	-2.0880	-0.0339	-2.8151	-2.8491	68.1585	99.9780	
   157	 0.0077	-1.5930	-1.5853	 0.0741	-1.9980	-1.9240	 0.0219	-2.6774	-2.6557	68.3476	99.9727	
   158	 0.0623	-1.4841	-1.4218	 0.1594	-1.8413	-1.6820	 0.1392	-2.7976	-2.6585	69.0298	99.9799	
   159	-0.5527	-2.0587	-2.6114	-0.7443	-2.6843	-3.4287	-1.2983	-3.7123	-5.0108	68.7818	99.9846	
   160	-1.0442	-2.4366	-3.4808	-1.5176	-3.1998	-4.7175	-2.3317	-4.4187	-6.7505	68.8750	99.9867	
   161	-1.7372	-3.3607	-5.0979	-2.6716	-4.3142	-6.9859	-3.9461	-5.7068	-9.6530	68.7200	99.9888	
   162	-3.2455	-4.6510	-7.8965	-4.9487	-5.6129	-10.5617	-6.4632	-6.7184	-13.1816	66.1911	99.9740	
   163	-5.5467	-4.8618	-10.4085	-7.1101	-5.4995	-12.6098	-8.1280	-5.9970	-14.1251	63.5356	99.9443	
   164	-6.2330	-4.2140	-10.4471	-7.4023	-4.7944	-12.1968	-7.5037	-5.5819	-13.0857	65.9586	99.9336	
   165	-5.5450	-4.4688	-10.0138	-6.1223	-4.9561	-11.0785	-5.7117	-5.5734	-11.2852	67.6735	99.9275	
   166	-4.2831	-4.2949	-8.5780	-4.8925	-4.8233	-9.7159	-4.8128	-5.5217	-10.3346	67.8439	99.9445	
   167	-4.4532	-4.3544	-8.8076	-5.0830	-4.7975	-9.8806	-4.8130	-5.3279	-10.1410	67.3698	99.9295	
   168	-3.8101	-4.0790	-7.8891	-4.2892	-4.5037	-8.7930	-4.0413	-5.0254	-9.0668	67.6078	99.9371	
   169	-3.6844	-3.9715	-7.6559	-4.2228	-4.3196	-8.5425	-3.9177	-4.8451	-8.7629	67.3778	99.9354	
   170	-4.3641	-3.7117	-8.0758	-4.9655	-3.9050	-8.8706	-4.7382	-4.2888	-9.0272	65.8102	99.9362	
   171	-4.9402	-2.9509	-7.8911	-5.3758	-2.8952	-8.2711	-4.8970	-3.0886	-7.9857	64.5504	99.9320	
   172	-3.8282	-2.4019	-6.2301	-4.3347	-2.4882	-6.8230	-4.2164	-2.8206	-7.0370	64.7008	99.9469	
   173	-2.7654	-2.1245	-4.8899	-2.6410	-2.0695	-4.7106	-2.4598	-2.5150	-4.9749	66.1062	99.9716	
   174	-1.2790	-1.6616	-2.9407	-1.2767	-1.5415	-2.8183	-1.3345	-1.9561	-3.2907	65.5842	99.9760	
   175	-0.2644	-0.6601	-0.9245	-0.2170	-0.8366	-1.0537	-0.4591	-1.5087	-1.9679	66.6264	99.9819	
   176	-0.6202	-0.5325	-1.1527	-0.5972	-0.7714	-1.3687	-0.7161	-1.4421	-2.1583	66.7187	99.9773	
   177	-0.8687	-0.5800	-1.4486	-1.0153	-0.8728	-1.8882	-1.2559	-1.7357	-2.9916	66.8304	99.9801	
   178	-1.2644	-0.8236	-2.0879	-1.5888	-1.2652	-2.8541	-2.2171	-2.3283	-4.5455	66.8343	99.9867	
   179	-1.6824	-1.4126	-3.0950	-2.2759	-2.1570	-4.4330	-3.4269	-3.4990	-6.9261	67.3556	99.9915	
   180	-2.6833	-2.8126	-5.4958	-4.1784	-3.7195	-7.8980	-5.7797	-4.9319	-10.7116	65.4739	99.9848	
   181	-5.1003	-3.7127	-8.8130	-6.8443	-4.3205	-11.1648	-8.2390	-5.0860	-13.3251	62.5061	99.9676	
   182	-6.6783	-3.3877	-10.0660	-8.2659	-3.7905	-12.0565	-8.8411	-4.4495	-13.2907	62.4899	99.9412	
   183	-6.4627	-3.4811	-9.9438	-7.4270	-3.8724	-11.2995	-7.3031	-4.5208	-11.8239	65.1524	99.9322	
   184	-5.0061	-3.1120	-8.1180	-5.5057	-3.3267	-8.8325	-5.2412	-3.8751	-9.1163	65.8747	99.9458	
   185	-4.3926	-3.0509	-7.4435	-5.2460	-3.4530	-8.6991	-5.4352	-4.0426	-9.4779	65.3227	99.9477	
   186	-4.4867	-2.7922	-7.2789	-5.1123	-3.0713	-8.1837	-5.0385	-3.5653	-8.6039	65.3604	99.9447	
   187	-4.2302	-2.4987	-6.7289	-5.0203	-2.8063	-7.8267	-5.1211	-3.2637	-8.3849	64.6455	99.9436	
   188	-4.4120	-2.2488	-6.6608	-5.1573	-2.4743	-7.6317	-5.2691	-2.8663	-8.1356	64.0360	99.9460	
   189	-4.4050	-2.0184	-6.4234	-5.1458	-2.1808	-7.3268	-5.2131	-2.6258	-7.8390	63.9440	99.9491	
   190	-4.4814	-1.8544	-6.3359	-5.2011	-1.9676	-7.1688	-5.2492	-2.3406	-7.5899	63.5340	99.9477	
   191	-4.4342	-1.6143	-6.0486	-5.0348	-1.7219	-6.7568	-5.0760	-2.0265	-7.1026	63.4207	99.9488	
   192	-4.3447	-1.4537	-5.7984	-4.9701	-1.5649	-6.5351	-5.0227	-1.8334	-6.8563	63.2006	99.9466	
   193	-4.3902	-1.3008	-5.6910	-5.0011	-1.4018	-6.4029	-5.0544	-1.6709	-6.7254	63.0761	99.9476	
   194	-4.4058	-1.1747	-5.5805	-5.0534	-1.2518	-6.3053	-5.0937	-1.5359	-6.6298	62.9174	99.9474	
   195	-4.4533	-1.0533	-5.5066	-5.1138	-1.1198	-6.2337	-5.1733	-1.3807	-6.5541	62.6636	99.9472	
   196	-4.5576	-0.9516	-5.5092	-5.2313	-1.0229	-6.2543	-5.3433	-1.2480	-6.5914	62.3413	99.9472	
   197	-4.6124	-0.8195	-5.4319	-5.2228	-0.8875	-6.1104	-5.2977	-1.0825	-6.3803	62.3223	99.9466	
   198	-4.5568	-0.6949	-5.2517	-5.1329	-0.7671	-5.9001	-5.1489	-0.9777	-6.1267	62.4910	99.9459	
   199	-4.5682	-0.6266	-5.1948	-5.1413	-0.6811	-5.8225	-5.1937	-0.8347	-6.0285	62.1783	99.9456	
   200	-4.6435	-0.5674	-5.2110	-5.2676	-0.6157	-5.8834	-5.2634	-0.8101	-6.0736	62.2072	99.9435	
   201	-4.8220	-0.5114	-5.3334	-5.4556	-0.5493	-6.0050	-5.5113	-0.6922	-6.2037	61.7905	99.9438	
   202	-4.9685	-0.4509	-5.4193	-5.6033	-0.4971	-6.1005	-5.6507	-0.6430	-6.2938	61.7243	99.9432	
   203	-5.1387	-0.3898	-5.5285	-5.7967	-0.4080	-6.2048	-5.8119	-0.5618	-6.3738	61.5653	99.9425	
   204	-5.1707	-0.2739	-5.4447	-5.7480	-0.2869	-6.0349	-5.7021	-0.4130	-6.1151	61.6490	99.9417	
   205	-5.0223	-0.1826	-5.2049	-5.5783	-0.2084	-5.7869	-5.5936	-0.2878	-5.8816	61.4960	99.9424	
   206	-5.0245	-0.0935	-5.1179	-5.6056	-0.0950	-5.7007	-5.6220	-0.1688	-5.7909	61.3088	99.9422	
   207	-5.0606	-0.0403	-5.1010	-5.6702	-0.0307	-5.7010	-5.6569	-0.1565	-5.8135	61.3683	99.9429	
   208	-5.1432	 0.0294	-5.1138	-5.7402	 0.0563	-5.6840	-5.7953	 0.0074	-5.7880	60.9285	99.9434	
   209	-5.2484	 0.1154	-5.1331	-5.8720	 0.1444	-5.7277	-5.8922	 0.0719	-5.8204	60.8947	99.9421	
   210	-5.3537	 0.2013	-5.1524	-5.9877	 0.2683	-5.7195	-6.0150	 0.2001	-5.8150	60.6434	99.9434	
   211	-5.3394	 0.3006	-5.0388	-5.9318	 0.3938	-5.5381	-5.8772	 0.3209	-5.5564	60.7602	99.9426	
   212	-5.2229	 0.3873	-4.8356	-5.8436	 0.4872	-5.3565	-5.7948	 0.4068	-5.3881	60.6989	99.9425	
   213	-5.3322	 0.4105	-4.9218	-5.9536	 0.4845	-5.4692	-5.9534	 0.4326	-5.5210	60.5322	99.9422	
   214	-5.4653	 0.4341	-5.0312	-6.1147	 0.5415	-5.5734	-6.1277	 0.4941	-5.6336	60.2749	99.9429	
   215	-5.6345	 0.5108	-5.1236	-6.2759	 0.5984	-5.6776	-6.2438	 0.5352	-5.7088	60.3376	99.9413	
   216	-5.7160	 0.5963	-5.1197	-6.3845	 0.7267	-5.6579	-6.3801	 0.7347	-5.6455	59.8391	99.9398	
   217	-5.7265	 0.8009	-4.9256	-6.3030	 0.9332	-5.3699	-6.2057	 0.9697	-5.2361	59.9723	99.9377	
   218	-5.5028	 0.8331	-4.6697	-6.0105	 0.8921	-5.1185	-5.8880	 0.8272	-5.0610	60.6929	99.9412	
   219	-5.5346	 0.7080	-4.8267	-6.1138	 0.7764	-5.3375	-5.9649	 0.7333	-5.2318	60.5919	99.9365	
   220	-5.5934	 0.6567	-4.9366	-6.1885	 0.6782	-5.5104	-6.1245	 0.6444	-5.4803	60.5075	99.9374	
   221	-5.8809	 0.4948	-5.3861	-6.5815	 0.5403	-6.0412	-6.4181	 0.5967	-5.8214	60.1593	99.9243	
   222	-6.1211	 0.4524	-5.6686	-6.8576	 0.5134	-6.3444	-6.7403	 0.5653	-6.1751	59.8855	99.9262	
   223	-6.2006	 0.5693	-5.6313	-6.9016	 0.7987	-6.1029	-6.3447	 0.9280	-5.4168	60.0223	99.9083	
   224	-5.6204	 0.8511	-4.7692	-5.8676	 1.2014	-4.6663	-5.4968	 1.3125	-4.1844	60.3487	99.9429	
   225	-5.8038	 0.7081	-5.0957	-6.3647	 0.9342	-5.4306	-6.2450	 1.1046	-5.1405	59.4720	99.9343	
   226	-5.8225	 0.9076	-4.9149	-6.2584	 1.2080	-5.0505	-5.9652	 1.6111	-4.3542	59.1091	99.9214	
   227	-5.2856	 1.2532	-4.0325	-5.8905	 1.6038	-4.2868	-5.8624	 1.9380	-3.9244	58.3871	99.9338	
   228	-5.5691	 1.1540	-4.4151	-6.1252	 1.4722	-4.6530	-6.1723	 1.9143	-4.2580	58.0673	99.9320	
   229	-5.7847	 1.2474	-4.5373	-6.3706	 1.6074	-4.7633	-6.4181	 2.0678	-4.3504	57.6932	99.9318	
   230	-5.9961	 1.2831	-4.7130	-6.6703	 1.6441	-5.0263	-6.6350	 2.0113	-4.6239	57.7901	99.9295	
   231	-6.2023	 1.2767	-4.9256	-6.7874	 1.6370	-5.1504	-6.6662	 1.8891	-4.7772	58.3232	99.9352	
   232	-6.3199	 1.2948	-5.0251	-6.8679	 1.6655	-5.2025	-6.7551	 1.8902	-4.8650	58.3522	99.9389	
   233	-6.3922	 1.4010	-4.9911	-6.9829	 1.8030	-5.1800	-6.9044	 2.0701	-4.8344	57.9153	99.9381	
   234	-6.5016	 1.5447	-4.9569	-7.0835	 1.9492	-5.1344	-7.0918	 2.3058	-4.7861	57.3877	99.9380	
   235	-6.5843	 1.7350	-4.8493	-7.2345	 2.1686	-5.0660	-7.2814	 2.5060	-4.7755	56.9963	99.9395	
   236	-6.6772	 1.8888	-4.7884	-7.3360	 2.3013	-5.0348	-7.4089	 2.6539	-4.7550	56.8022	99.9388	
   237	-6.8247	 1.9337	-4.8911	-7.4837	 2.3535	-5.1303	-7.5229	 2.7305	-4.7924	56.6855	99.9363	
   238	-6.8227	 1.9650	-4.8576	-7.4257	 2.4022	-5.0236	-7.4297	 2.8005	-4.6292	56.7481	99.9365	
   239	-6.8361	 2.0020	-4.8341	-7.4912	 2.4530	-5.0383	-7.4918	 2.8527	-4.6391	56.5852	99.9348	
   240	-7.0464	 1.9328	-5.1136	-7.7259	 2.3215	-5.4045	-7.7555	 2.7098	-5.0458	56.6031	99.9331	
   241	-7.2196	 1.9468	-5.2729	-7.9235	 2.3429	-5.5808	-7.8970	 2.7235	-5.1736	56.5699	99.9302	
   242	-7.3517	 1.9861	-5.3656	-8.0981	 2.4045	-5.6937	-8.0615	 2.8482	-5.2134	56.1988	99.9255	
   243	-7.4672	 2.0356	-5.4316	-8.1593	 2.5230	-5.6364	-8.0029	 3.0333	-4.9697	56.1125	99.9213	
   244	-7.3331	 2.0276	-5.3055	-7.9554	 2.4925	-5.4630	-7.8246	 2.9401	-4.8846	56.4854	99.9280	
   245	-7.0804	 1.8968	-5.1835	-7.7254	 2.4389	-5.2866	-7.7549	 2.9154	-4.8396	56.0672	99.9365	
   246	-7.1463	 1.8562	-5.2901	-7.8291	 2.4271	-5.4021	-7.8268	 2.9045	-4.9224	55.9726	99.9348	
   247	-7.3371	 1.8443	-5.4928	-7.9944	 2.4163	-5.5782	-8.0572	 2.9193	-5.1380	55.7373	99.9376	
   248	-7.5650	 1.8698	-5.6951	-8.2635	 2.3938	-5.8698	-8.3174	 2.8357	-5.4818	55.8154	99.9368	
   249	-8.0062	 1.7791	-6.2271	-8.7332	 2.2346	-6.4987	-8.7803	 2.6360	-6.1444	55.8767	99.9346	
   250	-8.4247	 1.6722	-6.7525	-9.1013	 2.1640	-6.9374	-9.1153	 2.6878	-6.4276	55.4929	99.9300	
   251	-8.4217	 1.7193	-6.7024	-9.1777	 2.2602	-6.9176	-9.2506	 2.7053	-6.5454	55.2611	99.9362	
   252	-8.5229	 1.8680	-6.6549	-9.3442	 2.3398	-7.0046	-9.4462	 2.7079	-6.7385	55.2959	99.9361	
   253	-8.5766	 2.0158	-6.5608	-9.4529	 2.4681	-6.9849	-9.6010	 2.8957	-6.7054	54.8686	99.9321	
   254	-8.6624	 2.1590	-6.5034	-9.5267	 2.6049	-6.9219	-9.6806	 3.0510	-6.6297	54.7172	99.9317	
   255	-8.8296	 2.3877	-6.4420	-9.7825	 2.9028	-6.8798	-9.9533	 3.3471	-6.6063	54.1001	99.9323	
   256	-9.2149	 3.0399	-6.1750	-10.1301	 3.5998	-6.5304	-10.2013	 3.9553	-6.2461	53.8917	99.9360	
   257	-9.3678	 3.3678	-6.0000	-10.1992	 3.9217	-6.2775	-10.2969	 4.2373	-6.0597	53.8445	99.9424	
   258	-9.3743	 3.7557	-5.6187	-10.2401	 4.3651	-5.8750	-10.3695	 4.7049	-5.6647	53.2703	99.9437	
   259	-9.3346	 4.2474	-5.0872	-10.2763	 4.9937	-5.2827	-10.2875	 5.1784	-5.1092	53.1288	99.9479	
   260	-9.0662	 4.9704	-4.0958	-10.1038	 5.7768	-4.3271	-9.9667	 5.6764	-4.2903	53.5017	99.9514	
   261	-8.7809	 4.2416	-4.5393	-9.7607	 4.5694	-5.1914	-9.6652	 4.3834	-5.2819	55.5495	99.9428	
   262	-9.0971	 2.7807	-6.3163	-9.9636	 3.2989	-6.6649	-9.8604	 3.3143	-6.5462	55.5364	99.9443	
   263	-9.3401	 2.4503	-6.8898	-10.1707	 2.9500	-7.2208	-10.0636	 2.7989	-7.2649	56.1713	99.9516	
   264	-9.4058	 2.1686	-7.2372	-10.3148	 2.7311	-7.5838	-10.2311	 2.5796	-7.6516	55.9460	99.9518	
   265	-9.5749	 2.1248	-7.4500	-10.5381	 2.6716	-7.8666	-10.5188	 2.4330	-8.0859	55.9087	99.9553	
   266	-9.7264	 2.1069	-7.6195	-10.7866	 2.6487	-8.1380	-10.7659	 2.3690	-8.3970	55.7631	99.9534	
   267	-9.8563	 2.0571	-7.7992	-10.9234	 2.6556	-8.2680	-10.8638	 2.3188	-8.5451	55.7926	99.9551	
   268	-10.0532	 2.0715	-7.9817	-11.1073	 2.5683	-8.5391	-11.1316	 2.2076	-8.9241	55.8614	99.9569	
   269	-10.2491	 1.9811	-8.2679	-11.4028	 2.4513	-8.9516	-11.3967	 2.0410	-9.3559	55.8711	99.9534	
   270	-10.3931	 1.7115	-8.6816	-11.5092	 2.1776	-9.3317	-11.5203	 1.8607	-9.6598	55.7735	99.9520	
   271	-10.4560	 1.7180	-8.7380	-11.6140	 2.2561	-9.3580	-11.6587	 2.0246	-9.6343	55.1614	99.9510	
   272	-10.6191	 1.8889	-8.7302	-11.8910	 2.4370	-9.4540	-11.9982	 2.1990	-9.7993	54.5794	99.9503	
   273	-11.1537	 2.3136	-8.8401	-12.4716	 2.8082	-9.6635	-12.5689	 2.5701	-9.9989	54.0756	99.9468	
   274	-11.7668	 2.9913	-8.7755	-13.0816	 3.3696	-9.7120	-13.0624	 2.9443	-10.1182	54.3603	99.9458	
   275	-12.0633	 3.5474	-8.5159	-13.3830	 3.9259	-9.4573	-13.1753	 3.4321	-9.7432	54.4154	99.9401	
   276	-11.5734	 3.4118	-8.1615	-12.7343	 3.7658	-8.9686	-12.5216	 3.3525	-9.1692	54.9723	99.9417	
   277	-11.0483	 3.2075	-7.8408	-12.2516	 3.8028	-8.4489	-12.2377	 3.6336	-8.6042	53.6137	99.9470	
   278	-11.2422	 3.2690	-7.9732	-12.6281	 3.8182	-8.8099	-12.6360	 3.5201	-9.1161	53.4804	99.9449	
   279	-11.6919	 3.4142	-8.2777	-13.0523	 3.9474	-9.1050	-13.0118	 3.6831	-9.3288	53.2525	99.9420	
   280	-11.8715	 3.5750	-8.2965	-13.2780	 4.0686	-9.2095	-13.3062	 3.8174	-9.4889	52.8684	99.9416	
   281	-12.0038	 3.8554	-8.1484	-13.4097	 4.3780	-9.0317	-13.3511	 4.1541	-9.1971	52.6634	99.9376	
   282	-11.9255	 3.9638	-7.9617	-13.2572	 4.5110	-8.7463	-13.1846	 4.2587	-8.9260	52.8419	99.9419	
   283	-11.7388	 3.9129	-7.8259	-13.0810	 4.4764	-8.6047	-13.0724	 4.2494	-8.8232	52.7088	99.9438	
   284	-11.8234	 3.9513	-7.8721	-13.2341	 4.5513	-8.6830	-13.2583	 4.3150	-8.9434	52.3454	99.9443	
   285	-12.0338	 4.0027	-8.0311	-13.4758	 4.6367	-8.8393	-13.6915	 4.7042	-8.9874	50.8365	99.9402	
   286	-12.3072	 4.1810	-8.1262	-13.7267	 4.7945	-8.9324	-13.9025	 4.8453	-9.0573	50.8041	99.9394	
   287	-12.3321	 4.2863	-8.0457	-13.7728	 4.9353	-8.8376	-14.1245	 5.1962	-8.9284	49.6609	99.9383	
   288	-12.4044	 4.3926	-8.0118	-13.8571	 5.0135	-8.8437	-14.3900	 5.6108	-8.7793	48.3436	99.9278	
   289	-12.2982	 4.4429	-7.8553	-13.7190	 5.1377	-8.5814	-14.2842	 5.7914	-8.4929	48.0548	99.9310	
   290	-12.4954	 4.6983	-7.7971	-14.0336	 5.3734	-8.6604	-14.6654	 5.9624	-8.7031	47.5651	99.9323	
   291	-12.5321	 5.3540	-7.1781	-14.0043	 6.1725	-7.8319	-14.5484	 6.7201	-7.8283	47.2638	99.9394	
   292	-12.3654	 5.7280	-6.6375	-13.9066	 6.6361	-7.2706	-14.1579	 6.7032	-7.4547	48.6107	99.9483	
   293	-12.3628	 5.1568	-7.2061	-13.7944	 5.4687	-8.3257	-14.1458	 5.1371	-9.0088	51.4953	99.9526	
   294	-12.7156	 4.2311	-8.4845	-14.1875	 4.8881	-9.2995	-14.4004	 4.8517	-9.5488	50.4460	99.9446	
   295	-12.7815	 4.1905	-8.5910	-14.3143	 4.8360	-9.4784	-14.6366	 4.7717	-9.8649	50.1448	99.9479	
   296	-12.9631	 4.3199	-8.6432	-14.5635	 5.0209	-9.5427	-14.9347	 5.0405	-9.8943	49.3346	99.9462	
   297	-12.8210	 4.4376	-8.3834	-14.3346	 5.2791	-9.0556	-14.6615	 5.6341	-9.0275	48.4590	99.9376	
   298	-12.0938	 5.2771	-6.8167	-13.1697	 6.5694	-6.6003	-13.4778	 7.2560	-6.2219	47.5430	99.9544	
   299	-11.5363	 5.5752	-5.9611	-12.9761	 6.7017	-6.2745	-13.6156	 7.1352	-6.4806	47.1104	99.9600	
   300	-11.5810	 5.9848	-5.5963	-12.8696	 7.4182	-5.4515	-13.3750	 8.0732	-5.3019	46.2567	99.9607	
   301	-9.9366	 7.1780	-2.7585	-11.4665	 8.8942	-2.5724	-12.1896	 9.3313	-2.8584	45.3527	99.9733	
   302	-9.4563	 7.3833	-2.0730	-11.2290	 8.9625	-2.2666	-12.1199	 9.3067	-2.8133	45.1033	99.9720	
   303	-9.3647	 7.5753	-1.7894	-11.1142	 9.3716	-1.7426	-11.9504	 9.7553	-2.1952	44.6433	99.9736	
   304	-9.6665	 7.3141	-2.3524	-11.4910	 8.7230	-2.7681	-12.7299	 8.8321	-3.8980	45.0237	99.9814	
   305	-11.3632	 6.7821	-4.5811	-12.8886	 7.9922	-4.8965	-13.7235	 8.1964	-5.5272	46.2103	99.9731	
   306	-11.8119	 6.9430	-4.8689	-13.3137	 8.1078	-5.2060	-14.0570	 8.2718	-5.7853	46.3218	99.9711	
   307	-11.9595	 7.1084	-4.8511	-13.4571	 8.2277	-5.2296	-14.1765	 8.3564	-5.8202	46.3966	99.9705	
   308	-12.2689	 7.2194	-5.0496	-13.7660	 8.3368	-5.4293	-14.5425	 8.5826	-5.9600	45.7395	99.9694	
   309	-12.3042	 7.4087	-4.8955	-13.8305	 8.6225	-5.2081	-14.4874	 8.7084	-5.7791	45.9724	99.9708	
   310	-12.5043	 7.4966	-5.0077	-14.0722	 8.7079	-5.3644	-14.8679	 8.8913	-5.9767	45.1498	99.9718	
   311	-13.1983	 7.5366	-5.6617	-14.8402	 8.7163	-6.1240	-15.5007	 8.8243	-6.6765	45.1036	99.9670	
   312	-13.6354	 7.5087	-6.1268	-15.2204	 8.7815	-6.4390	-15.9017	 9.2565	-6.6453	43.8548	99.9608	
   313	-13.4088	 7.7085	-5.7003	-14.9974	 9.1662	-5.8313	-15.6342	 9.7553	-5.8790	43.2896	99.9603	
   314	-13.0204	 8.0833	-4.9372	-14.5971	 9.7512	-4.8459	-15.1439	10.2116	-4.9324	43.3760	99.9663	
   315	-13.1042	 8.3784	-4.7259	-14.7496	10.1649	-4.5848	-15.4294	10.5910	-4.8385	42.4912	99.9718	
   316	-13.0758	 8.8179	-4.2579	-14.5718	10.7040	-3.8679	-15.0973	10.9821	-4.1152	43.1011	99.9748	
   317	-12.8778	 8.8192	-4.0586	-14.4056	10.7283	-3.6774	-15.0392	10.9616	-4.0777	42.9379	99.9774	
   318	-12.2862	 9.0327	-3.2535	-13.7725	10.9751	-2.7976	-14.3430	11.1939	-3.1492	43.3824	99.9771	
   319	-12.0242	 8.9227	-3.1015	-13.6666	10.5848	-3.0819	-14.3639	10.5535	-3.8105	44.1387	99.9770	
   320	-11.8385	 8.8561	-2.9824	-13.4661	10.2787	-3.1875	-14.1078	10.1785	-3.9294	45.1689	99.9745	
   321	-12.0248	 8.5454	-3.4794	-13.6976	 9.7586	-3.9391	-14.3401	 9.7702	-4.5700	45.3546	99.9685	
   322	-12.2979	 8.3623	-3.9357	-13.9568	 9.4558	-4.5011	-14.6205	 9.5485	-5.0721	45.3687	99.9651	
   323	-12.3483	 8.1956	-4.1527	-13.9006	 9.2561	-4.6446	-14.5536	 9.4764	-5.0773	45.4865	99.9632	
   324	-12.1265	 8.0759	-4.0506	-13.6681	 9.2431	-4.4251	-14.4046	 9.6841	-4.7207	44.7497	99.9621	
   325	-11.9159	 7.9040	-4.0120	-13.4798	 9.0728	-4.4071	-14.4447	 9.8072	-4.6376	43.6971	99.9591	
   326	-11.9747	 7.8528	-4.1219	-13.6140	 9.1203	-4.4939	-14.5027	 9.8277	-4.6751	43.5265	99.9580	
   327	-11.9128	 7.8306	-4.0822	-13.4886	 9.0413	-4.4474	-14.4188	 9.7436	-4.6754	43.7713	99.9600	
   328	-11.8560	 7.7299	-4.1261	-13.4342	 8.8145	-4.6197	-14.5815	 9.8010	-4.7805	42.9732	99.9522	
   329	-11.9413	 7.5115	-4.4298	-13.5471	 8.6538	-4.8934	-14.4406	 9.2851	-5.1556	44.2714	99.9582	
   330	-12.0752	 7.2784	-4.7968	-13.5914	 8.2751	-5.3164	-14.5108	 8.9104	-5.6005	44.8044	99.9571	
   331	-12.1411	 7.2378	-4.9033	-13.6451	 8.2941	-5.3511	-14.5892	 8.9865	-5.6028	44.4844	99.9582	
   332	-12.0419	 7.0577	-4.9843	-13.3675	 7.9054	-5.4622	-14.3655	 8.7622	-5.6034	45.0451	99.9514	
   333	-12.0250	 7.6861	-4.3389	-13.5854	 9.3592	-4.2263	-14.7881	10.9940	-3.7942	40.0520	99.9472	
   334	-11.9630	 8.5232	-3.4397	-13.2141	10.5771	-2.6371	-14.0130	12.0398	-1.9733	40.9103	99.9622	
   335	-10.2129	 9.2690	-0.9439	-10.9862	11.6372	 0.6509	-11.6070	13.1754	 1.5682	42.2280	99.9741	
   336	-9.9613	 9.2430	-0.7182	-11.3732	11.5941	 0.2208	-12.2243	13.0726	 0.8482	40.5827	99.9667	
   337	-9.8160	 9.4078	-0.4082	-11.0790	11.5801	 0.5010	-12.1999	12.9853	 0.7853	40.8299	99.9764	
   338	-10.4521	 9.2423	-1.2097	-11.9138	11.5083	-0.4056	-12.8355	12.6771	-0.1584	40.8372	99.9745	
   339	-10.5501	 9.3177	-1.2324	-11.9188	11.6485	-0.2704	-12.9412	12.7932	-0.1481	40.6369	99.9808	
   340	-10.9510	 9.1161	-1.8349	-12.6493	11.1594	-1.4901	-13.8987	12.0660	-1.8328	40.2938	99.9802	
   341	-11.3284	 9.1551	-2.1734	-12.7554	11.3283	-1.4272	-13.5832	11.8880	-1.6953	42.1633	99.9821	
   342	-11.2076	 8.9430	-2.2645	-12.5865	10.8466	-1.7400	-13.6529	11.9126	-1.7404	41.3861	99.9760	
   343	-10.9899	 8.8811	-2.1089	-12.4178	10.9115	-1.5064	-13.3797	12.0159	-1.3640	41.3244	99.9734	
   344	-11.0219	 8.8765	-2.1454	-12.4396	11.0022	-1.4374	-13.2843	12.1214	-1.1630	41.3703	99.9718	
   345	-10.9077	 9.1729	-1.7349	-12.2829	11.2029	-1.0801	-13.3846	12.2295	-1.1552	41.1850	99.9803	
   346	-11.6525	 8.4280	-3.2245	-13.4961	 9.9088	-3.5874	-14.4186	 9.8464	-4.5723	44.1202	99.9771	
   347	-12.7146	 7.4274	-5.2872	-14.2373	 8.3719	-5.8655	-15.0768	 8.7714	-6.3055	45.1852	99.9616	
   348	-12.9077	 6.6453	-6.2624	-14.5130	 7.6944	-6.8187	-15.3281	 8.4424	-6.8857	44.3054	99.9468	
   349	-13.0143	 7.0771	-5.9372	-14.6133	 8.5047	-6.1087	-15.4600	 9.6937	-5.7664	42.0564	99.9424	
   350	-12.6286	 8.0230	-4.6055	-14.0825	 9.8600	-4.2226	-14.7336	10.9142	-3.8195	41.9883	99.9593	
   351	-11.6012	 8.7308	-2.8704	-13.0852	10.7737	-2.3116	-13.9840	11.6361	-2.3480	41.5470	99.9765	
   352	-11.3962	 8.8420	-2.5541	-12.9055	10.7933	-2.1124	-13.9143	11.6115	-2.3029	41.5872	99.9783	
   353	-11.3303	 9.0031	-2.3272	-12.7433	11.1926	-1.5508	-13.6469	12.1102	-1.5367	41.2883	99.9793	
   354	-11.0067	 9.1119	-1.8947	-12.5297	11.2070	-1.3227	-13.6566	12.0471	-1.6096	41.0083	99.9825	
   355	-11.3581	 8.9408	-2.4173	-12.8609	11.0681	-1.7929	-13.7226	11.9372	-1.7855	41.4293	99.9764	
   356	-10.8384	 8.8990	-1.9394	-12.0035	11.0626	-0.9409	-12.6711	12.2559	-0.4154	42.2193	99.9714	
   357	-9.9146	 8.9853	-0.9293	-10.8983	11.2879	 0.3895	-11.4437	12.6394	 1.1956	42.7624	99.9705	
   358	-8.7775	 9.1879	 0.4104	-9.8111	11.5541	 1.7429	-10.2790	12.8696	 2.5906	43.3021	99.9691	
   359	-8.3970	 9.1960	 0.7990	-9.5791	11.4237	 1.8446	-10.2878	12.6245	 2.3366	43.1851	99.9727	
   360	-9.0464	 8.9470	-0.0993	-10.2671	11.0649	 0.7977	-11.0972	12.2870	 1.1896	42.7722	99.9726	
   361	-9.6288	 8.7543	-0.8744	-10.8448	10.8262	-0.0187	-11.6330	11.9617	 0.3286	42.9234	99.9729	
   362	-9.9030	 8.6760	-1.2270	-11.1441	10.7590	-0.3852	-11.8953	11.8425	-0.0529	42.9198	99.9729	
   363	-10.3978	 8.6125	-1.7853	-11.4317	10.4386	-0.9932	-12.5745	11.5982	-0.9764	42.6327	99.9812	
   364	-9.4000	 8.8650	-0.5349	-10.5492	10.9432	 0.3938	-11.3181	12.0684	 0.7502	43.2002	99.9743	
   365	-9.2484	 8.8829	-0.3655	-10.3062	10.9888	 0.6825	-10.8196	12.2676	 1.4479	43.6628	99.9648	
   366	-8.2639	 9.0519	 0.7880	-9.2359	11.2056	 1.9696	-9.7408	12.3526	 2.6117	44.5078	99.9715	
   367	-8.3967	 8.8345	 0.4378	-9.5713	10.9989	 1.4275	-10.2240	12.2085	 1.9844	43.6251	99.9695	
   368	-8.5059	 8.7371	 0.2312	-9.7519	10.7445	 0.9925	-10.6095	11.8180	 1.2084	43.6246	99.9742	
   369	-9.1912	 8.4207	-0.7705	-10.3825	10.3170	-0.0657	-11.2265	11.3277	 0.1012	43.9269	99.9745	
   370	-9.2932	 8.3127	-0.9805	-10.3288	10.2980	-0.0309	-11.0149	11.3922	 0.3772	44.2515	99.9733	
   371	-8.9911	 8.3329	-0.6583	-10.1811	10.2458	 0.0646	-11.0308	11.3252	 0.2943	43.8926	99.9732	
   372	-9.3457	 8.2352	-1.1106	-10.5749	10.0944	-0.4806	-11.4343	11.1287	-0.3056	43.8451	99.9727	
   373	-9.3622	 8.2250	-1.1372	-10.3818	10.1092	-0.2727	-11.0663	11.1319	 0.0655	44.6715	99.9734	
   374	-8.9312	 8.1587	-0.7724	-9.9873	10.0528	 0.0654	-10.7618	11.1636	 0.4016	44.4573	99.9728	
   375	-8.7187	 8.1388	-0.5799	-9.7834	10.0223	 0.2388	-10.6340	11.1184	 0.4843	44.4551	99.9749	
   376	-8.7053	 8.1018	-0.6034	-9.7456	 9.9674	 0.2217	-10.5411	11.0856	 0.5444	44.6492	99.9729	
   377	-8.6691	 8.0487	-0.6204	-9.7750	 9.9363	 0.1612	-10.5222	11.0063	 0.4840	44.7165	99.9717	
   378	-8.4609	 8.0865	-0.3744	-9.3889	 9.9659	 0.5769	-9.9554	11.1571	 1.2016	45.3521	99.9666	
   379	-8.1134	 8.0743	-0.0391	-9.1190	10.0020	 0.8829	-9.7831	11.1628	 1.3797	45.1327	99.9697	
   380	-8.1856	 8.0600	-0.1256	-9.2789	 9.9686	 0.6896	-9.8790	10.8517	 0.9725	45.6936	99.9730	
   381	-8.4153	 7.8131	-0.6022	-9.3798	 9.6721	 0.2922	-9.9939	10.6198	 0.6258	45.9135	99.9737	
   382	-7.9081	 7.9444	 0.0363	-8.7296	 9.8644	 1.1347	-9.2120	10.8945	 1.6823	46.3998	99.9722	
   383	-7.4565	 7.9511	 0.4947	-8.2935	 9.9248	 1.6312	-8.8336	10.9726	 2.1390	46.3314	99.9741	
   384	-7.4163	 7.9608	 0.5445	-8.5672	 9.7171	 1.1498	-9.3306	10.7971	 1.4664	45.5957	99.9671	
   385	-7.7914	 7.7901	-0.0013	-8.7679	 9.5805	 0.8124	-9.3795	10.6752	 1.2956	46.0787	99.9673	
   386	-7.6212	 7.7291	 0.1079	-8.6336	 9.5330	 0.8993	-9.2053	10.6136	 1.4082	46.2145	99.9658	
   387	-7.5842	 7.8122	 0.2280	-8.6100	 9.6907	 1.0806	-9.2976	10.8521	 1.5543	45.5739	99.9685	
   388	-8.2760	 7.7632	-0.5129	-9.5377	 9.5618	 0.0241	-10.4780	10.6577	 0.1796	44.4523	99.9708	
   389	-8.5687	 7.6432	-0.9255	-9.5830	 9.4949	-0.0883	-10.1217	10.6650	 0.5432	45.5046	99.9632	
   390	-7.5986	 7.8335	 0.2348	-8.4867	 9.6886	 1.2019	-9.0726	10.8452	 1.7725	46.1306	99.9684	
   391	-7.3005	 7.6703	 0.3698	-8.2878	 9.5769	 1.2890	-8.8403	10.7631	 1.9227	46.0629	99.9650	
   392	-7.3128	 7.6024	 0.2896	-8.3894	 9.4882	 1.0987	-8.9613	10.5274	 1.5660	46.2240	99.9674	
   393	-7.4282	 7.5314	 0.1032	-8.4533	 9.3448	 0.8914	-9.1264	10.4465	 1.3200	46.1130	99.9682	
   394	-7.5704	 7.4137	-0.1567	-8.6002	 9.1891	 0.5888	-9.3861	10.2719	 0.8857	45.9674	99.9713	
   395	-7.8569	 7.2675	-0.5894	-8.9394	 9.0322	 0.0927	-9.7326	10.1340	 0.4013	45.7367	99.9694	
   396	-7.9353	 7.2795	-0.6558	-8.9932	 9.0512	 0.0580	-9.7871	10.2138	 0.4266	45.5898	99.9683	
   397	-7.9301	 7.2375	-0.6926	-8.9394	 9.0322	 0.0927	-9.7326	10.1340	 0.4013	45.8057	99.9720	
   398	-7.6878	 7.3113	-0.3766	-8.5310	 9.0886	 0.5574	-9.1538	10.1898	 1.0359	46.6657	99.9704	
   399	-7.1888	 7.3170	 0.1282	-8.1361	 9.1497	 1.0135	-8.6831	10.2233	 1.5401	46.8133	99.9675	
   400	-7.0485	 7.2828	 0.2342	-8.0178	 9.0664	 1.0485	-8.7161	10.1684	 1.4521	46.5840	99.9696	
   401	-7.1382	 7.2426	 0.1044	-8.0874	 9.0495	 0.9619	-8.7626	10.1848	 1.4221	46.5247	99.9689	
   402	-7.1217	 7.2528	 0.1311	-8.1143	 9.0590	 0.9446	-8.7626	10.1848	 1.4221	46.5153	99.9672	
   403	-7.0031	 7.2504	 0.2473	-7.9640	 9.0474	 1.0832	-8.5767	10.1191	 1.5423	46.8636	99.9683	
   404	-7.0349	 7.0048	-0.0301	-8.0712	 8.7601	 0.6888	-8.6988	 9.7688	 1.0699	47.0160	99.9677	
   405	-7.0534	 6.9632	-0.0901	-8.0444	 8.7506	 0.7061	-8.7533	 9.8485	 1.0952	46.6832	99.9695	
   406	-7.1192	 6.8021	-0.3171	-8.0856	 8.5299	 0.4442	-8.7067	 9.6384	 0.9316	47.0820	99.9654	
   407	-6.7840	 6.7221	-0.0620	-7.6798	 8.5457	 0.8658	-8.1511	 9.7024	 1.5512	47.4548	99.9631	
   408	-6.1768	 6.8095	 0.6327	-6.9486	 8.6056	 1.6569	-7.4170	 9.7760	 2.3589	48.0267	99.9650	
   409	-5.9550	 6.6898	 0.7348	-6.7611	 8.4217	 1.6605	-7.2507	 9.5840	 2.3333	48.2518	99.9632	
   410	-5.7973	 6.8019	 1.0046	-6.5625	 8.6352	 2.0726	-6.9775	 9.6873	 2.7097	48.5325	99.9681	
   411	-5.8356	 6.9441	 1.1085	-6.5356	 8.6257	 2.0900	-7.0820	 9.7242	 2.6421	48.5320	99.9687	
   412	-5.8951	 6.6362	 0.7410	-6.6752	 8.1492	 1.4739	-7.2914	 9.2049	 1.9134	48.8259	99.9657	
   413	-6.2062	 6.3542	 0.1480	-7.3275	 8.0338	 0.7062	-8.1231	 9.1840	 1.0607	47.1324	99.9639	
   414	-6.6496	 6.3526	-0.2970	-7.7551	 8.1087	 0.3535	-8.2598	 8.9841	 0.7242	47.9872	99.9658	
   415	-6.4361	 6.2278	-0.2083	-7.1818	 8.0584	 0.8765	-7.4709	 9.0807	 1.6097	48.8736	99.9655	
   416	-5.6439	 5.9919	 0.3480	-6.5621	 7.7633	 1.2012	-6.9615	 8.7736	 1.8119	48.9948	99.9631	
   417	-5.5696	 5.9171	 0.3474	-6.3653	 7.7284	 1.3630	-6.4800	 8.7911	 2.3110	49.6973	99.9558	
   418	-4.7417	 5.9896	 1.2479	-5.0597	 7.4262	 2.3664	-5.1756	 8.5845	 3.4088	51.6384	99.9545	
   419	-4.4757	 5.9424	 1.4667	-4.7525	 7.5114	 2.7588	-4.3931	 8.5744	 4.1812	52.6976	99.9458	
   420	-3.7727	 6.1641	 2.3914	-3.9171	 7.7006	 3.7833	-3.1877	 8.6933	 5.5056	54.0681	99.9368	
   421	-3.5964	 6.1973	 2.6009	-3.6863	 7.6605	 3.9741	-2.9975	 8.6988	 5.7012	54.2187	99.9356	
   422	-3.4829	 6.1164	 2.6335	-3.6671	 7.5292	 3.8620	-3.5684	 8.2830	 4.7145	53.8052	99.9647	
   423	-3.9984	 6.1005	 2.1021	-4.5559	 7.8017	 3.2457	-4.5674	 8.6360	 4.0685	51.8182	99.9633	
   424	-4.5283	 5.9853	 1.4570	-5.3412	 7.6433	 2.3020	-5.7581	 8.6632	 2.9050	49.9906	99.9629	
   425	-5.1861	 5.9723	 0.7862	-6.1907	 7.6667	 1.4759	-6.7560	 8.6404	 1.8843	48.9803	99.9654	
   426	-5.6788	 5.8197	 0.1408	-6.6076	 7.4750	 0.8673	-7.0160	 8.3630	 1.3469	49.5638	99.9640	
   427	-5.3558	 5.5512	 0.1954	-5.9518	 7.0980	 1.1461	-6.1341	 8.2330	 2.0988	50.6967	99.9531	
   428	-3.9340	 5.6276	 1.6936	-4.2427	 7.2137	 2.9709	-4.1552	 8.2906	 4.1353	52.4874	99.9550	
   429	-3.8588	 5.6890	 1.8302	-4.4307	 7.2801	 2.8493	-4.5018	 8.3465	 3.8445	51.6951	99.9535	
   430	-3.6362	 5.8260	 2.1898	-4.0058	 7.4898	 3.4838	-3.5586	 8.3462	 4.7874	53.4023	99.9505	
   431	-3.2569	 5.9390	 2.6821	-3.4791	 7.4628	 3.9836	-3.2487	 8.3699	 5.1210	53.5918	99.9568	
   432	-3.5663	 6.0499	 2.4836	-3.6696	 7.4886	 3.8189	-3.0648	 8.3714	 5.3066	54.5350	99.9446	
   433	-3.3758	 6.3029	 2.9271	-3.3430	 7.6638	 4.3207	-2.4069	 8.5567	 6.1497	55.4732	99.9321	
   434	-3.1066	 6.1822	 3.0757	-3.2399	 7.3368	 4.0967	-2.5694	 7.9301	 5.3605	56.0312	99.9432	
   435	-3.6624	 5.1768	 1.5144	-4.1055	 6.3350	 2.2294	-4.4000	 7.0876	 2.6875	53.5874	99.9637	
   436	-4.7630	 4.5595	-0.2035	-5.6738	 5.8375	 0.1636	-6.2825	 6.7599	 0.4773	51.1551	99.9588	
   437	-5.5980	 4.3771	-1.2209	-6.5477	 5.6896	-0.8582	-7.1084	 6.6401	-0.4684	50.6924	99.9561	
   438	-5.7682	 4.4381	-1.3301	-6.4058	 5.7640	-0.6419	-6.7449	 6.7659	 0.0209	51.5060	99.9557	
   439	-5.1590	 4.5570	-0.6020	-5.7039	 6.0141	 0.3102	-5.7569	 7.1130	 1.3560	51.9794	99.9478	
   440	-3.7460	 5.2309	 1.4849	-3.7825	 6.7813	 2.9987	-3.3285	 7.7382	 4.4096	54.3274	99.9531	
   441	-2.2483	 5.7459	 3.4976	-2.0949	 7.4304	 5.3353	-1.5358	 8.2489	 6.7131	55.2804	99.9631	
   442	-1.4301	 6.2797	 4.8496	-1.2692	 7.7959	 6.5266	-0.8057	 8.3542	 7.5484	56.1590	99.9696	
   443	-2.2065	 5.1687	 2.9622	-2.9504	 6.3697	 3.4191	-3.5519	 7.0846	 3.5326	53.1268	99.9678	
   444	-4.2508	 4.7694	 0.5186	-4.8123	 6.2250	 1.4125	-4.9308	 7.3357	 2.4048	52.1340	99.9491	
   445	-4.0427	 5.0482	 1.0054	-4.3317	 6.3388	 2.0070	-4.2328	 7.2041	 2.9712	53.9525	99.9540	
   446	-3.5914	 5.2959	 1.7045	-3.5966	 6.7917	 3.1950	-2.9605	 7.7413	 4.7807	54.8893	99.9455	
   447	-2.8904	 5.4863	 2.5959	-2.4533	 6.8582	 4.4048	-1.8107	 7.5288	 5.7180	56.8018	99.9647	
   448	-3.3017	 5.3687	 2.0670	-3.2454	 6.5915	 3.3460	-2.6700	 7.4450	 4.7749	55.8141	99.9445	
   449	-3.3097	 5.1226	 1.8129	-3.2909	 6.3031	 3.0122	-2.8888	 6.9654	 4.0764	56.1003	99.9563	
   450	-3.2663	 5.0589	 1.7925	-3.4365	 6.2785	 2.8419	-3.1489	 6.8817	 3.7327	55.6512	99.9581	
   451	-3.4363	 4.8789	 1.4426	-3.6042	 5.9019	 2.2976	-3.6925	 6.7226	 3.0301	54.9330	99.9573	
   452	-3.5260	 4.8387	 1.3128	-3.7879	 6.0360	 2.2480	-3.7025	 6.5567	 2.8541	55.3532	99.9647	
   453	-3.7276	 4.4131	 0.6855	-4.3939	 5.4544	 1.0605	-4.7263	 6.1072	 1.3808	53.9897	99.9587	
   454	-5.0315	 3.9571	-1.0745	-5.5945	 4.9101	-0.6846	-6.1354	 5.5638	-0.5717	53.5952	99.9665	
   455	-5.4542	 3.9079	-1.5464	-5.7750	 4.8770	-0.8981	-6.1297	 5.6586	-0.4711	53.9116	99.9627	
   456	-4.7058	 4.0973	-0.6086	-5.0869	 5.2358	 0.1488	-5.3277	 6.2652	 0.9374	53.3053	99.9518	
   457	-4.2813	 4.4189	 0.1376	-4.7292	 5.4691	 0.7398	-5.0773	 6.2857	 1.2083	53.6981	99.9597	
   458	-4.3123	 4.4300	 0.1177	-4.7342	 5.6093	 0.8750	-4.8522	 6.5754	 1.7231	53.5239	99.9500	
   459	-3.8868	 4.7673	 0.8806	-4.2840	 6.0037	 1.7196	-4.2394	 6.8008	 2.5613	54.1585	99.9535	
   460	-3.7580	 4.9220	 1.1639	-4.2353	 6.1249	 1.8895	-4.2939	 6.8806	 2.5866	53.9593	99.9555	
   461	-3.9644	 5.0361	 1.0718	-4.3876	 6.2133	 1.8256	-4.4101	 6.9217	 2.5115	54.1350	99.9569	
   462	-4.1614	 5.1711	 1.0096	-4.5374	 6.3423	 1.8048	-4.5727	 6.9791	 2.4063	54.2078	99.9613	
   463	-4.2573	 5.1573	 0.8999	-4.5038	 6.2197	 1.7158	-4.4691	 6.8275	 2.3583	54.8664	99.9604	
   464	-4.0706	 5.1064	 1.0357	-4.3473	 6.1990	 1.8516	-4.4601	 6.8788	 2.4186	54.4126	99.9629	
   465	-3.9603	 5.0989	 1.1386	-4.2936	 6.1801	 1.8864	-4.3556	 6.8419	 2.4862	54.5281	99.9598	
   466	-3.8365	 5.0545	 1.2180	-4.2667	 6.1706	 1.9037	-4.3065	 6.7701	 2.4635	54.5357	99.9595	
   467	-3.7592	 5.0268	 1.2676	-4.2151	 6.2284	 2.0132	-4.1757	 7.0689	 2.8931	53.9346	99.9489	
   468	-3.4490	 5.1725	 1.7236	-3.8750	 6.3988	 2.5237	-3.8415	 7.0053	 3.1637	54.5316	99.9599	
   469	-3.5139	 5.1476	 1.6338	-3.9376	 6.3864	 2.4487	-3.9540	 7.1056	 3.1515	54.1353	99.9580	
   470	-3.7013	 4.9418	 1.2404	-4.1724	 6.0334	 1.8610	-4.2484	 6.7496	 2.5010	54.3043	99.9543	
   471	-3.6520	 5.0928	 1.4408	-3.9221	 6.3048	 2.3826	-3.7217	 7.0235	 3.3017	54.8565	99.9539	
   472	-3.3541	 5.1706	 1.8166	-3.5774	 6.4390	 2.8615	-3.4812	 7.1747	 3.6933	54.6805	99.9601	
   473	-3.2932	 5.1328	 1.8395	-3.5662	 6.2897	 2.7234	-3.5010	 6.9456	 3.4444	55.0206	99.9593	
   474	-3.3427	 5.1023	 1.7596	-3.6824	 6.2962	 2.6137	-3.6091	 6.9232	 3.3140	54.8860	99.9593	
   475	-3.3839	 5.0769	 1.6930	-3.7118	 6.2651	 2.5532	-3.6091	 6.9232	 3.3140	54.8987	99.9572	
   476	-3.4323	 5.0622	 1.6298	-3.8012	 6.2621	 2.4607	-3.6763	 6.8925	 3.2161	54.8860	99.9566	
   477	-3.5272	 5.0641	 1.5369	-3.8906	 6.2591	 2.3683	-3.8425	 6.8906	 3.0481	54.7143	99.9594	
   478	-3.6066	 5.0604	 1.4538	-3.9826	 6.2155	 2.2328	-3.9677	 6.8804	 2.9126	54.6072	99.9578	
   479	-3.6963	 5.0203	 1.3240	-4.0833	 6.1404	 2.0569	-4.0848	 6.8068	 2.7218	54.6123	99.9570	
   480	-3.7013	 4.9418	 1.2404	-4.0519	 6.0947	 2.0427	-3.9222	 6.7493	 2.8270	54.9203	99.9547	
   481	-3.4797	 4.9426	 1.4629	-3.7946	 6.1490	 2.3544	-3.6308	 6.7614	 3.1305	55.1299	99.9576	
   482	-3.4827	 4.8955	 1.4128	-3.8773	 6.0330	 2.1556	-3.8096	 6.6490	 2.8393	54.9785	99.9565	
   483	-3.5878	 4.8609	 1.2731	-4.0247	 5.9813	 1.9565	-3.9813	 6.6552	 2.6738	54.7275	99.9534	
   484	-3.5580	 4.9546	 1.3966	-3.9465	 6.1335	 2.1869	-3.7970	 6.7596	 2.9625	54.9541	99.9546	
   485	-3.4666	 5.2672	 1.8006	-3.8052	 6.6371	 2.8318	-3.4231	 7.1541	 3.7309	55.1573	99.9572	
   486	-3.7128	 5.0101	 1.2974	-4.2038	 6.0792	 1.8752	-4.2575	 6.6983	 2.4407	54.5433	99.9560	
   487	-3.9507	 4.7581	 0.8074	-4.4692	 5.7855	 1.3162	-4.6431	 6.5016	 1.8584	54.1581	99.9544	
   488	-4.1659	 4.4900	 0.3240	-4.7829	 5.4881	 0.7051	-5.0257	 6.1585	 1.1327	54.0571	99.9549	
   489	-4.1609	 4.5685	 0.4076	-4.6880	 5.6898	 1.0017	-4.6405	 6.4462	 1.8055	54.2562	99.9470	
   490	-3.8126	 4.8130	 1.0004	-4.2194	 5.9394	 1.7198	-4.0277	 6.6716	 2.6437	54.8317	99.9463	
   491	-3.5550	 5.0017	 1.4468	-3.9356	 6.0882	 2.1524	-3.8515	 6.8393	 2.9878	54.7456	99.9493	
   492	-3.5705	 5.0073	 1.4368	-4.0296	 6.1214	 2.0917	-4.0257	 6.9009	 2.8751	54.3063	99.9497	
   493	-3.4048	 5.3655	 1.9607	-3.6931	 6.7843	 3.0911	-3.2926	 7.3502	 4.0574	55.0345	99.9577	
   494	-3.2213	 5.3881	 2.1668	-3.4876	 6.5594	 3.0718	-3.5056	 6.7716	 3.2659	55.7679	99.9753	
   495	-3.4933	 5.2206	 1.7273	-3.8145	 6.4882	 2.6735	-3.6555	 7.2362	 3.5807	54.4944	99.9545	
   496	-3.3834	 5.5747	 2.1913	-3.7438	 6.9613	 3.2174	-3.4465	 7.8465	 4.3999	53.9541	99.9463	
   497	-3.3926	 5.5539	 2.1613	-3.7354	 6.8753	 3.1398	-3.4669	 7.4117	 3.9448	54.8819	99.9591	
   498	-3.3216	 5.6730	 2.3514	-3.5155	 6.8807	 3.3650	-3.3303	 7.8054	 4.4750	54.3453	99.9482	
   499	-3.1978	 5.6286	 2.4308	-3.3714	 7.0996	 3.7280	-3.0150	 7.8211	 4.8060	54.6451	99.9587	
   500	-3.0884	 5.4850	 2.3966	-3.3590	 6.8599	 3.5009	-3.0434	 7.4498	 4.4063	55.0395	99.9591	
   501	-3.1812	 5.5183	 2.3371	-3.5155	 6.8807	 3.3650	-3.2176	 7.5113	 4.2936	54.7628	99.9562	
   502	-3.2516	 5.7764	 2.5249	-3.5414	 7.1250	 3.5835	-3.1428	 7.8663	 4.7234	54.6347	99.9493	
   503	-3.2875	 5.5885	 2.3010	-3.6120	 6.8733	 3.2611	-3.2793	 7.4726	 4.1932	55.0047	99.9541	
   504	-3.3338	 5.4846	 2.1509	-3.6683	 6.8516	 3.1832	-3.4107	 7.4585	 4.0477	54.6780	99.9586	
   505	-3.3626	 5.4066	 2.0440	-3.7288	 6.7623	 3.0334	-3.5285	 7.3730	 3.8444	54.5591	99.9592	
   506	-3.4678	 5.4926	 2.0247	-3.8542	 6.8412	 2.9869	-3.5830	 7.4528	 3.8696	54.5696	99.9559	
   507	-3.6236	 5.5323	 1.9088	-4.0515	 6.7587	 2.7071	-3.8225	 7.4163	 3.5937	54.4912	99.9508	
   508	-3.7173	 5.4294	 1.7121	-4.0071	 6.5908	 2.5836	-3.7171	 7.1975	 3.4802	55.1412	99.9527	
   509	-3.4841	 5.2414	 1.7573	-3.8191	 6.5244	 2.7052	-3.6010	 7.1564	 3.5554	54.8021	99.9567	
   510	-3.4037	 5.2607	 1.8570	-3.7629	 6.5460	 2.7830	-3.5393	 7.1952	 3.6558	54.7503	99.9552	
   511	-3.3707	 5.2810	 1.9103	-3.7675	 6.5822	 2.8147	-3.5393	 7.1952	 3.6558	54.7400	99.9557	
   512	-3.3717	 5.2653	 1.8936	-3.7360	 6.5365	 2.8004	-3.6010	 7.1564	 3.5554	54.6883	99.9589	
   513	-3.3438	 5.2071	 1.8633	-3.6937	 6.4455	 2.7517	-3.6136	 7.0459	 3.4322	54.7792	99.9609	
   514	-3.3850	 5.1817	 1.7967	-3.7831	 6.4425	 2.6593	-3.6636	 7.0030	 3.3393	54.7975	99.9602	
   515	-3.4222	 5.2192	 1.7970	-3.8145	 6.4882	 2.6735	-3.7181	 7.0828	 3.3646	54.6284	99.9603	
   516	-3.4366	 5.2404	 1.8038	-3.8145	 6.4882	 2.6735	-3.7726	 7.1626	 3.3899	54.3996	99.9592	
   517	-3.3573	 5.2441	 1.8868	-3.7003	 6.5585	 2.8581	-3.5393	 7.1952	 3.6558	54.6572	99.9592	
   518	-3.0964	 5.2389	 2.1425	-3.4045	 6.5716	 3.1670	-3.1872	 7.1313	 3.9440	55.0881	99.9613	
   519	-2.9458	 5.2411	 2.2952	-3.3016	 6.5699	 3.2681	-3.1256	 7.1701	 4.0444	54.9103	99.9598	
   520	-2.9706	 5.2259	 2.2553	-3.3642	 6.5574	 3.1931	-3.1872	 7.1313	 3.9440	54.8925	99.9597	
   521	-2.9768	 5.2522	 2.2754	-3.3797	 6.6389	 3.2592	-3.1256	 7.1701	 4.0444	54.9721	99.9597	
   522	-2.9438	 5.2725	 2.3287	-3.3440	 6.6609	 3.3169	-3.0523	 7.2047	 4.1523	55.0180	99.9580	
   523	-2.9438	 5.2725	 2.3287	-3.3125	 6.6152	 3.3026	-3.1256	 7.1701	 4.0444	54.9620	99.9610	
   524	-3.1150	 5.3178	 2.2028	-3.4648	 6.7036	 3.2387	-3.1667	 7.3723	 4.2055	54.7371	99.9550	
   525	-3.0739	 5.4637	 2.3898	-3.3858	 6.8694	 3.4835	-3.1667	 7.3723	 4.2055	54.9330	99.9647	
   526	-3.0810	 5.3538	 2.2728	-3.3125	 6.6152	 3.3026	-3.1908	 7.0721	 3.8811	55.3975	99.9678	
   527	-3.2361	 4.6705	 1.4345	-3.7307	 5.5246	 1.7938	-3.9206	 6.0889	 2.1682	55.3392	99.9560	
   528	-3.5773	 4.6564	 1.0790	-4.0155	 5.9088	 1.8933	-3.9222	 6.7493	 2.8270	54.2485	99.9489	
   529	-3.1774	 5.8221	 2.6447	-3.2399	 7.3368	 4.0967	-2.7571	 8.0630	 5.3057	54.8725	99.9585	
   530	-2.8755	 6.0833	 3.2078	-3.0578	 7.3969	 4.3391	-2.5114	 7.9096	 5.3981	55.7037	99.9545	
   531	-2.9023	 6.0367	 3.1344	-3.0872	 7.3658	 4.2786	-2.3836	 7.8644	 5.4807	55.9910	99.9495	
   532	-2.7704	 6.1179	 3.3475	-3.0686	 7.4423	 4.3736	-2.5016	 7.9727	 5.4710	55.4964	99.9498	
   533	-2.8281	 6.0824	 3.2543	-3.2131	 7.3273	 4.1141	-2.7632	 7.8653	 5.1021	55.2821	99.9488	
   534	-3.0384	 6.0132	 2.9748	-3.4872	 7.2235	 3.7362	-3.0864	 7.7192	 4.6327	55.1905	99.9492	
   535	-3.1218	 5.9467	 2.8249	-3.5145	 7.1155	 3.6009	-2.9605	 7.7413	 4.7807	55.3691	99.9381	
   536	-2.9671	 5.8913	 2.9242	-3.3529	 7.1761	 3.8230	-2.5271	 7.6488	 5.1215	56.0605	99.9374	
   537	-2.8743	 5.8580	 2.9837	-3.2103	 7.0426	 3.8322	-2.6585	 7.6346	 4.9760	55.6740	99.9421	
   538	-2.8753	 5.8423	 2.9670	-3.3131	 7.0444	 3.7312	-2.7245	 7.5248	 4.8002	55.7802	99.9423	
   539	-2.8391	 5.7891	 2.9500	-3.2485	 6.9800	 3.7314	-2.7245	 7.5248	 4.8002	55.6391	99.9429	
   540	-2.8237	 5.7836	 2.9599	-3.2082	 6.9658	 3.7575	-2.6548	 7.5001	 4.8453	55.7917	99.9427	
   541	-2.8412	 5.7577	 2.9166	-3.2376	 6.9347	 3.6970	-2.7316	 7.4062	 4.6745	55.8466	99.9465	
   542	-2.8731	 5.7531	 2.8800	-3.3002	 6.9222	 3.6219	-2.8594	 7.4514	 4.5919	55.5450	99.9456	
   543	-2.8989	 5.7222	 2.8233	-3.3296	 6.8911	 3.5614	-2.8013	 7.4308	 4.6294	55.6793	99.9414	
   544	-2.7277	 5.6769	 2.9492	-2.9800	 6.8852	 3.9051	-2.2849	 7.4361	 5.1510	56.2908	99.9415	
   545	-2.5926	 5.6847	 3.0921	-2.8188	 6.8282	 4.0093	-2.2152	 7.4114	 5.1961	56.3059	99.9425	
   546	-2.6101	 5.6588	 3.0487	-2.9779	 6.8083	 3.8303	-2.4841	 7.3793	 4.8951	55.8740	99.9429	
   547	-2.6843	 5.6131	 2.9288	-3.0636	 6.7556	 3.6919	-2.5555	 7.2774	 4.7218	55.9992	99.9438	
   548	-2.7142	 5.6399	 2.9257	-3.0636	 6.7556	 3.6919	-2.5458	 7.3406	 4.7947	55.9586	99.9408	
   549	-2.6998	 5.6187	 2.9189	-3.1038	 6.7698	 3.6659	-2.5555	 7.2774	 4.7218	56.0297	99.9422	
   550	-2.7245	 5.6035	 2.8789	-3.0884	 6.6882	 3.5998	-2.6172	 7.2387	 4.6214	56.0140	99.9426	
   551	-2.7822	 5.5679	 2.7857	-3.1849	 6.6808	 3.4958	-2.6905	 7.2040	 4.5134	55.9767	99.9425	
   552	-2.8461	 5.5587	 2.7126	-3.1937	 6.6493	 3.4555	-2.6324	 7.1835	 4.5510	56.1992	99.9403	
   553	-2.6172	 5.5489	 2.9317	-2.7681	 6.6512	 3.8830	-2.0427	 7.2234	 5.1806	56.8407	99.9390	
   554	-2.4058	 5.5133	 3.1074	-2.6045	 6.6349	 4.0303	-1.9149	 7.1782	 5.2632	56.8306	99.9407	
   555	-2.2961	 5.1286	 2.8324	-2.5166	 6.0642	 3.5475	-2.4237	 6.2199	 3.7960	57.3304	99.9697	
   556	-2.6954	 4.3401	 1.6446	-3.1840	 5.1584	 1.9743	-3.4692	 5.6086	 2.1393	55.9817	99.9626	
   557	-2.9386	 4.1301	 1.1915	-3.5623	 4.9254	 1.3630	-3.9430	 5.4248	 1.4817	55.4844	99.9596	
   558	-2.9302	 4.0147	 1.0844	-3.6279	 4.7549	 1.1269	-4.0361	 5.1611	 1.1249	55.7197	99.9603	
   559	-2.8399	 4.4320	 1.5922	-3.4003	 5.6500	 2.2495	-3.3440	 6.5995	 3.2554	54.2593	99.9398	
   560	-1.3174	 5.9421	 4.6247	-1.8776	 7.3951	 5.5174	-1.7711	 7.9870	 6.2158	54.5246	99.9598	
   561	-1.2809	 5.5275	 4.2466	-1.9703	 6.5700	 4.5995	-2.3169	 7.0054	 4.6884	54.9936	99.9657	
   562	-1.0839	 5.5130	 4.4291	-1.9539	 6.7233	 4.7693	-2.1874	 7.0868	 4.8993	54.7461	99.9635	
   563	-1.6709	 4.7598	 3.0888	-2.7582	 5.6030	 2.8447	-3.3718	 5.9434	 2.5715	54.6666	99.9615	
   564	-2.8828	 4.0137	 1.1309	-3.7710	 4.7708	 0.9998	-4.5093	 5.1830	 0.6736	54.6746	99.9667	
   565	-3.5558	 3.7652	 0.2093	-4.3352	 4.5274	 0.1921	-5.0019	 4.8849	-0.1172	54.9578	99.9694	
   566	-3.8691	 3.5723	-0.2968	-4.5997	 4.2473	-0.3526	-5.1861	 4.5867	-0.5995	55.4266	99.9663	
   567	-3.9990	 3.5225	-0.4765	-4.6535	 4.2662	-0.3873	-5.1400	 4.6612	-0.4789	55.4300	99.9650	
   568	-3.7509	 3.9315	 0.1806	-4.3723	 4.9210	 0.5486	-4.7273	 5.5022	 0.7748	54.5915	99.9618	
   569	-3.4491	 4.3132	 0.8641	-3.8702	 5.2694	 1.3991	-4.2126	 5.8712	 1.6585	54.9599	99.9652	
   570	-3.1439	 4.2600	 1.1161	-3.6281	 5.0801	 1.4519	-3.9985	 5.3900	 1.3914	55.9902	99.9704	
   571	-3.4744	 3.8002	 0.3258	-4.2769	 4.4722	 0.1952	-4.8708	 4.7962	-0.0748	55.3788	99.9650	
   572	-3.6271	 3.8871	 0.2600	-4.1365	 4.7409	 0.6042	-4.4600	 5.2140	 0.7539	55.5386	99.9638	
   573	-3.7334	 3.9573	 0.2240	-4.1441	 4.8404	 0.6962	-4.4834	 5.4160	 0.9325	55.2882	99.9643	
   574	-3.9551	 3.9565	 0.0015	-4.3871	 4.7948	 0.4076	-4.9043	 5.3225	 0.4182	55.0179	99.9700	
   575	-4.3219	 3.6704	-0.6514	-4.8695	 4.4325	-0.4371	-5.4350	 4.5899	-0.8452	55.7725	99.9778	
   576	-4.8712	 3.3775	-1.4937	-5.3112	 4.1734	-1.1378	-5.7022	 4.6843	-1.0180	55.2735	99.9653	
   577	-4.3240	 3.7596	-0.5645	-4.4992	 4.6476	 0.1483	-4.7241	 5.1620	 0.4378	55.9136	99.9692	
   578	-3.6910	 3.8779	 0.1869	-3.8247	 4.7898	 0.9650	-4.0797	 5.2249	 1.1452	56.3049	99.9740	
   579	-3.5147	 3.9111	 0.3963	-3.7084	 4.7833	 1.0748	-4.0303	 5.2559	 1.2255	56.1378	99.9724	
   580	-3.4076	 3.9770	 0.5695	-3.6891	 4.8733	 1.1842	-3.9549	 5.3261	 1.3711	56.0814	99.9697	
   581	-3.3880	 4.0343	 0.6462	-3.7100	 4.9776	 1.2675	-3.8940	 5.3530	 1.4590	56.2079	99.9698	
   582	-3.2665	 4.1995	 0.9330	-3.4808	 5.1318	 1.6510	-3.6437	 5.5673	 1.9235	56.2938	99.9697	
   583	-3.0120	 4.3412	 1.3292	-3.2784	 5.2956	 2.0171	-3.4627	 5.7152	 2.2524	56.1819	99.9700	
   584	-2.9285	 4.4076	 1.4791	-3.1847	 5.3663	 2.1814	-3.3347	 5.7729	 2.4381	56.2872	99.9697	
   585	-2.8863	 4.4487	 1.5624	-3.0999	 5.4055	 2.3054	-3.1976	 5.8819	 2.6842	56.2985	99.9669	
   586	-2.4627	 4.6341	 2.1714	-2.4807	 5.7609	 3.2801	-2.3657	 6.1994	 3.8336	56.8262	99.9704	
   587	-2.0308	 4.8246	 2.7937	-2.0890	 5.9892	 3.9001	-1.8864	 6.3751	 4.4886	57.0372	99.9690	
   588	-1.9247	 4.8749	 2.9502	-2.0999	 6.0346	 3.9346	-1.8095	 6.4690	 4.6594	56.9038	99.9616	
   589	-1.8937	 4.8638	 2.9700	-2.0844	 5.9530	 3.8685	-1.6970	 6.3687	 4.6716	57.2774	99.9564	
   590	-1.7989	 4.8619	 3.0630	-1.9635	 5.9103	 3.9467	-1.7005	 6.3094	 4.6088	57.2804	99.9609	
   591	-1.8905	 4.6698	 2.7794	-2.0174	 5.7079	 3.6904	-1.8349	 5.9513	 4.1163	57.6615	99.9690	
   592	-2.0264	 4.5258	 2.4994	-2.2458	 5.5672	 3.3214	-2.1640	 5.9041	 3.7400	57.1056	99.9672	
   593	-1.9481	 4.5138	 2.5657	-1.9885	 5.6216	 3.6330	-1.7768	 5.9308	 4.1539	57.6116	99.9700	
   594	-1.7160	 4.4305	 2.7146	-1.6910	 5.4404	 3.7493	-1.6297	 5.7153	 4.0856	57.9257	99.9745	
   595	-1.8570	 4.2080	 2.3510	-2.0441	 5.1708	 3.1266	-2.1173	 5.5002	 3.3828	57.3494	99.9711	
   596	-2.1136	 4.0350	 1.9214	-2.3741	 4.9415	 2.5673	-2.4702	 5.2556	 2.7853	57.3249	99.9691	
   597	-2.2424	 4.0009	 1.7585	-2.4140	 4.8518	 2.4377	-2.5283	 5.2761	 2.7477	57.2828	99.9671	
   598	-2.2125	 3.9741	 1.7616	-2.4677	 4.8708	 2.4029	-2.6009	 5.2533	 2.6524	57.1156	99.9681	
   599	-2.2950	 3.9234	 1.6284	-2.5362	 4.7635	 2.2272	-2.7289	 5.1957	 2.4666	57.0390	99.9673	
   600	-2.3362	 3.8980	 1.5618	-2.6344	 4.7290	 2.0945	-2.8105	 5.1216	 2.3110	57.0767	99.9663	
   601	-2.3836	 3.8989	 1.5153	-2.6033	 4.7872	 2.1838	-2.6680	 5.2226	 2.5545	57.1629	99.9649	
   602	-1.9754	 3.9694	 1.9940	-2.0925	 4.9457	 2.8532	-2.0918	 5.3338	 3.2419	57.5205	99.9691	
   603	-1.8341	 3.9508	 2.1168	-1.9939	 4.8763	 2.8823	-2.0427	 5.2620	 3.2191	57.5570	99.9684	
   604	-1.8835	 3.9204	 2.0368	-2.0875	 4.8056	 2.7180	-2.1824	 5.2084	 3.0259	57.4434	99.9672	
   605	-1.9815	 3.8752	 1.8937	-2.1874	 4.7441	 2.5565	-2.3221	 5.1548	 2.8327	57.3678	99.9677	
   606	-2.0000	 3.8336	 1.8337	-2.2634	 4.7363	 2.4728	-2.2759	 5.0356	 2.7596	57.6867	99.9667	
   607	-2.0267	 3.7870	 1.7603	-2.2853	 4.6057	 2.3203	-2.4156	 4.9820	 2.5664	57.5126	99.9660	
   608	-2.1566	 3.7372	 1.5806	-2.4524	 4.5679	 2.1154	-2.5581	 4.8811	 2.3228	57.5806	99.9666	
   609	-2.1916	 3.6855	 1.4939	-2.4520	 4.4639	 2.0118	-2.6162	 4.9016	 2.2853	57.3785	99.9639	
   610	-2.0029	 3.6660	 1.6631	-2.2329	 4.4557	 2.2227	-2.3519	 4.7598	 2.4078	57.9108	99.9680	
   611	-2.0595	 3.5257	 1.4662	-2.5147	 4.2301	 1.7153	-2.7698	 4.5200	 1.7501	57.5458	99.9646	
   612	-2.3584	 3.4321	 1.0737	-2.9176	 4.1511	 1.2333	-3.1617	 4.5132	 1.3513	57.0739	99.9591	
   613	-2.3628	 3.7308	 1.3680	-2.6941	 4.6532	 1.9591	-2.7144	 5.2390	 2.5244	56.7079	99.9555	
   614	-1.8097	 4.3276	 2.5179	-2.2833	 5.2968	 3.0134	-2.1060	 5.8836	 3.7776	56.6141	99.9447	
   615	-1.6222	 4.5335	 2.9112	-2.2706	 5.4999	 3.2292	-2.1060	 5.8836	 3.7776	56.7271	99.9478	
   616	-2.0353	 4.1435	 2.1082	-2.5402	 5.1385	 2.5982	-2.4296	 5.8285	 3.3987	56.1308	99.9427	
   617	-2.1270	 4.0720	 1.9449	-2.5671	 5.1480	 2.5809	-2.2373	 5.8695	 3.6321	56.3844	99.9372	
   618	-1.9684	 4.1998	 2.2314	-2.3664	 5.2847	 2.9182	-1.9808	 5.8939	 3.9130	56.8039	99.9418	
   619	-1.8561	 4.3443	 2.4881	-2.3105	 5.4102	 3.0996	-2.0788	 6.0375	 3.9585	56.3955	99.9448	
   620	-1.8542	 4.4962	 2.6420	-2.3780	 5.5378	 3.1597	-2.1950	 6.0785	 3.8834	56.3539	99.9473	
   621	-2.0759	 4.4954	 2.4195	-2.6592	 5.4297	 2.7703	-2.5367	 5.9208	 3.3840	56.3986	99.9462	
   622	-2.3079	 4.4581	 2.1502	-2.8452	 5.4192	 2.5740	-2.7200	 5.9311	 3.2110	56.2875	99.9478	
   623	-2.0740	 4.6473	 2.5733	-2.6306	 5.6686	 3.0379	-2.4237	 6.2199	 3.7960	56.1707	99.9442	
   624	-1.7503	 4.7561	 3.0058	-2.2146	 5.8468	 3.6321	-1.9409	 6.4549	 4.5139	56.2575	99.9445	
   625	-1.2916	 4.8727	 3.5811	-1.6810	 6.1495	 4.4684	-1.2233	 6.7462	 5.5228	56.4676	99.9463	
   626	-0.6216	 5.0741	 4.4526	-0.9602	 6.3722	 5.4119	-0.2772	 6.7933	 6.5160	57.5004	99.9464	
   627	-0.1979	 5.1390	 4.9412	-0.4789	 6.2782	 5.7993	 0.2472	 6.7351	 6.9823	58.1101	99.9400	
   628	-0.5872	 4.7486	 4.1614	-0.7410	 5.8174	 5.0763	-0.4621	 5.9929	 5.5308	58.4196	99.9676	
   629	-1.0949	 4.1195	 3.0245	-1.8412	 4.6840	 2.8427	-2.4128	 4.7329	 2.3199	57.4559	99.9712	
   630	-3.5781	 3.2993	-0.2788	-4.7806	 3.5501	-1.2306	-6.0548	 3.5618	-2.4931	55.3050	99.9757	
   631	-6.0281	 2.3788	-3.6493	-7.3241	 2.4908	-4.8334	-8.3389	 2.4801	-5.8589	55.3425	99.9618	
   632	-7.2883	 1.4975	-5.7908	-8.6433	 1.5871	-7.0564	-9.4120	 1.5092	-7.9028	55.8607	99.9522	
   633	-7.9478	 1.0915	-6.8563	-9.0918	 1.2197	-7.8722	-9.7341	 1.2840	-8.4501	55.9948	99.9492	
   634	-7.8944	 1.3053	-6.5891	-8.7025	 1.6287	-7.0739	-9.0203	 1.9036	-7.1169	56.1831	99.9446	
   635	-6.9584	 1.5800	-5.3784	-7.5956	 1.8811	-5.7146	-7.8857	 2.1262	-5.7596	57.0256	99.9499	
   636	-6.7192	 1.6067	-5.1125	-7.4961	 1.8252	-5.6711	-7.9651	 2.0877	-5.8775	56.6648	99.9485	
   637	-6.8946	 1.7097	-5.1849	-7.6102	 1.9762	-5.6341	-8.0175	 2.2031	-5.8145	56.7243	99.9516	
   638	-6.7947	 1.7863	-5.0083	-7.5535	 2.1153	-5.4383	-7.8761	 2.3831	-5.4930	56.5441	99.9470	
   639	-6.7329	 1.8847	-4.8482	-7.4272	 2.0499	-5.3774	-7.8956	 2.2569	-5.6388	56.9312	99.9520	
   640	-6.7561	 1.4031	-5.3531	-7.4946	 0.8629	-6.6317	-8.6135	 2.3531	-6.2605	54.3129	99.8491	
   641	-7.1073	 1.9707	-5.1365	-7.9273	 2.3926	-5.5348	-8.3118	 2.6339	-5.6779	55.8507	99.9524	
   642	-7.4585	 1.5586	-5.8999	-8.3250	 1.8482	-6.4769	-8.8104	 2.1381	-6.6723	55.8404	99.9477	
   643	-7.6428	 1.2793	-6.3635	-8.6270	 1.5190	-7.1081	-9.1214	 1.7032	-7.4183	56.0651	99.9470	
   644	-7.8921	 1.0956	-6.7965	-8.8642	 1.3469	-7.5175	-9.3115	 1.5040	-7.8076	56.2131	99.9472	
   645	-7.9808	 1.0712	-6.9096	-8.9607	 1.3395	-7.6214	-9.3771	 1.4969	-7.8803	56.1835	99.9462	
   646	-8.0385	 1.0357	-7.0028	-8.9818	 1.2224	-7.7595	-9.4725	 1.3914	-8.0812	56.2822	99.9470	
   647	-8.0745	 0.9683	-7.1062	-9.0566	 1.1242	-7.9324	-9.5522	 1.2500	-8.3023	56.4114	99.9467	
   648	-8.1786	 0.9494	-7.2292	-9.1908	 1.1717	-8.0193	-9.6558	 1.4017	-8.2542	55.9197	99.9417	
   649	-8.0891	 1.1101	-6.9790	-8.9796	 1.3669	-7.6128	-9.3539	 1.4887	-7.8653	56.4947	99.9489	
   650	-7.8520	 1.2258	-6.6262	-8.6219	 1.6003	-7.0218	-8.6942	 1.6068	-7.0876	57.3895	99.9497	
   651	-7.8032	 0.8790	-6.9242	-8.6788	 1.2398	-7.4390	-8.8478	 1.2252	-7.6228	57.3222	99.9505	
   652	-7.9052	 0.7710	-7.1342	-8.6617	 0.9640	-7.6978	-8.9250	 1.0284	-7.8966	57.6222	99.9489	
   653	-8.0226	 0.6686	-7.3541	-8.7579	 0.8527	-7.9053	-9.1379	 0.9402	-8.1978	57.3977	99.9532	
   654	-7.9619	 0.7512	-7.2107	-8.6991	 0.9149	-7.7843	-9.3070	 0.8910	-8.4161	57.2602	99.9659	
   655	-8.4421	 0.4255	-8.0166	-9.4601	 0.7064	-8.7538	-9.9718	 0.8837	-9.0882	55.9895	99.9485	
   656	-7.8294	 1.3302	-6.4993	-8.4300	 1.7054	-6.7247	-8.6643	 1.8080	-6.8563	57.0978	99.9579	
   657	-6.4824	 1.9635	-4.5189	-7.3148	 1.8718	-5.4431	-7.9597	 1.5894	-6.3704	58.3489	99.9662	
   658	-6.1601	 2.4182	-3.7420	-7.0798	 3.4354	-3.6445	-7.0453	 3.7604	-3.2850	55.0005	99.9487	
   659	-5.2751	 3.1288	-2.1463	-5.8565	 3.9026	-1.9540	-6.1300	 4.5751	-1.5549	54.8328	99.9491	
   660	-3.8097	 4.0008	 0.1911	-4.1886	 4.7869	 0.5982	-4.3728	 5.0863	 0.7135	56.4776	99.9668	
   661	-4.0570	 2.7482	-1.3088	-5.2519	 2.8172	-2.4348	-6.1143	 2.5779	-3.5365	57.3875	99.9660	
   662	-5.6637	 1.8947	-3.7689	-6.3284	 2.0629	-4.2656	-6.5477	 2.1802	-4.3676	58.2370	99.9465	
   663	-5.4398	 1.8064	-3.6334	-6.0964	 1.9325	-4.1640	-6.4202	 2.0322	-4.3881	58.3723	99.9503	
   664	-5.3418	 1.7311	-3.6107	-6.0024	 1.8993	-4.1032	-6.3019	 2.0267	-4.2753	58.3267	99.9494	
   665	-5.0387	 1.7670	-3.2717	-5.6968	 1.9574	-3.7395	-6.0636	 2.1423	-3.9214	58.1240	99.9504	
   666	-5.0654	 1.7203	-3.3451	-5.7993	 1.8552	-3.9441	-6.2306	 1.8321	-4.3987	58.5528	99.9577	
   667	-5.8938	 1.0295	-4.8643	-6.5622	 1.1770	-5.3854	-6.8834	 1.2394	-5.6441	58.6622	99.9523	
   668	-5.6774	 1.1929	-4.4845	-6.2893	 1.3711	-4.9183	-6.5033	 1.4441	-5.0593	58.8741	99.9504	
   669	-5.6321	 1.2810	-4.3511	-6.2351	 1.4696	-4.7656	-6.4046	 1.5061	-4.8986	59.0110	99.9509	
   670	-5.4660	 1.1572	-4.3088	-5.7852	 1.4213	-4.3640	-5.7350	 1.4935	-4.2416	59.8300	99.9525	
   671	-4.2869	 1.6419	-2.6450	-4.5285	 1.7660	-2.7626	-4.7742	 1.6868	-3.0875	60.4374	99.9671	
   672	-3.7900	 1.7368	-2.0532	-4.1876	 1.9500	-2.2377	-4.4652	 1.8924	-2.5729	59.9806	99.9655	
   673	-3.2623	 1.9411	-1.3212	-3.5919	 2.1477	-1.4443	-3.9314	 1.9883	-1.9432	60.3943	99.9723	
   674	-2.8715	 1.9857	-0.8859	-3.3774	 2.1757	-1.2018	-3.7159	 2.0211	-1.6948	60.2597	99.9670	
   675	-3.0457	 1.8634	-1.1823	-3.5512	 2.0296	-1.5218	-4.0540	 1.9226	-2.1315	59.8874	99.9703	
   676	-3.4430	 2.2067	-1.2363	-3.5569	 2.3775	-1.1795	-4.2089	 2.7946	-1.4144	58.5824	99.9665	
   677	-2.9522	 2.2073	-0.7448	-3.4028	 2.5375	-0.8654	-3.7582	 2.7928	-0.9655	58.7495	99.9581	
   678	-1.8413	 2.8611	 1.0198	-1.8540	 3.4916	 1.6375	-1.7262	 3.7275	 2.0012	59.8408	99.9634	
   679	-0.3455	 3.2242	 2.8787	-0.5498	 3.8265	 3.2765	-0.5803	 3.8432	 3.2629	60.2930	99.9694	
   680	-0.8532	 2.5951	 1.7419	-1.2684	 2.9803	 1.7118	-1.5500	 2.9146	 1.3645	60.3699	99.9693	
   681	-1.3478	 2.2906	 0.9427	-1.5624	 2.6691	 1.1066	-1.7410	 2.6007	 0.8596	60.8942	99.9711	
   682	-1.6796	 2.0562	 0.3765	-1.8466	 2.4028	 0.5561	-2.1724	 2.4323	 0.2598	60.5418	99.9731	
   683	-1.8115	 1.9750	 0.1634	-1.9440	 2.3819	 0.4378	-2.2006	 2.3575	 0.1568	60.6999	99.9749	
   684	-1.7764	 1.9061	 0.1297	-1.8920	 2.3358	 0.4437	-2.1215	 2.2932	 0.1716	60.8253	99.9755	
   685	-1.7507	 1.9371	 0.1864	-1.8618	 2.3805	 0.5186	-2.0541	 2.4268	 0.3726	60.6333	99.9723	
   686	-1.2900	 2.2056	 0.9156	-1.3621	 2.6883	 1.3260	-1.4638	 2.6723	 1.2084	60.9656	99.9731	
   687	-1.0602	 2.3320	 1.2718	-1.0804	 2.9139	 1.8334	-1.1205	 3.1503	 2.0297	60.3197	99.9671	
   688	-0.2976	 2.7412	 2.4436	-0.2378	 3.3288	 3.0909	-0.1619	 3.5017	 3.3397	60.8969	99.9675	
   689	 0.2919	 3.0438	 3.3357	 0.3285	 3.7168	 4.0452	 0.5059	 3.8530	 4.3588	60.9922	99.9669	
   690	 0.3218	 3.0170	 3.3388	 0.2421	 3.6505	 3.8924	 0.2588	 3.7889	 4.0477	60.6385	99.9680	
   691	-0.0801	 2.7997	 2.7196	-0.1425	 3.4266	 3.2840	-0.1505	 3.6914	 3.5408	60.2840	99.9650	
   692	 0.1608	 3.2193	 3.3801	 0.3023	 4.0650	 4.3672	 0.6006	 4.4370	 5.0375	60.2345	99.9627	
   693	 0.8998	 3.5085	 4.4083	 0.8359	 4.3677	 5.2035	 1.1158	 4.5213	 5.6371	60.4988	99.9650	
   694	 0.7555	 3.4799	 4.2354	 0.7066	 4.2751	 4.9815	 0.9145	 4.4290	 5.3434	60.5084	99.9662	
   695	 0.4587	 3.2972	 3.7559	 0.4769	 4.0034	 4.4801	 0.5709	 4.3385	 4.9093	60.1836	99.9634	
   696	 0.6484	 3.2934	 3.9418	 0.7224	 4.0896	 4.8119	 0.9581	 4.3652	 5.3232	60.5318	99.9647	
   697	 0.9103	 3.3039	 4.2142	 1.0334	 4.1250	 5.1583	 1.2836	 4.3531	 5.6366	60.8005	99.9675	
   698	 0.6785	 3.1461	 3.8246	 0.7094	 3.9904	 4.6997	 0.9077	 4.2195	 5.1272	60.4906	99.9674	
   699	 0.3507	 2.9745	 3.3252	 0.3138	 3.5905	 3.9042	 0.2588	 3.7889	 4.0477	60.5233	99.9690	
   700	-0.2182	 2.7448	 2.5266	-0.2349	 3.2655	 3.0305	-0.2606	 3.4397	 3.1790	60.7844	99.9670	
   701	-0.7519	 2.3258	 1.5739	-0.9332	 2.7443	 1.8110	-1.0505	 2.7381	 1.6875	61.0531	99.9689	
   702	-1.3281	 2.1068	 0.7787	-1.3790	 2.6389	 1.2598	-1.3492	 2.8013	 1.4520	60.7081	99.9652	
   703	-0.7655	 2.4833	 1.7178	-0.7546	 3.0755	 2.3208	-0.6459	 3.3458	 2.6998	60.5656	99.9620	
   704	 0.1510	 2.7008	 2.8518	-0.0634	 3.0458	 2.9823	-0.4206	 2.9514	 2.5307	61.1595	99.9759	
   705	-1.1483	 1.7050	 0.5567	-1.5884	 1.9241	 0.3357	-2.0641	 1.7705	-0.2937	61.0393	99.9732	
   706	-1.8669	 1.6093	-0.2576	-2.0634	 2.0089	-0.0546	-2.1910	 2.1241	-0.0671	60.6808	99.9645	
   707	-0.9489	 2.3402	 1.3914	-1.1890	 3.0422	 1.8531	-0.8691	 3.2854	 2.4163	60.2979	99.9511	
   708	 0.4653	 2.9093	 3.3746	 0.0589	 3.3554	 3.4142	-0.2606	 3.4397	 3.1790	60.2048	99.9671	
   709	 0.8155	 3.3058	 4.1212	 0.3610	 3.9059	 4.2668	 0.2648	 3.9866	 4.2513	60.0640	99.9626	
   710	 1.0361	 3.2909	 4.3270	 0.4893	 3.7637	 4.2530	 0.2327	 3.7497	 3.9823	60.2753	99.9651	
   711	 0.3714	 2.9269	 3.2983	-0.0292	 3.4834	 3.4541	-0.1911	 3.6089	 3.4177	60.0654	99.9637	
   712	 0.7692	 3.2019	 3.9711	 0.5171	 3.9891	 4.5062	 0.8119	 4.2049	 5.0168	60.3494	99.9552	
   713	 1.9379	 3.7707	 5.7085	 1.5432	 4.5952	 6.1383	 1.7338	 4.6360	 6.3696	60.4409	99.9614	
   714	 2.0152	 3.7429	 5.7582	 1.4827	 4.5059	 5.9885	 1.5753	 4.4680	 6.0432	60.4262	99.9618	
   715	 0.3535	 2.2828	 2.6363	-0.4625	 2.3704	 1.9078	-1.0977	 2.2523	 1.1545	60.6556	99.9634	
   716	-2.7161	 1.2071	-1.5090	-2.9846	 1.3243	-1.6604	-3.4105	 1.3805	-2.0301	60.7412	99.9667	
   717	-4.2652	 0.5097	-3.7555	-4.8136	 0.7183	-4.0954	-5.3193	 0.7170	-4.6024	59.6825	99.9669	
   718	-4.6549	 0.4808	-4.1741	-4.9710	 0.7254	-4.2456	-5.1862	 0.8577	-4.3286	60.0517	99.9593	
   719	-3.6233	 1.0104	-2.6129	-3.5927	 1.3662	-2.2266	-3.4405	 1.6696	-1.7710	60.7797	99.9523	
   720	-2.2597	 1.6538	-0.6059	-1.9895	 2.0935	 0.1039	-1.7830	 2.4945	 0.7113	61.0658	99.9562	
   721	-0.7622	 2.2893	 1.5272	-0.6239	 2.7526	 2.1286	-0.5513	 2.9492	 2.3978	61.3374	99.9656	
   722	-0.8218	 2.1019	 1.2801	-0.9493	 2.4870	 1.5377	-1.0141	 2.5557	 1.5416	61.2397	99.9653	
   723	-1.4432	 1.7947	 0.3514	-1.6250	 2.4352	 0.8101	-1.2911	 2.7808	 1.4895	60.4268	99.9460	
   724	-0.8867	 2.0770	 1.1903	-1.0740	 2.3581	 1.2841	-1.3223	 2.1682	 0.8459	61.7166	99.9749	
   725	-2.4736	 1.0398	-1.4338	-3.0170	 1.1351	-1.8820	-3.6614	 0.9606	-2.7008	60.7140	99.9738	
   726	-3.2231	 0.9552	-2.2679	-3.5374	 1.1530	-2.3846	-4.0098	 1.0837	-2.9262	60.6081	99.9737	
   727	-3.2056	 0.9810	-2.2246	-3.6890	 1.0335	-2.6556	-4.2016	 0.7580	-3.4437	61.1377	99.9735	
   728	-3.6024	 0.7217	-2.8806	-4.0127	 0.7951	-3.2178	-4.3986	 0.7368	-3.6619	60.8556	99.9645	
   729	-3.2355	 0.8873	-2.3481	-3.4762	 1.0345	-2.4419	-3.8627	 0.8683	-2.9945	61.3231	99.9746	
   730	-3.1260	 0.7437	-2.3823	-3.5241	 0.9269	-2.5974	-3.9984	 0.7831	-3.2154	60.8641	99.9735	
   731	-2.8943	 1.0220	-1.8723	-3.2205	 1.2831	-1.9375	-3.6780	 1.3721	-2.3060	60.1534	99.9692	
   732	-1.8056	 2.1897	 0.3841	-1.6717	 3.0052	 1.3334	-1.3230	 3.1371	 1.8140	60.6962	99.9681	
   733	 0.4541	 2.7366	 3.1907	-0.4826	 3.2561	 2.7735	-1.0141	 2.5557	 1.5416	60.7754	99.9793	
   734	-0.1765	 2.2881	 2.1116	-1.3246	 2.1907	 0.8660	-2.5164	 1.4520	-1.0645	60.8719	99.9844	
   735	-1.0996	 1.4787	 0.3791	-2.3744	 1.2056	-1.1689	-3.7156	 0.6529	-3.0628	60.3887	99.9791	
   736	-2.0383	 0.7953	-1.2430	-3.4073	 0.4912	-2.9162	-4.7034	 0.1120	-4.5915	59.8797	99.9695	
   737	-3.5752	 0.4068	-3.1684	-4.7693	 0.3290	-4.4404	-5.8509	 0.1663	-5.6847	58.9115	99.9660	
   738	-5.0279	 0.2210	-4.8069	-6.2766	 0.0383	-6.2384	-7.2387	-0.3180	-7.5568	59.2322	99.9647	
   739	-6.1677	-0.3902	-6.5579	-7.3254	-0.7120	-8.0375	-7.9247	-1.0684	-8.9933	60.3561	99.9482	
   740	-6.4840	-0.6302	-7.1142	-7.4921	-0.8537	-8.3459	-7.8811	-1.1323	-9.0135	60.5790	99.9445	
   741	-6.3924	-0.4382	-6.8306	-7.3569	-0.6663	-8.0232	-7.7423	-0.8968	-8.6392	60.4685	99.9434	
   742	-6.4098	-0.5845	-6.9943	-7.3947	-0.8328	-8.2276	-7.7941	-1.0662	-8.8603	60.5543	99.9425	
   743	-6.2532	-0.4881	-6.7413	-7.2583	-0.7357	-7.9941	-7.6025	-1.0370	-8.6396	60.8234	99.9426	
   744	-6.0439	-0.4346	-6.4786	-7.0433	-0.5903	-7.6337	-7.4285	-0.7110	-8.1397	60.0730	99.9393	
   745	-5.4464	 0.1141	-5.3323	-6.4109	 0.0857	-6.3253	-6.8238	 0.0681	-6.7558	59.4017	99.9421	
   746	-4.8715	 0.5585	-4.3130	-5.7991	 0.5407	-5.2586	-6.2645	 0.4880	-5.7766	59.4361	99.9479	
   747	-4.4232	 0.7591	-3.6641	-5.2946	 0.7083	-4.5863	-5.9104	 0.6535	-5.2571	59.4410	99.9550	
   748	-4.3370	 0.1338	-4.2031	-5.8153	 0.0621	-5.7533	-6.4340	 0.0394	-6.3947	58.6600	99.9293	
   749	-4.9753	 0.1780	-4.7972	-5.9681	 0.0331	-5.9352	-6.5863	-0.1248	-6.7112	59.8345	99.9522	
   750	-5.3751	-0.0079	-5.3830	-6.3442	-0.0555	-6.3998	-6.8883	-0.0181	-6.9065	59.1547	99.9442	
   751	-4.8466	 0.4532	-4.3935	-5.6393	 0.3527	-5.2867	-6.2176	 0.3806	-5.8371	59.5655	99.9503	
   752	-4.7043	 0.4503	-4.2540	-5.6313	 0.3707	-5.2608	-6.0913	 0.3118	-5.7796	59.7844	99.9455	
   753	-4.6836	 0.2822	-4.4013	-5.5344	 0.2742	-5.2604	-5.8848	 0.2933	-5.5916	59.8618	99.9423	
   754	-5.0440	-0.1507	-5.1947	-5.7743	-0.1600	-5.9344	-6.0376	-0.0765	-6.1142	60.1932	99.9394	
   755	-5.5380	-0.0780	-5.6159	-6.1851	-0.0356	-6.2208	-6.3992	 0.0271	-6.3722	60.0739	99.9438	
   756	-5.6361	 0.1179	-5.5183	-6.3601	 0.1300	-6.2302	-6.6649	 0.1452	-6.5198	59.7847	99.9462	
   757	-5.3784	 0.1861	-5.1923	-6.0814	 0.1976	-5.8839	-6.4199	 0.1736	-6.2464	59.9496	99.9502	
   758	-5.3342	 0.2586	-5.0756	-6.0763	 0.2788	-5.7976	-6.4059	 0.3079	-6.0981	59.7017	99.9463	
   759	-4.6591	 0.5385	-4.1206	-5.3093	 0.5821	-4.7273	-5.4775	 0.6518	-4.8257	60.1649	99.9412	
   760	-4.3050	 0.1384	-4.1666	-4.9973	 0.0844	-4.9130	-5.1211	 0.1688	-4.9524	60.8165	99.9321	
   761	-4.9006	-0.2584	-5.1590	-5.4499	-0.1293	-5.5793	-5.4418	-0.0327	-5.4746	60.7812	99.9390	
   762	-4.0047	-0.1138	-4.1185	-4.9218	-0.0253	-4.9472	-5.3120	 0.1515	-5.1606	59.5747	99.9372	
   763	-4.0616	 0.1074	-3.9543	-4.6124	 0.2044	-4.4081	-4.6988	 0.2859	-4.4130	60.8939	99.9426	
   764	-4.2316	-0.0726	-4.3042	-4.7502	-0.0237	-4.7739	-4.7650	 0.0732	-4.6919	61.2051	99.9377	
   765	-4.3880	-0.4101	-4.7981	-4.8133	-0.3750	-5.1884	-4.8311	-0.3332	-5.1645	61.6953	99.9435	
   766	-4.6745	-0.5563	-5.2308	-5.2457	-0.4851	-5.7309	-5.3305	-0.3505	-5.6811	60.9201	99.9378	
   767	-4.6314	-0.3790	-5.0104	-5.2103	-0.3592	-5.5697	-5.3316	-0.2714	-5.6032	61.0044	99.9395	
   768	-4.4820	-0.2720	-4.7539	-5.1087	-0.2706	-5.3794	-5.2569	-0.2131	-5.4701	60.9973	99.9397	
   769	-4.4644	-0.2461	-4.7106	-5.0714	-0.2215	-5.2930	-5.2095	-0.1148	-5.3244	60.8527	99.9384	
   770	-4.4478	-0.3565	-4.8043	-4.9476	-0.3275	-5.2752	-4.9473	-0.2922	-5.2396	61.5628	99.9400	
   771	-4.5570	-0.4539	-5.0109	-4.9980	-0.4757	-5.4739	-5.1316	-0.3966	-5.5283	61.4546	99.9438	
   772	-4.7409	-0.1148	-4.8558	-5.3105	-0.0955	-5.4061	-5.5321	-0.0553	-5.5875	60.7389	99.9469	
   773	-4.6431	 0.0509	-4.5922	-5.2089	-0.0069	-5.2159	-5.3877	-0.0216	-5.4094	61.1170	99.9447	
   774	-4.2430	-0.0043	-4.2473	-4.7984	-0.0274	-4.8259	-4.9555	-0.0350	-4.9906	61.2929	99.9451	
   775	-4.1471	 0.0095	-4.1376	-4.7422	-0.0057	-4.7480	-4.9979	-0.0503	-5.0483	61.1507	99.9500	
   776	-4.1534	 0.1564	-3.9971	-4.7371	 0.0755	-4.6617	-5.0176	 0.0172	-5.0005	61.2392	99.9496	
   777	-4.1235	 0.1296	-3.9939	-4.6645	 0.0291	-4.6355	-4.8938	 0.0037	-4.8902	61.4094	99.9465	
   778	-4.0595	 0.0183	-4.0412	-4.4950	-0.1138	-4.6090	-4.6959	-0.1570	-4.8530	61.8901	99.9486	
   779	-4.0149	-0.2708	-4.2857	-4.4646	-0.3944	-4.8591	-4.5564	-0.4000	-4.9565	62.1491	99.9416	
   780	-4.2784	-0.6743	-4.9527	-4.8538	-0.8034	-5.6574	-5.1059	-0.7568	-5.8628	61.6367	99.9411	
   781	-4.4817	-0.5130	-4.9947	-4.9985	-0.5932	-5.5918	-5.1485	-0.5783	-5.7269	61.6855	99.9426	
   782	-3.9569	-0.4763	-4.4333	-4.8508	-0.6454	-5.4963	-5.2067	-0.8543	-6.0612	61.6722	99.9453	
   783	-4.1989	-0.7911	-4.9901	-5.2776	-1.3248	-6.6025	-5.7801	-1.8988	-7.6790	63.1739	99.9482	
   784	-4.8437	-1.4594	-6.3032	-5.8307	-1.9389	-7.7696	-6.0837	-2.6027	-8.6865	64.0675	99.9467	
   785	-5.0064	-1.7706	-6.7769	-5.8476	-2.2096	-8.0573	-6.0008	-2.8015	-8.8024	64.3404	99.9458	
   786	-4.9650	-1.8657	-6.8307	-5.7125	-2.2435	-7.9561	-5.7867	-2.7924	-8.5792	64.4471	99.9460	
   787	-4.9268	-1.8874	-6.8143	-5.6899	-2.3207	-8.0107	-5.8382	-2.8590	-8.6973	64.4430	99.9461	
   788	-4.9743	-1.8865	-6.8608	-5.8644	-2.2590	-8.1235	-6.2430	-2.5888	-8.8319	62.9930	99.9440	
   789	-5.5133	-1.0426	-6.5559	-6.3599	-1.1845	-7.5446	-6.6635	-1.3022	-7.9657	61.1520	99.9415	
   790	-5.0189	-0.4970	-5.5160	-5.7028	-0.6626	-6.3655	-5.9337	-0.8094	-6.7431	61.6218	99.9448	
   791	-4.9549	-0.6084	-5.5633	-5.6471	-0.7584	-6.4056	-5.9119	-0.8413	-6.7533	61.4314	99.9434	
   792	-4.6673	-0.5669	-5.2342	-5.3700	-0.7179	-6.0880	-5.6702	-0.7693	-6.4396	61.3743	99.9429	
   793	-4.5577	-0.8311	-5.3888	-5.1750	-1.0013	-6.1764	-5.2640	-1.0157	-6.2798	62.1054	99.9333	
   794	-5.0894	-1.2187	-6.3081	-5.7066	-1.3808	-7.0875	-5.7078	-1.4885	-7.1964	62.5009	99.9345	
   795	-5.2851	-1.4296	-6.7147	-5.8527	-1.5229	-7.3757	-5.8833	-1.6444	-7.5278	62.4349	99.9416	
   796	-4.9262	-1.5102	-6.4364	-5.7358	-1.9585	-7.6945	-5.8965	-2.4509	-8.3476	63.9875	99.9422	
   797	-4.8661	-1.8048	-6.6709	-5.5748	-2.2368	-7.8117	-5.5211	-2.7168	-8.2380	64.7130	99.9359	
   798	-4.7555	-2.0533	-6.8088	-5.4407	-2.5056	-7.9464	-5.3783	-3.0033	-8.3817	65.1007	99.9364	
   799	-4.8501	-2.2924	-7.1426	-5.4727	-2.7987	-8.2715	-5.3886	-3.2721	-8.6608	65.4565	99.9341	
   800	-4.7418	-2.3313	-7.0731	-5.3384	-2.8461	-8.1847	-5.2739	-3.3368	-8.6108	65.6182	99.9366	
   801	-4.7212	-2.3788	-7.1000	-5.2856	-2.8787	-8.1643	-5.2575	-3.3608	-8.6184	65.5859	99.9398	
   802	-4.7449	-2.3784	-7.1233	-5.3133	-2.8827	-8.1961	-5.3319	-3.3163	-8.6484	65.3594	99.9391	
   803	-4.6635	-2.3433	-7.0068	-5.1902	-2.7809	-7.9712	-5.1941	-3.1955	-8.3897	65.2315	99.9419	
   804	-4.5346	-2.3092	-6.8438	-5.1054	-2.7417	-7.8472	-5.2574	-3.0642	-8.3217	64.6493	99.9425	
   805	-4.8719	-2.1400	-7.0120	-5.4930	-2.3556	-7.8488	-5.6497	-2.4897	-8.1395	63.1451	99.9404	
   806	-5.0056	-1.5138	-6.5194	-5.4993	-1.5785	-7.0780	-5.5716	-1.6880	-7.2596	62.5723	99.9466	
   807	-5.2641	-1.8388	-7.1028	-5.9112	-1.9104	-7.8217	-5.8895	-2.1386	-8.0282	62.8998	99.9422	
   808	-5.0196	-1.9747	-6.9942	-5.7263	-2.1349	-7.8612	-6.1567	-2.5346	-8.6914	62.8788	99.9632	
   809	-5.1782	-2.1025	-7.2807	-5.9555	-2.2891	-8.2447	-6.4636	-2.7046	-9.1683	62.7276	99.9637	
   810	-5.3412	-2.0521	-7.3933	-6.0629	-2.2512	-8.3142	-6.5946	-2.6159	-9.2107	62.5660	99.9640	
   811	-5.3258	-1.9371	-7.2629	-6.0750	-2.1154	-8.1906	-6.5998	-2.5051	-9.1050	62.4677	99.9646	
   812	-5.3589	-1.8369	-7.1958	-6.1648	-2.0145	-8.1794	-6.6543	-2.4254	-9.0797	62.3995	99.9624	
   813	-5.4322	-1.7463	-7.1786	-6.2277	-1.9231	-8.1509	-6.6943	-2.3023	-8.9967	62.2737	99.9607	
   814	-5.4777	-1.5935	-7.0712	-6.2293	-1.7288	-7.9582	-6.6204	-2.0620	-8.6825	62.1306	99.9587	
   815	-5.3572	-1.4439	-6.8012	-6.0823	-1.5732	-7.6556	-6.4210	-1.9024	-8.3235	62.2103	99.9575	
   816	-5.3377	-1.3867	-6.7244	-6.0521	-1.5286	-7.5807	-6.4112	-1.8393	-8.2506	62.1464	99.9575	
   817	-5.3624	-1.4019	-6.7643	-6.0743	-1.5553	-7.6297	-6.4210	-1.9024	-8.3235	62.3058	99.9582	
   818	-5.2831	-1.3983	-6.6813	-6.0126	-1.5563	-7.5690	-6.3513	-1.9270	-8.2784	62.4023	99.9581	
   819	-5.3747	-1.4698	-6.8445	-6.1625	-1.6487	-7.8113	-6.5929	-1.9991	-8.5921	62.1232	99.9583	
   820	-5.5139	-1.5404	-7.0542	-6.3581	-1.7041	-8.0623	-6.7997	-2.0834	-8.8832	62.0117	99.9586	
   821	-5.8363	-1.8745	-7.7108	-6.8390	-2.2606	-9.0997	-7.5232	-2.7661	-10.2894	62.2928	99.9609	
   822	-6.3071	-2.3000	-8.6071	-7.3639	-2.7532	-10.1172	-7.9659	-3.3180	-11.2840	62.7740	99.9561	
   823	-6.3028	-2.4782	-8.7810	-7.3720	-2.9925	-10.3645	-7.9374	-3.6307	-11.5682	63.3420	99.9551	
   824	-6.1748	-2.5804	-8.7552	-7.2079	-3.1127	-10.3207	-7.7722	-3.7436	-11.5159	63.5826	99.9553	
   825	-6.1017	-2.5504	-8.6520	-7.0891	-3.0786	-10.1678	-7.6052	-3.7299	-11.3353	63.8260	99.9558	
   826	-5.9975	-2.5315	-8.5290	-6.9149	-3.0363	-9.9514	-7.3465	-3.6700	-11.0166	64.0395	99.9547	
   827	-5.8409	-2.4351	-8.2760	-6.7142	-2.8997	-9.6140	-7.1518	-3.4906	-10.6425	63.8798	99.9560	
   828	-5.7832	-2.3995	-8.1827	-6.6206	-2.8290	-9.4497	-7.0310	-3.3577	-10.3888	63.7217	99.9546	
   829	-5.9885	-2.2697	-8.2582	-6.8236	-2.5636	-9.3873	-7.3376	-2.9346	-10.2723	62.4987	99.9570	
   830	-6.6765	-2.0149	-8.6914	-7.6451	-2.0934	-9.7386	-8.0331	-2.1743	-10.2075	60.5447	99.9415	
   831	-6.4949	-1.0439	-7.5389	-7.0646	-1.1501	-8.2148	-7.1842	-1.3785	-8.5628	61.7531	99.9506	
   832	-5.8795	-0.9514	-6.8309	-6.3108	-1.1673	-7.4782	-6.5139	-1.3792	-7.8932	62.3475	99.9538	
   833	-5.4773	-0.9752	-6.4525	-6.0355	-1.1539	-7.1895	-6.3209	-1.3264	-7.6473	61.9566	99.9524	
   834	-5.4597	-1.0699	-6.5295	-6.0251	-1.3167	-7.3419	-6.1389	-1.5541	-7.6931	62.6998	99.9451	
   835	-5.3859	-1.6425	-7.0284	-5.7523	-2.1118	-7.8642	-5.8202	-2.5626	-8.3830	64.7804	99.9515	
   836	-5.4793	-2.1069	-7.5862	-6.1159	-2.4400	-8.5560	-6.3507	-2.7021	-9.0529	63.3423	99.9452	
   837	-5.2736	-1.6185	-6.8921	-6.1606	-1.9468	-8.1075	-6.5103	-2.3007	-8.8111	62.6668	99.9460	
   838	-5.0903	-1.3549	-6.4452	-6.0459	-1.7590	-7.8050	-6.5321	-2.2688	-8.8010	62.8401	99.9539	
   839	-5.2881	-1.4767	-6.7649	-6.3083	-1.8946	-8.2030	-6.8401	-2.3597	-9.1999	62.5276	99.9511	
   840	-5.2841	-1.4139	-6.6980	-6.2113	-1.7698	-7.9812	-6.6501	-2.1605	-8.8107	62.4566	99.9492	
   841	-5.1244	-1.2704	-6.3948	-5.9232	-1.5533	-7.4766	-6.3619	-1.8083	-8.1703	62.0981	99.9502	
   842	-5.0296	-1.1518	-6.1814	-5.7266	-1.2630	-6.9898	-6.0667	-1.4404	-7.5072	61.7561	99.9525	
   843	-5.0462	-1.0414	-6.0877	-5.5368	-1.0810	-6.6179	-5.7788	-1.1910	-6.9699	61.8668	99.9550	
   844	-4.8545	-1.0138	-5.8683	-5.4072	-1.0922	-6.4995	-5.7079	-1.2947	-7.0028	62.0724	99.9579	
   845	-5.0348	-1.1098	-6.1446	-5.6695	-1.2278	-6.8975	-6.0087	-1.4609	-7.4697	62.0160	99.9568	
   846	-5.2296	-1.1845	-6.4141	-5.8274	-1.3381	-7.1656	-6.1955	-1.5099	-7.7055	61.9158	99.9552	
   847	-5.2667	-1.2676	-6.5343	-5.9613	-1.3946	-7.3560	-6.2840	-1.5997	-7.8838	61.8748	99.9526	
   848	-5.3503	-1.2135	-6.5638	-5.9760	-1.2994	-7.2755	-6.2903	-1.4098	-7.7002	61.5719	99.9518	
   849	-5.5195	-1.0163	-6.5358	-6.1269	-1.0801	-7.2071	-6.3917	-1.2226	-7.6144	61.5142	99.9528	
   850	-5.6826	-0.8453	-6.5280	-6.1323	-0.8360	-6.9684	-6.2170	-0.8848	-7.1019	61.5042	99.9492	
   851	-5.3662	-0.7259	-6.0921	-5.7713	-0.7699	-6.5412	-6.0065	-0.9350	-6.9416	61.8380	99.9599	
   852	-5.0877	-0.8258	-5.9135	-5.4053	-0.8438	-6.2492	-5.4469	-0.9026	-6.3497	62.1976	99.9512	
   853	-4.2103	-0.7228	-4.9331	-4.5738	-0.6049	-5.1788	-4.6725	-0.3590	-5.0316	61.1886	99.9423	
   854	-2.1982	 0.8928	-1.3054	-2.0356	 1.4664	-0.5693	-1.6661	 1.9749	 0.3087	61.0497	99.9462	
   855	 0.1311	 1.9047	 2.0358	 0.0231	 2.3441	 2.3671	 0.0896	 2.4624	 2.5519	61.7845	99.9607	
   856	 0.6629	 2.1718	 2.8347	 0.5975	 2.7500	 3.3474	 0.6662	 2.9730	 3.6392	61.3334	99.9620	
   857	 0.7504	 2.3010	 3.0515	 0.6005	 2.9081	 3.5085	 0.4804	 3.0387	 3.5190	60.9830	99.9698	
   858	 0.5876	 2.2309	 2.8185	 0.3436	 2.7498	 3.0932	 0.0793	 2.6840	 2.7632	61.2460	99.9754	
   859	 0.0567	 2.1001	 2.1568	-0.2496	 2.5927	 2.3430	-0.5992	 2.4515	 1.8522	61.0828	99.9778	
   860	-0.1917	 2.0526	 1.8609	-0.4754	 2.4926	 2.0171	-0.8969	 2.1390	 1.2420	61.5852	99.9832	
   861	-0.1485	 2.1094	 1.9609	-0.3880	 2.7938	 2.4057	-0.5513	 2.9492	 2.3978	60.2117	99.9703	
   862	 0.9757	 2.8467	 3.8224	 0.8981	 3.7162	 4.6142	 0.8749	 3.9708	 4.8456	60.1114	99.9712	
   863	 1.1879	 3.0678	 4.2557	 1.2058	 3.9188	 5.1245	 1.3372	 3.9649	 5.3020	61.0471	99.9740	
   864	 1.3141	 2.6933	 4.0073	 1.1879	 3.4131	 4.6010	 1.0807	 3.4501	 4.5307	61.0143	99.9749	
   865	 0.9875	 2.4168	 3.4043	 0.8721	 2.9712	 3.8432	 0.5882	 2.9582	 3.5463	61.2810	99.9780	
   866	 0.6495	 2.2087	 2.8582	 0.4778	 2.7023	 3.1801	 0.1174	 2.6282	 2.7455	61.3302	99.9792	
   867	 0.2075	 1.8613	 2.0687	-0.1133	 2.2470	 2.1336	-0.5783	 2.1112	 1.5328	61.3267	99.9783	
   868	-0.2028	 1.7594	 1.5566	-0.5100	 2.1589	 1.6488	-0.9505	 2.0369	 1.0862	61.1995	99.9780	
   869	-0.3874	 1.8417	 1.4543	-0.6711	 2.2158	 1.5446	-1.0506	 1.9512	 0.9004	61.6423	99.9797	
   870	-0.4812	 1.7388	 1.2576	-0.8244	 2.0693	 1.2448	-1.3525	 1.8641	 0.5115	61.2533	99.9803	
   871	-0.6275	 1.6788	 1.0513	-1.0343	 2.0051	 0.9707	-1.5626	 1.8233	 0.2606	61.0597	99.9784	
   872	-0.7277	 1.8433	 1.1156	-1.0694	 2.3219	 1.2524	-1.3985	 2.2799	 0.8813	60.6401	99.9739	
   873	-0.3785	 2.2240	 1.8455	-0.6162	 2.8744	 2.2581	-0.7073	 2.9195	 2.2121	60.5251	99.9706	
   874	 0.0923	 2.6495	 2.7418	 0.0144	 3.3020	 3.3162	-0.0511	 3.2749	 3.2237	60.9765	99.9754	
   875	 0.2509	 2.7774	 3.0283	 0.1320	 3.4265	 3.5583	 0.0094	 3.3928	 3.4021	60.8255	99.9762	
   876	 0.2344	 2.7672	 3.0017	 0.1723	 3.4122	 3.5844	-0.0197	 3.4999	 3.4801	60.5139	99.9762	
   877	 0.3169	 2.8180	 3.1348	 0.2693	 3.5371	 3.8062	 0.3054	 3.5788	 3.8841	60.8702	99.9729	
   878	 0.4777	 2.8567	 3.3344	 0.4838	 3.5651	 4.0487	 0.4447	 3.7233	 4.1678	60.6237	99.9729	
   879	 0.5714	 2.9596	 3.5310	 0.5031	 3.6551	 4.1581	 0.4447	 3.7233	 4.1678	60.6939	99.9738	
   880	 0.4930	 2.9716	 3.4647	 0.2735	 3.6048	 3.8782	 0.0935	 3.6052	 3.6986	60.4982	99.9743	
   881	-0.1241	 2.4862	 2.3621	-0.7574	 2.5922	 1.8347	-1.4986	 2.1942	 0.6955	61.1209	99.9801	
   882	-3.0953	-0.1268	-3.2220	-4.4780	-0.3897	-4.8677	-5.7062	-0.6779	-6.3842	59.6982	99.9646	
   883	-6.5704	-0.8643	-7.4347	-7.5291	-1.0067	-8.5359	-8.2536	-1.5031	-9.7568	60.5096	99.9709	
   884	-7.4669	-1.3861	-8.8530	-8.3346	-1.8152	-10.1499	-8.6431	-2.3523	-10.9954	62.3409	99.9504	
   885	-6.7953	-1.7715	-8.5668	-7.0849	-2.2429	-9.3279	-6.9770	-2.8562	-9.8332	65.1316	99.9544	
   886	-6.1184	-2.3195	-8.4379	-6.7842	-2.5913	-9.3756	-6.9075	-2.9836	-9.8913	63.5273	99.9482	
   887	-6.0661	-2.0009	-8.0670	-6.6732	-2.3538	-9.0271	-7.0279	-2.7171	-9.7451	63.1576	99.9557	
   888	-6.2632	-1.8660	-8.1291	-7.0030	-2.1404	-9.1435	-7.3713	-2.5110	-9.8825	62.4903	99.9551	
   889	-6.5364	-1.9286	-8.4650	-7.3774	-2.2018	-9.5794	-7.8166	-2.5172	-10.3339	61.9072	99.9522	
   890	-6.8004	-1.8500	-8.6504	-7.6132	-2.0217	-9.6350	-7.9787	-2.2541	-10.2328	61.4009	99.9501	
   891	-6.8099	-1.6297	-8.4396	-7.5308	-1.8017	-9.3326	-7.8391	-2.0067	-9.8460	61.4598	99.9497	
   892	-6.8039	-1.4150	-8.2189	-7.4588	-1.4190	-8.8779	-7.6435	-1.5189	-9.1625	60.9308	99.9483	
   893	-6.6432	-1.2558	-7.8990	-7.2334	-1.2150	-8.4484	-7.3826	-1.4234	-8.8062	61.2697	99.9555	
   894	-6.7061	-1.2493	-7.9554	-7.2279	-1.2376	-8.4657	-7.4030	-1.3678	-8.7709	61.1814	99.9545	
   895	-6.4629	-1.1598	-7.6227	-6.9932	-1.1061	-8.0994	-7.1727	-1.1889	-8.3617	60.9740	99.9537	
   896	-6.2733	-1.0431	-7.3164	-6.8085	-1.0053	-7.8139	-7.0425	-1.0956	-8.1382	60.9408	99.9555	
   897	-6.3010	-1.1054	-7.4065	-6.9932	-1.1061	-8.0994	-7.3337	-1.3015	-8.6353	60.8549	99.9578	
   898	-6.5051	-1.2009	-7.7060	-7.2367	-1.2691	-8.5060	-7.6272	-1.5429	-9.1701	61.0460	99.9595	
   899	-6.7071	-1.2650	-7.9721	-7.5083	-1.3323	-8.8407	-7.8633	-1.6229	-9.4863	60.9658	99.9566	
   900	-6.7989	-1.2160	-8.0150	-7.6023	-1.2991	-8.9015	-7.9447	-1.5941	-9.5389	60.9633	99.9557	
   901	-6.8011	-1.1269	-7.9280	-7.5632	-1.2229	-8.7863	-7.9306	-1.4599	-9.3906	60.8088	99.9552	
   902	-6.7888	-1.0590	-7.8478	-7.5502	-1.1238	-8.6741	-7.8817	-1.3379	-9.2197	60.6915	99.9539	
   903	-6.6414	-0.9834	-7.6248	-7.4003	-1.0314	-8.4318	-7.7413	-1.2725	-9.0139	60.7293	99.9561	
   904	-6.6291	-0.9155	-7.5446	-7.3961	-0.9638	-8.3599	-7.7650	-1.1733	-8.9384	60.5341	99.9556	
   905	-6.6426	-0.8785	-7.5211	-7.4195	-0.9001	-8.3197	-7.7955	-1.0899	-8.8855	60.3419	99.9557	
   906	-6.7199	-0.8508	-7.5707	-7.4947	-0.8943	-8.3891	-7.9029	-1.1004	-9.0034	60.3305	99.9570	
   907	-6.7251	-0.8088	-7.5339	-7.4967	-0.8175	-8.3143	-7.8740	-1.0137	-8.8878	60.2444	99.9566	
   908	-6.7612	-0.7557	-7.5169	-7.5282	-0.7718	-8.3001	-7.9176	-0.9499	-8.8676	60.1469	99.9563	
   909	-6.7654	-0.6979	-7.4634	-7.5034	-0.7044	-8.2079	-7.8483	-0.8836	-8.7320	60.2264	99.9558	
   910	-6.7789	-0.6610	-7.4399	-7.4945	-0.6730	-8.1676	-7.9151	-0.8115	-8.7267	59.9951	99.9577	
   911	-6.7861	-0.6504	-7.4365	-7.5134	-0.6456	-8.1591	-7.9137	-0.7878	-8.7016	59.9657	99.9573	
   912	-6.7593	-0.6037	-7.3631	-7.4743	-0.5694	-8.0439	-7.8205	-0.7178	-8.5384	60.0145	99.9568	
   913	-6.7213	-0.5049	-7.2262	-7.4033	-0.4215	-7.8250	-7.7161	-0.5610	-8.2772	59.9403	99.9578	
   914	-6.7255	-0.4472	-7.1727	-7.3945	-0.3901	-7.7847	-7.7651	-0.4892	-8.2544	59.7748	99.9580	
   915	-6.8018	-0.4038	-7.2056	-7.4591	-0.3257	-7.7849	-7.7855	-0.4336	-8.2191	59.7841	99.9577	
   916	-6.8699	-0.3553	-7.2252	-7.4880	-0.2394	-7.7275	-7.8070	-0.2988	-8.1059	59.5767	99.9580	
   917	-6.8431	-0.3086	-7.1518	-7.4578	-0.1948	-7.6526	-7.7591	-0.2916	-8.0507	59.7065	99.9589	
   918	-6.8586	-0.3031	-7.1617	-7.4766	-0.1673	-7.6441	-7.7460	-0.2719	-8.0181	59.7127	99.9586	
   919	-6.7225	-0.2796	-7.0021	-7.3335	-0.1833	-7.5169	-7.6223	-0.2854	-7.9078	59.8407	99.9581	
   920	-6.7937	-0.2782	-7.0719	-7.4443	-0.1995	-7.6439	-7.7721	-0.3112	-8.0834	59.7245	99.9582	
   921	-6.9205	-0.2809	-7.2014	-7.5543	-0.2022	-7.7566	-7.9013	-0.2897	-8.1912	59.5928	99.9585	
   922	-6.9257	-0.2389	-7.1646	-7.5786	-0.1521	-7.7308	-7.9231	-0.2578	-8.1810	59.5575	99.9588	
   923	-6.9391	-0.2019	-7.1411	-7.6109	-0.1199	-7.7309	-7.9580	-0.2455	-8.2036	59.5511	99.9590	
   924	-6.9608	-0.1700	-7.1309	-7.6478	-0.0515	-7.6994	-7.9708	-0.1623	-8.1331	59.3984	99.9582	
   925	-6.9743	-0.1331	-7.1074	-7.6667	-0.0241	-7.6909	-8.0143	-0.0985	-8.1129	59.2361	99.9572	
   926	-7.0341	-0.0795	-7.1136	-7.6587	-0.0061	-7.6650	-8.0594	-0.0583	-8.1178	59.2361	99.9593	
   927	-7.1475	-0.1192	-7.2667	-7.7981	-0.0399	-7.8381	-8.1526	-0.1283	-8.2810	59.3258	99.9584	
   928	-7.0691	-0.1312	-7.2003	-7.7175	-0.0684	-7.7860	-8.0858	-0.2003	-8.2862	59.5124	99.9603	
   929	-7.0825	-0.2148	-7.2972	-7.8619	-0.1834	-8.0454	-8.2969	-0.3558	-8.6528	59.3659	99.9593	
   930	-7.3112	-0.3255	-7.6367	-8.1189	-0.3417	-8.4607	-8.5551	-0.5067	-9.0619	59.3732	99.9566	
   931	-7.3895	-0.4340	-7.8235	-8.2444	-0.4841	-8.7287	-8.6624	-0.7109	-9.3735	59.6098	99.9557	
   932	-7.4614	-0.6893	-8.1507	-8.4150	-0.7975	-9.2126	-8.8283	-1.1003	-9.9287	59.9269	99.9534	
   933	-7.6499	-0.9108	-8.5607	-8.5688	-1.0614	-9.6303	-8.9617	-1.3438	-10.3056	60.1505	99.9512	
   934	-7.6076	-0.9903	-8.5978	-8.6087	-1.1511	-9.7599	-9.0843	-1.4094	-10.4938	59.8577	99.9503	
   935	-7.7985	-0.7611	-8.5597	-8.6790	-0.7388	-9.4179	-9.0064	-0.7105	-9.7170	58.8518	99.9415	
   936	-7.4127	 0.0643	-7.3484	-8.0695	 0.1182	-7.9514	-8.3654	 0.0801	-8.2854	59.1076	99.9529	
   937	-7.3395	 0.0943	-7.2452	-8.0930	 0.1819	-7.9112	-8.5164	 0.1334	-8.3831	58.6189	99.9566	
   938	-7.2138	 0.2018	-7.0120	-7.9397	 0.3284	-7.6115	-8.3195	 0.3484	-7.9712	58.4671	99.9541	
   939	-6.6097	 0.3626	-6.2471	-7.3537	 0.4811	-6.8727	-7.8253	 0.4765	-7.3490	58.5407	99.9578	
   940	-7.1890	 0.0965	-7.0925	-7.9373	 0.1476	-7.7898	-8.2580	 0.0905	-8.1675	59.0293	99.9515	
   941	-7.6187	-0.1831	-7.8018	-8.3526	-0.2384	-8.5911	-8.7730	-0.3813	-9.1544	59.3457	99.9561	
   942	-8.0722	-0.3417	-8.4139	-8.8315	-0.3251	-9.1568	-8.9707	-0.4143	-9.3852	59.3843	99.9434	
   943	-7.7544	-0.5681	-8.3225	-8.6357	-0.5950	-9.2307	-9.0176	-0.7973	-9.8150	59.3999	99.9532	
   944	-7.5194	-0.4838	-8.0031	-8.3842	-0.4140	-8.7983	-8.6568	-0.4223	-9.0793	58.9240	99.9435	
   945	-6.8206	-0.2043	-7.0248	-7.7343	-0.1178	-7.8522	-8.0945	-0.1488	-8.2434	58.8432	99.9473	
   946	-6.8350	-0.1830	-7.0181	-7.6860	-0.1141	-7.8002	-8.0376	-0.0902	-8.1279	58.8630	99.9458	
   947	-6.2590	 0.1565	-6.1024	-7.0605	 0.2322	-6.8284	-7.4162	 0.2774	-7.1389	58.9484	99.9470	
   948	-5.9096	 0.2963	-5.6133	-6.8703	 0.3103	-6.5601	-7.4304	 0.3369	-7.0936	58.5315	99.9485	
   949	-6.0354	 0.3092	-5.7261	-6.8921	 0.4010	-6.4912	-7.1619	 0.4600	-6.7020	58.9429	99.9410	
   950	-6.8135	-0.0944	-6.9078	-7.5827	 0.0016	-7.5812	-7.8642	 0.0301	-7.8342	59.0304	99.9466	
   951	-7.3891	 0.1843	-7.2047	-7.9771	 0.2793	-7.6979	-8.0912	 0.2980	-7.7933	59.2696	99.9465	
   952	-6.7747	 0.3817	-6.3931	-7.2971	 0.3988	-6.8984	-7.5491	 0.4334	-7.1159	59.4733	99.9508	
   953	-6.4085	 0.1700	-6.2385	-7.1818	 0.1575	-7.0245	-7.5877	 0.0898	-7.4980	59.3597	99.9521	
   954	-6.3311	 0.1422	-6.1889	-7.1818	 0.1575	-7.0245	-7.5220	 0.0969	-7.4252	59.3004	99.9472	
   955	-6.0961	 0.2266	-5.8695	-7.0291	 0.1865	-6.8427	-7.5362	 0.1564	-7.3799	58.9401	99.9479	
   956	-6.6434	-0.0349	-6.6783	-7.4002	-0.0421	-7.4424	-7.7585	-0.0859	-7.8445	59.4224	99.9498	
   957	-7.4321	-0.1135	-7.5456	-8.1410	-0.1471	-8.2882	-8.3039	-0.1778	-8.4818	59.5880	99.9413	
   958	-7.2814	-0.2318	-7.5132	-8.0344	-0.1986	-8.2331	-8.2371	-0.2498	-8.4870	59.4529	99.9451	
   959	-7.0071	-0.2739	-7.2810	-7.7839	-0.2525	-8.0365	-8.1093	-0.2949	-8.4043	59.3397	99.9487	
   960	-7.1371	-0.2032	-7.3403	-7.9182	-0.2050	-8.1233	-8.1659	-0.2507	-8.4168	59.4431	99.9444	
   961	-7.0732	-0.1940	-7.2672	-7.9127	-0.2277	-8.1406	-8.2385	-0.2735	-8.5121	59.2872	99.9444	
   962	-7.0856	-0.1414	-7.2270	-7.8879	-0.1604	-8.0484	-8.1801	-0.1912	-8.3714	59.3057	99.9442	
   963	-6.9413	-0.1128	-7.0541	-7.8371	-0.1161	-7.9533	-8.1438	-0.1798	-8.3238	59.1935	99.9436	
   964	-6.9991	-0.0278	-7.0269	-7.8820	-0.0656	-7.9477	-8.2586	-0.1151	-8.3737	59.0501	99.9452	
   965	-7.0014	 0.1818	-6.8195	-7.9025	 0.1561	-7.7465	-8.3073	 0.0595	-8.2479	58.9132	99.9486	
   966	-6.7016	 0.4116	-6.2899	-7.4499	 0.3698	-7.0802	-7.7969	 0.3575	-7.4396	59.1483	99.9468	
   967	-6.1489	 0.3901	-5.7587	-6.9320	 0.3113	-6.6208	-7.3168	 0.3513	-6.9656	59.2580	99.9428	
   968	-6.1560	 0.2802	-5.8758	-6.9963	 0.2718	-6.7246	-7.3723	 0.3164	-7.0560	59.0304	99.9430	
   969	-6.4407	 0.4064	-6.0343	-7.0906	 0.4089	-6.6818	-7.3865	 0.3759	-7.0107	59.5113	99.9508	
   970	-6.5400	 0.7071	-5.8329	-7.2554	 0.7369	-6.5186	-7.5054	 0.6661	-6.8394	59.2563	99.9494	
   971	-6.3089	 0.6081	-5.7008	-6.9088	 0.5730	-6.3359	-7.1968	 0.4723	-6.7246	59.8392	99.9538	
   972	-6.1428	 0.4843	-5.6585	-6.7502	 0.4754	-6.2749	-7.0922	 0.4354	-6.6570	59.6513	99.9540	
   973	-6.0283	 0.4191	-5.6091	-6.7150	 0.3800	-6.3352	-7.1902	 0.3852	-6.8051	59.2984	99.9535	
   974	-6.3550	 0.2632	-6.0917	-7.1365	 0.2245	-6.9121	-7.5722	 0.2478	-7.3245	59.0772	99.9477	
   975	-6.0921	 0.2894	-5.8026	-6.7952	 0.3045	-6.4908	-7.0856	 0.3483	-6.7374	59.4303	99.9453	
   976	-5.8826	 0.1018	-5.7807	-6.7336	 0.0821	-6.6516	-7.1000	 0.1112	-6.9889	59.3541	99.9423	
   977	-7.0939	-0.1464	-7.2403	-7.8913	-0.2145	-8.1060	-8.1949	-0.3373	-8.5323	59.6741	99.9474	
   978	-6.9360	-0.2753	-7.2113	-7.6455	-0.4536	-8.0992	-8.0717	-0.5564	-8.6282	60.0170	99.9505	
   979	-7.2525	-0.2743	-7.5268	-8.0349	-0.3160	-8.3510	-8.3462	-0.3868	-8.7331	59.4798	99.9468	
   980	-7.2381	-0.2955	-7.5336	-8.2599	-0.4026	-8.6626	-8.7064	-0.5562	-9.2627	59.1598	99.9455	
   981	-7.0692	-0.0107	-7.0799	-7.9043	-0.0923	-7.9967	-8.2949	-0.1265	-8.4214	59.1473	99.9450	
   982	-6.6807	 0.1230	-6.5576	-7.6050	-0.0251	-7.6302	-8.0869	-0.1212	-8.2083	59.2480	99.9461	
   983	-6.7363	 0.1189	-6.6174	-7.6587	-0.0061	-7.6650	-8.1566	-0.0966	-8.2533	59.1160	99.9476	
   984	-6.7890	 0.1619	-6.6271	-7.7384	 0.0359	-7.7027	-8.2016	-0.0565	-8.2582	59.0834	99.9451	
   985	-6.8910	 0.1744	-6.7167	-7.8324	 0.0691	-7.7635	-8.2365	-0.0442	-8.2808	59.1572	99.9447	
   986	-7.1447	 0.1690	-6.9757	-8.0675	 0.0414	-8.0262	-8.5025	-0.0289	-8.5315	58.9495	99.9437	
   987	-6.7974	 0.3978	-6.3996	-7.5175	 0.2761	-7.2416	-7.8215	 0.1482	-7.6734	59.7748	99.9484	
   988	-7.0283	 0.2557	-6.7725	-7.8831	 0.2461	-7.6371	-8.0770	 0.2385	-7.8386	59.0772	99.9369	
   989	-6.6233	 0.5201	-6.1032	-7.1792	 0.4194	-6.7599	-7.3941	 0.3483	-7.0459	60.0621	99.9485	
   990	-6.3284	 0.5509	-5.7775	-6.9538	 0.4021	-6.5518	-7.2689	 0.3586	-6.9104	59.9168	99.9470	
   991	-6.5470	 0.4767	-6.0703	-7.3291	 0.3271	-7.0021	-7.6858	 0.2334	-7.4525	59.6074	99.9456	
   992	-6.9602	 0.2072	-6.7530	-7.6981	 0.0216	-7.6766	-7.9937	-0.0513	-8.0451	59.8238	99.9419	
   993	-7.1845	-0.2023	-7.3868	-8.0271	-0.5194	-8.5466	-8.3502	-0.8455	-9.1958	60.7814	99.9466	
   994	-7.8920	-1.1051	-8.9971	-8.7629	-1.5324	-10.2955	-8.8695	-1.8788	-10.7484	61.7728	99.9312	
   995	-7.5691	-1.2530	-8.8222	-8.4532	-1.6280	-10.0814	-8.6244	-2.0441	-10.6686	61.9342	99.9398	
   996	-7.5981	-1.2105	-8.8086	-8.4792	-1.6050	-10.0843	-8.6955	-2.0432	-10.7388	61.9262	99.9424	
   997	-7.6351	-1.2936	-8.9287	-8.5754	-1.7163	-10.2918	-8.8170	-2.1879	-11.0050	61.9756	99.9418	
   998	-7.8899	-1.1942	-9.0841	-8.9375	-1.4708	-10.4083	-9.3457	-1.7105	-11.0564	60.1644	99.9398	
   999	-7.9992	-0.0707	-8.0699	-8.7521	-0.0419	-8.7940	-8.8077	-0.0724	-8.8802	59.2293	99.9374	
  1000	-6.9684	 0.2021	-6.7663	-7.5340	 0.1228	-7.4113	-7.7027	 0.0518	-7.6511	60.1114	99.9470	
  1001	-6.6828	 0.2121	-6.4707	-7.3300	 0.0922	-7.2379	-7.6228	-0.0007	-7.6236	60.0180	99.9488	
  1002	-6.8396	 0.2362	-6.6033	-7.5634	 0.0916	-7.4719	-7.9368	 0.0073	-7.9295	59.6608	99.9482	
  1003	-7.1270	-0.0462	-7.1732	-7.7940	-0.1936	-7.9876	-8.0164	-0.3278	-8.3442	60.2507	99.9460	
  1004	-7.1271	-0.9055	-8.0327	-7.9638	-1.4827	-9.4466	-8.2887	-2.0840	-10.3728	62.8118	99.9496	
  1005	-7.8161	-1.7668	-9.5829	-8.6574	-2.0402	-10.6977	-8.7363	-2.4223	-11.1586	62.0425	99.9396	
  1006	-7.5286	-1.6049	-9.1335	-8.4341	-1.9807	-10.4149	-8.6862	-2.3794	-11.0657	61.9513	99.9418	
  1007	-7.6317	-1.6081	-9.2398	-8.5940	-2.0141	-10.6083	-8.8117	-2.4925	-11.3043	62.1711	99.9407	
  1008	-7.6987	-1.6644	-9.3630	-8.5903	-2.0639	-10.6543	-8.7399	-2.4815	-11.2215	62.2547	99.9374	
  1009	-7.5481	-1.6621	-9.2103	-8.4446	-2.0392	-10.4840	-8.6071	-2.4437	-11.0509	62.1929	99.9380	
  1010	-7.6587	-1.4137	-9.0724	-8.6417	-1.6790	-10.3209	-8.9994	-1.8692	-10.8687	60.4932	99.9376	
  1011	-8.0699	-0.5514	-8.6213	-9.0285	-0.5115	-9.5401	-9.1126	-0.5035	-9.6161	58.9114	99.9285	
  1012	-7.0435	 0.0202	-7.0233	-7.6504	-0.0921	-7.7426	-7.9229	-0.1550	-8.0779	59.9800	99.9483	
  1013	-6.9157	 0.0386	-6.8770	-7.5618	-0.1026	-7.6646	-7.8299	-0.1878	-8.0179	60.1027	99.9466	
  1014	-6.9330	-0.1077	-7.0408	-7.8619	-0.1834	-8.0454	-8.3314	-0.2407	-8.5722	58.9839	99.9464	
  1015	-7.3639	-0.2825	-7.6464	-8.2386	-0.6107	-8.8495	-8.5312	-0.9934	-9.5247	60.9304	99.9464	
  1016	-7.6338	-1.5190	-9.1528	-8.3359	-1.9462	-10.2822	-8.6466	-2.4116	-11.0583	62.4560	99.9532	
  1017	-7.6460	-1.7073	-9.3534	-8.5349	-2.0558	-10.5908	-8.7363	-2.4223	-11.1586	61.9251	99.9395	
  1018	-7.4946	-1.5689	-9.0635	-8.4341	-1.9807	-10.4149	-8.6735	-2.4626	-11.1362	62.2417	99.9426	
  1019	-7.6008	-1.6192	-9.2199	-8.5672	-2.0236	-10.5909	-8.7399	-2.4815	-11.2215	62.2111	99.9374	
  1020	-7.4935	-1.6737	-9.1672	-8.3775	-2.0630	-10.4406	-8.5689	-2.4996	-11.0686	62.3221	99.9411	
  1021	-7.5131	-1.6104	-9.1236	-8.4752	-1.9800	-10.4553	-8.6898	-2.4387	-11.1286	62.0786	99.9411	
  1022	-7.5938	-1.3888	-8.9825	-8.7068	-1.7322	-10.4390	-9.1605	-1.9818	-11.1424	60.4449	99.9367	
  1023	-8.2712	-0.3587	-8.6299	-9.3553	-0.3615	-9.7169	-9.6716	-0.3302	-10.0018	58.0107	99.9318	
  1024	-7.6492	 0.4463	-7.2029	-8.3376	 0.3306	-8.0071	-8.5292	 0.2166	-8.3126	59.5414	99.9444	
  1025	-7.0099	 0.4178	-6.5921	-7.7866	 0.2535	-7.5332	-8.1430	 0.1286	-8.0145	59.5478	99.9469	
  1026	-7.0385	 0.2193	-6.8193	-8.0138	 0.0224	-7.9914	-8.5623	-0.1349	-8.6973	59.0648	99.9484	
  1027	-7.5229	-0.0488	-7.5717	-8.5062	-0.2809	-8.7873	-8.9344	-0.4030	-9.3375	59.2185	99.9393	
  1028	-7.6433	-0.3188	-7.9621	-8.5597	-0.5872	-9.1470	-8.8782	-0.8466	-9.7249	60.1699	99.9423	
  1029	-7.4794	-1.3334	-8.8128	-8.4567	-1.9035	-10.3604	-8.8757	-2.3730	-11.2488	62.0778	99.9423	
  1030	-7.7996	-1.7567	-9.5563	-8.7326	-2.0344	-10.7670	-9.0020	-2.3042	-11.3063	61.1884	99.9390	
  1031	-7.6742	-1.4081	-9.0823	-8.7916	-1.7714	-10.5631	-9.1411	-2.1521	-11.2933	61.0446	99.9377	
  1032	-7.8392	-1.3891	-9.2283	-8.9041	-1.8147	-10.7188	-9.1893	-2.2622	-11.4516	61.5471	99.9376	
  1033	-7.8525	-1.4727	-9.3252	-8.8601	-1.8786	-10.7388	-9.0485	-2.2877	-11.3363	61.7366	99.9339	
  1034	-7.8310	-1.2635	-9.0945	-8.8939	-1.6522	-10.5462	-9.1956	-2.0723	-11.2680	61.2521	99.9387	
  1035	-7.9720	-0.5062	-8.4782	-9.1557	-0.6810	-9.8369	-9.6357	-0.7182	-10.3540	58.3856	99.9314	
  1036	-7.4627	 0.6364	-6.8263	-8.2133	 0.5634	-7.6500	-8.3519	 0.4991	-7.8530	59.2446	99.9389	
  1037	-6.7780	 0.5756	-6.2024	-7.5602	 0.4710	-7.0893	-7.9828	 0.4231	-7.5598	59.0511	99.9482	
  1038	-6.9326	 0.5106	-6.4220	-7.8478	 0.3720	-7.4759	-8.3997	 0.2980	-8.1018	58.6544	99.9490	
  1039	-7.2357	 0.4747	-6.7610	-8.1437	 0.3589	-7.7849	-8.5289	 0.3194	-8.2096	58.7149	99.9410	
  1040	-7.5559	-0.0691	-7.6249	-8.4525	-0.2999	-8.7525	-8.7877	-0.5274	-9.3153	59.8609	99.9439	
  1041	-7.9712	-1.3498	-9.3210	-9.0363	-1.8440	-10.8805	-9.4390	-2.2709	-11.7099	61.3554	99.9392	
  1042	-8.1175	-1.4097	-9.5273	-9.0416	-1.6000	-10.6417	-9.1754	-1.9342	-11.1096	61.0092	99.9402	
  1043	-7.8147	-1.1328	-8.9475	-8.8703	-1.4945	-10.3649	-9.1704	-1.8512	-11.0216	60.9312	99.9367	
  1044	-7.7003	-1.0775	-8.7778	-8.7444	-1.4560	-10.2005	-9.0553	-1.8131	-10.8686	61.0018	99.9370	
  1045	-7.4961	-1.1025	-8.5986	-8.5824	-1.4994	-10.0819	-8.9577	-1.8658	-10.8236	60.9903	99.9380	
  1046	-7.8779	-0.7648	-8.6427	-9.0661	-1.0033	-10.0695	-9.5672	-1.1541	-10.7213	59.0490	99.9357	
  1047	-7.9347	 0.3158	-7.6189	-8.9403	 0.3498	-8.5906	-9.1437	 0.3550	-8.7887	58.1025	99.9328	
  1048	-7.0688	 0.6076	-6.4612	-7.8368	 0.5480	-7.2889	-8.1672	 0.5125	-7.6548	58.9381	99.9460	
  1049	-7.0306	 0.5859	-6.4448	-7.8796	 0.5216	-7.3581	-8.2822	 0.4744	-7.8079	58.7121	99.9466	
  1050	-7.0410	 0.6699	-6.3711	-7.9576	 0.5907	-7.3671	-8.4808	 0.6233	-7.8576	58.1005	99.9449	
  1051	-7.0213	 0.4861	-6.5351	-8.0149	 0.3342	-7.6808	-8.4850	 0.3584	-8.1267	58.4016	99.9366	
  1052	-7.5554	-0.5512	-8.1066	-8.4168	-1.0459	-9.4628	-8.8650	-1.5111	-10.3762	61.4383	99.9511	
  1053	-8.1422	-1.5455	-9.6876	-8.9847	-1.7862	-10.7709	-9.2382	-1.8938	-11.1321	60.5212	99.9348	
  1054	-7.6653	-1.0258	-8.6910	-8.6411	-1.3402	-9.9815	-8.9476	-1.6998	-10.6476	60.9544	99.9424	
  1055	-7.5736	-0.9543	-8.5278	-8.6260	-1.3179	-9.9440	-8.9894	-1.7033	-10.6927	60.8991	99.9413	
  1056	-7.5786	-1.0328	-8.6114	-8.5819	-1.3819	-9.9640	-8.8232	-1.7014	-10.5247	61.0629	99.9345	
  1057	-7.3610	-1.0947	-8.4558	-8.3092	-1.4091	-9.7184	-8.5263	-1.6974	-10.2238	61.1856	99.9353	
  1058	-7.2446	-1.0080	-8.2526	-8.2470	-1.2927	-9.5398	-8.5199	-1.5907	-10.1106	60.9137	99.9377	
  1059	-7.2316	-0.5629	-7.7945	-8.4096	-0.8201	-9.2298	-8.9663	-1.0273	-9.9937	59.3688	99.9409	
  1060	-8.0530	 0.0771	-7.9759	-9.1146	 0.0862	-9.0285	-9.3740	 0.1761	-9.1980	57.8098	99.9272	
  1061	-7.2256	 0.6317	-6.5939	-7.9522	 0.5680	-7.3843	-8.2525	 0.5729	-7.6797	58.8863	99.9440	
  1062	-6.9811	 0.4958	-6.4852	-7.8259	 0.5026	-7.3234	-8.1027	 0.5987	-7.5041	58.4804	99.9365	
  1063	-6.9935	 0.5485	-6.4450	-7.9287	 0.5044	-7.4245	-8.4176	 0.4920	-7.9257	58.2626	99.9463	
  1064	-7.6398	 0.3465	-7.2932	-8.4938	 0.2474	-8.2465	-8.7912	 0.2002	-8.5911	58.8502	99.9402	
  1065	-7.4075	 0.0223	-7.3852	-8.2325	-0.0732	-8.3058	-8.4819	 0.0183	-8.4637	58.9508	99.9313	
  1066	-6.8474	-0.1304	-6.9778	-7.8067	-0.3967	-8.2034	-8.4737	-0.7292	-9.2030	59.8688	99.9592	
  1067	-8.0479	-0.9448	-8.9927	-9.0513	-0.8771	-9.9285	-9.1493	-0.9143	-10.0636	59.1125	99.9309	
  1068	-8.0219	-1.1549	-9.1768	-8.8870	-1.3225	-10.2097	-9.1866	-1.5307	-10.7173	60.2585	99.9449	
  1069	-7.6642	-1.0101	-8.6743	-8.6897	-1.2400	-9.9299	-8.9826	-1.4938	-10.4765	60.3388	99.9379	
  1070	-7.3611	-0.9742	-8.3354	-8.3993	-1.2043	-9.6037	-8.7192	-1.4536	-10.1729	60.3791	99.9384	
  1071	-7.3271	-0.9382	-8.2654	-8.3993	-1.2043	-9.6037	-8.7475	-1.5284	-10.2760	60.5582	99.9408	
  1072	-7.5014	-0.9400	-8.4414	-8.6003	-1.2370	-9.8375	-8.9812	-1.4700	-10.4513	60.1825	99.9351	
  1073	-7.6648	-0.4075	-8.0723	-8.8728	-0.5458	-9.4187	-9.3622	-0.5121	-9.8745	58.1177	99.9285	
  1074	-7.5554	 0.5492	-7.0062	-8.2775	 0.5238	-7.7538	-8.3661	 0.5586	-7.8077	59.0158	99.9344	
  1075	-6.6935	 0.6577	-6.0358	-7.4586	 0.5597	-6.8991	-7.8381	 0.5597	-7.2785	59.0130	99.9448	
  1076	-6.7864	 0.6910	-6.0953	-7.7323	 0.5733	-7.1590	-8.2163	 0.5843	-7.6320	58.4001	99.9414	
  1077	-7.0842	 0.4926	-6.5915	-7.9309	 0.3598	-7.5712	-8.2280	 0.2918	-7.9363	59.2003	99.9400	
  1078	-7.3492	-0.5448	-7.8940	-8.4357	-1.0185	-9.4543	-8.9468	-1.3914	-10.3383	60.6460	99.9417	
  1079	-7.8642	-1.0428	-8.9070	-8.6620	-1.2360	-9.8981	-8.7173	-1.5209	-10.2383	61.1584	99.9389	
  1080	-7.2787	-0.9235	-8.2022	-8.1836	-1.2667	-9.4504	-8.4056	-1.5645	-9.9701	61.2929	99.9366	
  1081	-7.0261	-0.9338	-7.9598	-7.9557	-1.2434	-9.1992	-8.1305	-1.5285	-9.6591	61.3410	99.9340	
  1082	-7.0311	-1.0123	-8.0434	-7.9465	-1.3158	-9.2624	-8.1355	-1.6114	-9.7471	61.4044	99.9361	
  1083	-7.1850	-0.8205	-8.0055	-8.3136	-1.1515	-9.4653	-8.7773	-1.4331	-10.2105	60.2705	99.9390	
  1084	-7.5345	 0.2606	-7.2739	-8.5018	 0.2295	-8.2724	-8.7380	 0.3933	-8.3448	58.1064	99.9236	
  1085	-6.3956	 0.7356	-5.6600	-7.0569	 0.7291	-6.3279	-7.3342	 0.7509	-6.5834	59.2127	99.9467	
  1086	-6.2729	 0.6755	-5.5973	-7.0591	 0.5845	-6.4746	-7.4291	 0.5544	-6.8748	59.2530	99.9453	
  1087	-6.5698	 0.6134	-5.9564	-7.4851	 0.4653	-7.0200	-7.9531	 0.5216	-7.4316	58.6151	99.9379	
  1088	-6.8757	 0.2894	-6.5863	-7.6792	 0.2156	-7.4637	-7.9414	 0.3237	-7.6177	58.9611	99.9329	
  1089	-7.3804	-0.2927	-7.6730	-8.2353	-0.5566	-8.7919	-8.6042	-0.9252	-9.5295	60.5996	99.9523	
  1090	-7.9476	-1.2297	-9.1773	-8.7264	-1.4969	-10.2234	-8.7800	-1.6743	-10.4544	61.1899	99.9303	
  1091	-7.1084	-1.1050	-8.2134	-7.9638	-1.4827	-9.4466	-8.2712	-1.6967	-9.9680	61.2941	99.9365	
  1092	-6.9828	-0.8770	-7.8598	-7.8843	-1.1994	-9.0838	-8.0957	-1.5408	-9.6365	61.5007	99.9394	
  1093	-7.0086	-0.9079	-7.9165	-7.9868	-1.3016	-9.2885	-8.2498	-1.6376	-9.8876	61.4441	99.9354	
  1094	-7.1510	-0.7845	-7.9355	-8.1617	-1.1360	-9.2978	-8.5653	-1.4596	-10.0250	60.7934	99.9421	
  1095	-7.4062	-0.2031	-7.6093	-8.6259	-0.3286	-8.9546	-9.1435	-0.3291	-9.4727	58.0949	99.9321	
  1096	-7.0851	 0.3564	-6.7286	-7.7081	 0.3019	-7.4063	-7.8278	 0.3381	-7.4898	59.5829	99.9382	
  1097	-6.2933	 0.4821	-5.8112	-7.0101	 0.3804	-6.6297	-7.4007	 0.4354	-6.9654	59.2647	99.9439	
  1098	-6.4159	 0.4217	-5.9943	-7.3165	 0.3088	-7.0078	-7.7272	 0.3328	-7.3945	58.9543	99.9390	
  1099	-6.5457	 0.2513	-6.2944	-7.4081	 0.1613	-7.2469	-7.7155	 0.1350	-7.5806	59.3530	99.9393	
  1100	-6.7750	-0.3572	-7.1322	-7.8043	-0.7987	-8.6032	-8.2427	-1.0288	-9.2715	60.5790	99.9339	
  1101	-6.7455	-1.0022	-7.7478	-7.5717	-1.3583	-8.9301	-7.6528	-1.6730	-9.3259	62.1185	99.9330	
  1102	-6.3959	-1.1035	-7.4994	-7.2229	-1.3778	-8.6008	-7.2903	-1.6619	-8.9523	62.0703	99.9342	
  1103	-6.4247	-1.1816	-7.6063	-7.2138	-1.4502	-8.6641	-7.2453	-1.7020	-8.9474	62.1437	99.9325	
  1104	-6.4432	-1.2231	-7.6663	-7.2520	-1.5128	-8.7649	-7.3378	-1.7601	-9.0980	62.0684	99.9331	
  1105	-6.5978	-1.2881	-7.8860	-7.3956	-1.6143	-9.0099	-7.4400	-1.8814	-9.3215	62.2925	99.9309	
  1106	-6.4947	-1.2850	-7.7797	-7.3204	-1.6201	-8.9406	-7.3670	-1.9496	-9.3167	62.4829	99.9329	
  1107	-6.5670	-1.1787	-7.7457	-7.4682	-1.5679	-9.0361	-7.6468	-1.9657	-9.6126	62.3232	99.9377	
  1108	-6.8850	-0.7113	-7.5963	-8.0171	-0.7997	-8.8169	-8.3575	-0.7702	-9.1279	59.0587	99.9264	
  1109	-6.8757	 0.2894	-6.5863	-7.5692	 0.2182	-7.3511	-7.6368	 0.1616	-7.4752	59.9881	99.9371	
  1110	-6.1788	 0.4169	-5.7619	-6.8754	 0.2291	-6.6464	-7.1748	 0.2466	-6.9283	59.9123	99.9386	
  1111	-6.1375	 0.3218	-5.8157	-6.8515	 0.2829	-6.5687	-7.0922	 0.4354	-6.6570	59.3163	99.9344	
  1112	-6.0613	 0.5194	-5.5420	-6.6007	 0.6717	-5.9291	-6.7548	 1.0123	-5.7426	58.7355	99.9356	
  1113	-5.1555	 1.0619	-4.0936	-5.7333	 1.1539	-4.5795	-6.0736	 1.4860	-4.5877	58.5887	99.9404	
  1114	-4.8647	 1.0299	-3.8348	-5.7078	 1.0134	-4.6945	-6.1660	 1.2341	-4.9320	58.5864	99.9368	
  1115	-5.0738	 0.7354	-4.3383	-5.9548	 0.5749	-5.3800	-6.4039	 0.5372	-5.8667	59.6838	99.9424	
  1116	-5.6091	-0.0765	-5.6857	-6.6164	-0.4574	-7.0739	-7.0043	-0.6611	-7.6656	60.8792	99.9335	
  1117	-6.2293	-0.6091	-6.8384	-7.0570	-1.0282	-8.0853	-7.3076	-1.2622	-8.5700	61.7307	99.9340	
  1118	-6.5712	-1.1210	-7.6922	-7.2877	-1.5348	-8.8225	-7.5232	-1.7854	-9.3087	62.1820	99.9388	
  1119	-6.5359	-1.3103	-7.8463	-7.2659	-1.6255	-8.8915	-7.4000	-2.0045	-9.4046	62.5783	99.9444	
  1120	-6.3607	-1.2929	-7.6535	-7.1807	-1.6902	-8.8710	-7.4145	-2.0478	-9.4624	62.4626	99.9409	
  1121	-6.3297	-1.3040	-7.6337	-7.1501	-1.7494	-8.8996	-7.3745	-2.1709	-9.5455	62.8185	99.9417	
  1122	-6.3245	-1.3460	-7.6705	-7.1275	-1.8266	-8.9542	-7.2968	-2.2589	-9.5558	63.1174	99.9388	
  1123	-6.2357	-1.4421	-7.6778	-6.9487	-1.8206	-8.7694	-7.0051	-2.1440	-9.1492	63.0140	99.9356	
  1124	-5.9449	-1.4741	-7.4190	-6.6620	-1.7351	-8.3972	-6.7482	-2.0168	-8.7652	62.6689	99.9397	
  1125	-5.7193	-1.2900	-7.0093	-6.5507	-1.6014	-8.1522	-6.7095	-1.8671	-8.5767	62.3980	99.9356	
  1126	-5.9557	-1.0285	-6.9842	-7.0173	-1.3812	-8.3986	-7.3832	-1.6290	-9.0124	61.3305	99.9336	
  1127	-6.5075	-0.8708	-7.3782	-7.4302	-1.1800	-8.6103	-7.6702	-1.2734	-8.9437	60.9118	99.9264	
  1128	-6.4385	-0.7831	-7.2215	-7.3714	-1.1178	-8.4892	-7.5936	-1.2823	-8.8760	61.1692	99.9281	
  1129	-6.4302	-0.7780	-7.2082	-7.3277	-1.0778	-8.4057	-7.5922	-1.2586	-8.8508	61.1051	99.9343	
  1130	-6.2584	-0.4461	-6.7044	-7.0815	-0.6529	-7.7345	-7.3806	-0.7037	-8.0845	60.4333	99.9362	
  1131	-6.2943	-0.6340	-6.9283	-7.2664	-0.9750	-8.2415	-7.6808	-1.1546	-8.8355	60.7499	99.9367	
  1132	-6.8869	-0.8632	-7.7501	-7.8264	-1.1507	-8.9772	-8.1611	-1.4450	-9.6062	60.9963	99.9428	
  1133	-7.1911	-0.9147	-8.1058	-8.0857	-1.1283	-9.2141	-8.1996	-1.2982	-9.4979	60.8453	99.9305	
  1134	-6.7900	-0.8337	-7.6237	-7.7516	-1.0526	-8.8043	-7.9997	-1.2296	-9.2294	60.6348	99.9345	
  1135	-6.6726	-0.7312	-7.4038	-7.6009	-0.9467	-8.5477	-7.8304	-1.0776	-8.9080	60.5897	99.9325	
  1136	-6.4778	-0.6565	-7.1343	-7.4409	-0.9133	-8.3544	-7.7462	-1.0589	-8.8052	60.5762	99.9337	
  1137	-6.4325	-0.5683	-7.0009	-7.4027	-0.8507	-8.2535	-7.7230	-1.0671	-8.7901	60.7631	99.9369	
  1138	-6.5511	-0.5660	-7.1171	-7.5224	-0.8984	-8.4208	-7.8448	-1.1209	-8.9658	60.8510	99.9351	
  1139	-6.4501	-0.4737	-6.9238	-7.3422	-0.7614	-8.1037	-7.6117	-0.8945	-8.5063	60.7267	99.9328	
  1140	-6.1151	-0.4332	-6.5483	-7.0883	-0.7612	-7.8496	-7.4969	-0.9593	-8.4563	60.7290	99.9380	
  1141	-6.4366	-0.6311	-7.0677	-7.4418	-0.9268	-8.3687	-7.7941	-1.0662	-8.8603	60.4957	99.9321	
  1142	-6.3541	-0.5804	-6.9345	-7.2328	-0.8762	-8.1090	-7.4984	-0.9830	-8.4815	60.8294	99.9312	
  1143	-6.3870	-0.7212	-7.1082	-7.3432	-0.9963	-8.3396	-7.6082	-1.1318	-8.7402	60.7801	99.9305	
  1144	-6.3086	-0.7333	-7.0419	-7.1598	-1.0265	-8.1864	-7.4166	-1.1027	-8.5194	60.9332	99.9301	
  1145	-6.1508	-0.7417	-6.8925	-7.0221	-1.0198	-8.0420	-7.2689	-1.1125	-8.3815	61.0019	99.9304	
  1146	-6.1786	-0.8040	-6.9826	-7.0872	-1.0729	-8.1602	-7.3368	-1.1551	-8.4920	60.8982	99.9288	
  1147	-6.1694	-0.7832	-6.9526	-7.0247	-1.0604	-8.0852	-7.2293	-1.1446	-8.3741	61.1065	99.9285	
  1148	-6.0755	-0.8008	-6.8763	-6.9496	-1.0662	-8.0158	-7.1397	-1.1339	-8.2737	61.0789	99.9265	
  1149	-6.0333	-0.7597	-6.7930	-6.9327	-1.0168	-7.9496	-7.1485	-1.0824	-8.2310	60.9457	99.9270	
  1150	-5.9066	-0.6365	-6.5431	-6.8152	-0.8923	-7.7075	-7.0291	-0.9732	-8.0025	60.9507	99.9276	
  1151	-5.7345	-0.5456	-6.2801	-6.6258	-0.8277	-7.4536	-6.8477	-0.9162	-7.7641	61.0861	99.9279	
  1152	-5.5479	-0.4760	-6.0239	-6.4634	-0.7536	-7.2171	-6.7273	-0.8861	-7.6135	61.1137	99.9317	
  1153	-5.5160	-0.4714	-5.9873	-6.4445	-0.7811	-7.2257	-6.7055	-0.9181	-7.6236	61.2072	99.9297	
  1154	-5.4685	-0.4723	-5.9409	-6.3828	-0.7821	-7.1650	-6.6924	-0.8985	-7.5910	61.1089	99.9316	
  1155	-5.4551	-0.5093	-5.9644	-6.4042	-0.7953	-7.1996	-6.7069	-0.9418	-7.6488	61.1040	99.9326	
  1156	-5.4541	-0.4936	-5.9476	-6.3774	-0.8048	-7.1822	-6.7069	-0.9418	-7.6488	61.1353	99.9333	
  1157	-5.4149	-0.4996	-5.9145	-6.3425	-0.7963	-7.1390	-6.6837	-0.9500	-7.6338	61.1341	99.9353	
  1158	-5.4077	-0.5102	-5.9179	-6.3371	-0.8190	-7.1562	-6.6851	-0.9737	-7.6589	61.1641	99.9351	
  1159	-5.3912	-0.5001	-5.8912	-6.2880	-0.8018	-7.0898	-6.6140	-0.9746	-7.5887	61.3009	99.9366	
  1160	-5.2983	-0.5334	-5.8317	-6.2351	-0.8343	-7.0695	-6.6052	-1.0261	-7.6315	61.2580	99.9382	
  1161	-5.3746	-0.6104	-5.9850	-6.3384	-0.9500	-7.2885	-6.7300	-1.1273	-7.8574	61.2451	99.9356	
  1162	-5.4745	-0.6870	-6.1615	-6.3989	-1.0393	-7.4383	-6.7651	-1.2178	-7.9831	61.4103	99.9354	
  1163	-5.5857	-0.8158	-6.4016	-6.5513	-1.1723	-7.7237	-6.9011	-1.4059	-8.3071	61.5589	99.9358	
  1164	-5.7950	-0.8693	-6.6643	-6.6890	-1.1790	-7.8681	-6.9084	-1.3307	-8.2392	61.5222	99.9298	
  1165	-5.4054	-0.7199	-6.1252	-6.2201	-1.0333	-7.2535	-6.4223	-1.1392	-7.5616	61.6815	99.9294	
  1166	-5.5042	-0.9013	-6.4055	-6.3742	-1.1933	-7.5676	-6.6286	-1.3145	-7.9432	61.5331	99.9316	
  1167	-5.1344	-0.5681	-5.7024	-5.6907	-0.7983	-6.4891	-5.6691	-0.8484	-6.5175	62.2326	99.9298	
  1168	-4.3579	-0.5574	-4.9153	-4.9021	-0.8071	-5.7093	-5.0351	-0.8605	-5.8957	62.3939	99.9369	
  1169	-4.4787	-0.4659	-4.9446	-5.0284	-0.7417	-5.7703	-5.1730	-0.7875	-5.9607	62.2950	99.9356	
  1170	-4.7170	-0.3564	-5.0733	-5.2810	-0.6110	-5.8921	-5.4454	-0.5824	-6.0278	61.7885	99.9329	
  1171	-5.0490	-0.3497	-5.3987	-5.7112	-0.5766	-6.2879	-5.9023	-0.5844	-6.4867	61.4149	99.9337	
  1172	-5.3550	-0.5532	-5.9082	-6.0215	-0.8198	-6.8414	-6.2246	-0.9124	-7.1371	61.7083	99.9371	
  1173	-5.6363	-0.7415	-6.3778	-6.2872	-1.0096	-7.2969	-6.3947	-1.0763	-7.4711	61.8393	99.9315	
  1174	-5.8114	-0.9999	-6.8113	-6.4192	-1.3642	-7.7835	-6.5439	-1.5805	-8.1245	62.6507	99.9380	
  1175	-6.2483	-1.2689	-7.5172	-6.9977	-1.6165	-8.6143	-7.0938	-1.8463	-8.9402	62.3997	99.9324	
  1176	-6.1254	-1.4495	-7.5749	-6.9881	-1.7928	-8.7811	-7.1510	-2.0077	-9.1588	62.1875	99.9302	
  1177	-6.0295	-1.4357	-7.4653	-6.9130	-1.7986	-8.7117	-7.1162	-2.0200	-9.1363	62.1820	99.9308	
  1178	-6.0532	-1.4353	-7.4885	-7.0158	-1.7969	-8.8128	-7.2490	-2.0578	-9.3069	62.0686	99.9313	
  1179	-6.2100	-1.4112	-7.6212	-7.1187	-1.7951	-8.9139	-7.2838	-2.0455	-9.3295	62.2410	99.9285	
  1180	-5.8690	-1.1560	-7.0249	-6.7299	-1.5035	-8.2335	-6.9683	-1.7332	-8.7017	62.0272	99.9347	
  1181	-5.6154	-1.0301	-6.6455	-6.5220	-1.3625	-7.8846	-6.8106	-1.5771	-8.3878	61.8001	99.9352	
  1182	-5.4588	-0.9336	-6.3924	-6.3365	-1.2482	-7.5848	-6.5338	-1.4146	-7.9485	61.8579	99.9299	
  1183	-4.9898	-0.7806	-5.7704	-5.7576	-1.0999	-6.8576	-6.0186	-1.3303	-7.3489	62.2606	99.9407	
  1184	-5.1504	-1.0603	-6.2107	-6.1250	-1.3782	-7.5034	-6.4191	-1.4793	-7.8985	61.5547	99.9265	
  1185	-5.2764	-0.8063	-6.0827	-6.0141	-1.1407	-7.1549	-6.1449	-1.2614	-7.4064	62.1793	99.9288	
  1186	-5.2226	-0.9541	-6.1767	-5.9483	-1.2954	-7.2438	-6.0885	-1.4084	-7.4971	62.3069	99.9289	
  1187	-5.2246	-1.1060	-6.3306	-5.8639	-1.3736	-7.2377	-5.9750	-1.3941	-7.3692	62.1672	99.9292	
  1188	-5.1955	-1.2690	-6.4645	-5.8695	-1.5723	-7.4419	-6.0111	-1.5993	-7.6105	62.2835	99.9278	
  1189	-5.6479	-1.5324	-7.1804	-6.3132	-1.7545	-8.0679	-6.2995	-1.7577	-8.0573	62.2594	99.9228	
  1190	-5.7233	-1.4733	-7.1966	-6.2565	-1.6154	-7.8720	-6.1519	-1.5737	-7.7257	62.2573	99.9252	
  1191	-5.4521	-1.4420	-6.8941	-6.2339	-1.6926	-7.9266	-6.3488	-1.7887	-8.1376	62.1685	99.9286	
  1192	-5.8151	-1.4243	-7.2394	-6.5327	-1.6424	-8.1752	-6.5575	-1.8058	-8.3633	62.3659	99.9322	
  1193	-5.8759	-1.3864	-7.2624	-6.6632	-1.6447	-8.3080	-6.7839	-1.8226	-8.6066	62.1511	99.9331	
  1194	-5.9760	-1.3425	-7.3185	-6.7572	-1.6115	-8.3688	-6.8536	-1.7980	-8.6517	62.1834	99.9322	
  1195	-5.9265	-1.3120	-7.2386	-6.6947	-1.5990	-8.2938	-6.8057	-1.7907	-8.5965	62.2481	99.9329	
  1196	-5.8513	-1.2507	-7.1020	-6.6413	-1.5141	-8.1555	-6.7597	-1.7162	-8.4759	62.1520	99.9340	
  1197	-5.7215	-1.2009	-6.9223	-6.5028	-1.4938	-7.9967	-6.6262	-1.6665	-8.2927	62.1889	99.9316	
  1198	-5.6606	-1.2388	-6.8993	-6.4311	-1.5538	-7.9849	-6.5811	-1.7066	-8.2878	62.2203	99.9312	
  1199	-5.7348	-1.2844	-7.0192	-6.5293	-1.5882	-8.1176	-6.6435	-1.7572	-8.4008	62.2508	99.9298	
  1200	-5.7523	-1.3103	-7.0626	-6.5016	-1.5842	-8.0859	-6.5811	-1.7066	-8.2878	62.1988	99.9287	
  1201	-5.7451	-1.3209	-7.0660	-6.5159	-1.5930	-8.1090	-6.5811	-1.7066	-8.2878	62.1666	99.9266	
  1202	-5.7388	-1.3472	-7.0861	-6.5159	-1.5930	-8.1090	-6.5463	-1.7189	-8.2653	62.2024	99.9265	
  1203	-5.7708	-1.3518	-7.1226	-6.5238	-1.6109	-8.1349	-6.5811	-1.7066	-8.2878	62.1381	99.9265	
  1204	-5.7059	-1.3269	-7.0328	-6.4390	-1.5717	-8.0109	-6.4654	-1.6567	-8.1222	62.1793	99.9258	
  1205	-5.5678	-1.2720	-6.8398	-6.3068	-1.5423	-7.8492	-6.3812	-1.6380	-8.0193	62.2078	99.9274	
  1206	-5.6729	-1.3066	-6.9795	-6.4399	-1.5852	-8.0252	-6.5333	-1.6993	-8.2327	62.1657	99.9279	
  1207	-5.6698	-1.2595	-6.9294	-6.4231	-1.5358	-7.9590	-6.5003	-1.6444	-8.1447	62.1703	99.9275	
  1208	-5.6761	-1.2332	-6.9093	-6.4357	-1.5176	-7.9533	-6.5351	-1.6321	-8.1673	62.1344	99.9283	
  1209	-5.6853	-1.2540	-6.9393	-6.4499	-1.5263	-7.9764	-6.5365	-1.6558	-8.1924	62.1666	99.9289	
  1210	-5.7163	-1.2429	-6.9591	-6.4499	-1.5263	-7.9764	-6.5351	-1.6321	-8.1673	62.1703	99.9282	
  1211	-5.6523	-1.2337	-6.8860	-6.4142	-1.5044	-7.9187	-6.4742	-1.6052	-8.0794	62.1408	99.9260	
  1212	-5.5946	-1.1982	-6.7928	-6.3509	-1.4783	-7.8293	-6.4248	-1.5742	-7.9991	62.1418	99.9262	
  1213	-5.6503	-1.2023	-6.8526	-6.4000	-1.4956	-7.8956	-6.5090	-1.5928	-8.1020	62.1041	99.9278	
  1214	-5.6575	-1.1917	-6.8492	-6.4188	-1.4681	-7.8871	-6.4960	-1.5732	-8.0693	62.1068	99.9269	
  1215	-5.6503	-1.2023	-6.8526	-6.4268	-1.4861	-7.9130	-6.5308	-1.5609	-8.0918	61.9753	99.9255	
  1216	-5.6967	-1.1856	-6.8824	-6.4680	-1.4854	-7.9534	-6.6005	-1.5363	-8.1369	61.8758	99.9249	
  1217	-5.7359	-1.1796	-6.9155	-6.4814	-1.4806	-7.9621	-6.5657	-1.5486	-8.1144	62.0425	99.9245	
  1218	-5.6720	-1.1704	-6.8424	-6.4180	-1.4546	-7.8727	-6.5033	-1.4980	-8.0014	61.9509	99.9239	
