OxySoft export of:	C:\Users\TO3 TechSupport\Documents\Train2Adapt\Post_tests\T2A_08_POST_NIRS
Export date:	2022/12/21 10:53:05
Start of measurement:	2022-12-21 10:04:03.164

Datafile sample rate:	10.00	Hz
Datafile duration:	2928.000	s
Datafile total number of samples:	29280

Description:	

Optode-template:	PortaMon TSI Fit Factor
Optode distance (mm):	 35.00
Optode gradients (mm):	 5.00
DPF:	6.39

Device id:	291
# Receivers:	1
# Light sources:	6
# ADC:	2

Light source wavelengths:
device	index	wavelength
1	1	847	nm
1	2	761	nm
1	3	848	nm
1	4	761	nm
1	5	848	nm
1	6	762	nm

Export sample rate:	10.00	Hz
Selected time span:	0	2928
Selected time span (sample numbers):	0	29280


Legend:
Column	Trace (Measurement)
1	(Sample number)
2	Rx1-Tx1 O2Hb (T2A_08_POST_NIRS)
3	Rx1-Tx1 HHb (T2A_08_POST_NIRS)
4	Rx1-Tx1 tHb (T2A_08_POST_NIRS)
5	Rx1-Tx1 HbDiff (T2A_08_POST_NIRS)
6	Rx1-Tx2 O2Hb (T2A_08_POST_NIRS)
7	Rx1-Tx2 HHb (T2A_08_POST_NIRS)
8	Rx1-Tx2 tHb (T2A_08_POST_NIRS)
9	Rx1-Tx2 HbDiff (T2A_08_POST_NIRS)
10	Rx1-Tx3 O2Hb (T2A_08_POST_NIRS)
11	Rx1-Tx3 HHb (T2A_08_POST_NIRS)
12	Rx1-Tx3 tHb (T2A_08_POST_NIRS)
13	Rx1-Tx3 HbDiff (T2A_08_POST_NIRS)
14	Rx1-Tx1,Tx2,Tx3 TSI% (T2A_08_POST_NIRS)
15	Rx1-Tx1,Tx2,Tx3 TSI Fit Factor (T2A_08_POST_NIRS)
16	(Event)


1	2	3	4	5	6	7	8	9	10	11	12	13	14	15	16
     0	120.5144	56.1278	176.6422	64.3867	94.8963	42.2957	137.1920	52.6005	78.7511	37.2246	115.9757	41.5265	43.7250	98.5201	
     1	 0.5315	 0.1557	 0.6872	 0.3758	 0.6562	 0.2069	 0.8631	 0.4493	 0.6515	 0.3045	 0.9560	 0.3470	60.8455	99.8944	
     2	 0.2020	-0.0120	 0.1900	 0.2140	 0.2815	 0.0435	 0.3250	 0.2379	 0.3583	 0.1607	 0.5190	 0.1975	60.7974	99.9034	
     3	 0.2119	 0.0235	 0.2353	 0.1884	 0.3954	 0.1758	 0.5712	 0.2196	 0.6533	 0.3392	 0.9925	 0.3140	60.9421	99.9091	
     4	 0.8395	 0.3548	 1.1943	 0.4847	 1.2259	 0.5261	 1.7520	 0.6998	 1.2831	 0.5633	 1.8465	 0.7198	61.3688	99.8713	
     5	 1.2633	 0.4017	 1.6650	 0.8616	 1.3522	 0.4124	 1.7646	 0.9397	 1.0857	 0.3541	 1.4397	 0.7316	61.0319	99.8623	
     6	 0.4956	-0.0578	 0.4377	 0.5534	 0.5240	-0.0125	 0.5115	 0.5364	 0.3433	-0.0167	 0.3266	 0.3600	60.7353	99.8747	
     7	-0.0872	-0.2885	-0.3756	 0.2014	-0.0167	-0.1748	-0.1916	 0.1581	 0.0169	-0.1245	-0.1076	 0.1413	60.7642	99.8891	
     8	-0.0027	-0.1789	-0.1816	 0.1762	 0.1178	-0.0301	 0.0877	 0.1479	 0.2108	 0.0153	 0.2261	 0.1954	60.8702	99.8882	
     9	 0.1714	-0.1337	 0.0378	 0.3052	 0.2853	-0.0048	 0.2805	 0.2901	 0.3119	 0.0541	 0.3660	 0.2578	60.7911	99.8868	
    10	 0.1409	-0.1224	 0.0185	 0.2634	 0.2188	-0.0070	 0.2117	 0.2258	 0.2523	 0.0292	 0.2816	 0.2230	60.8173	99.8875	
    11	 0.0314	-0.1289	-0.0975	 0.1603	 0.1178	-0.0301	 0.0877	 0.1479	 0.1463	 0.0100	 0.1563	 0.1363	60.8110	99.8882	
    12	 0.0197	-0.0620	-0.0423	 0.0818	 0.1407	 0.0218	 0.1625	 0.1190	 0.1746	 0.1057	 0.2803	 0.0689	60.7492	99.8928	
    13	 0.0853	-0.0080	 0.0773	 0.0933	 0.1759	 0.0557	 0.2316	 0.1202	 0.1909	 0.0818	 0.2727	 0.1090	60.8841	99.8882	
    14	 0.0287	-0.0419	-0.0132	 0.0706	 0.1063	 0.0010	 0.1073	 0.1054	 0.1012	 0.0388	 0.1399	 0.0624	60.8358	99.8900	
    15	-0.0261	-0.0451	-0.0712	 0.0191	 0.0268	 0.0035	 0.0303	 0.0233	 0.0367	 0.0334	 0.0701	 0.0033	60.7936	99.8910	
    16	-0.0261	-0.0451	-0.0712	 0.0191	 0.0130	-0.0048	 0.0082	 0.0178	 0.0024	 0.0463	 0.0487	-0.0439	60.6765	99.8930	
    17	-0.0252	-0.0298	-0.0550	 0.0047	 0.0398	-0.0013	 0.0385	 0.0411	 0.0367	 0.0334	 0.0701	 0.0033	60.8295	99.8914	
    18	 0.0458	-0.0169	 0.0289	 0.0627	 0.0796	-0.0026	 0.0770	 0.0821	 0.0705	 0.0090	 0.0794	 0.0615	60.8966	99.8911	
    19	 0.0458	-0.0169	 0.0289	 0.0627	 0.0398	-0.0013	 0.0385	 0.0411	 0.0295	 0.0066	 0.0361	 0.0229	60.8137	99.8924	
    20	-0.0000	 0.0000	 0.0000	 0.0000	 0.0000	-0.0000	 0.0000	 0.0000	-0.0000	-0.0000	-0.0000	-0.0000	60.8872	99.8931	
    21	-0.0000	 0.0000	 0.0000	 0.0000	-0.0336	-0.0077	-0.0413	-0.0260	-0.0464	 0.0056	-0.0408	-0.0520	60.7665	99.8957	
    22	 0.0332	 0.0347	 0.0679	-0.0014	 0.0023	 0.0394	 0.0417	-0.0371	-0.0109	 0.1281	 0.1172	-0.1390	60.4807	99.9027	
    23	 0.2038	 0.2845	 0.4884	-0.0807	 0.2890	 0.2888	 0.5778	 0.0002	 0.3058	 0.3870	 0.6928	-0.0813	60.6763	99.9008	
    24	 0.3825	 0.4063	 0.7888	-0.0237	 0.4504	 0.4371	 0.8874	 0.0133	 0.4653	 0.5397	 1.0050	-0.0744	60.5407	99.9004	
    25	 0.7049	 0.7174	 1.4223	-0.0125	 0.9282	 0.8908	 1.8190	 0.0374	 1.0180	 1.0762	 2.0941	-0.0582	60.2749	99.8979	
    26	 1.4322	 1.2857	 2.7179	 0.1465	 1.7449	 1.4607	 3.2056	 0.2842	 1.6995	 1.6233	 3.3228	 0.0762	60.2101	99.8826	
    27	 1.9943	 1.5631	 3.5573	 0.4312	 2.3001	 1.7585	 4.0586	 0.5416	 2.2860	 1.9109	 4.1968	 0.3750	60.3257	99.8837	
    28	 2.5968	 1.9976	 4.5944	 0.5992	 2.9157	 2.1815	 5.0971	 0.7341	 2.9163	 2.3709	 5.2873	 0.5454	60.3068	99.8899	
    29	 3.1364	 2.1581	 5.2945	 0.9783	 3.2598	 2.2756	 5.5354	 0.9842	 3.2969	 2.5115	 5.8083	 0.7854	60.1985	99.9108	
    30	 2.9110	 1.9050	 4.8160	 1.0060	 3.0962	 1.9740	 5.0703	 1.1222	 3.2404	 2.2080	 5.4483	 1.0324	60.7738	99.9174	
    31	 2.5033	 1.3360	 3.8393	 1.1673	 2.7409	 1.1130	 3.8540	 1.6279	 2.8343	 1.0083	 3.8426	 1.8259	62.9507	99.8971	
    32	 1.7804	 0.3124	 2.0928	 1.4680	 1.7500	 0.1717	 1.9217	 1.5783	 1.9270	 0.2685	 2.1955	 1.6585	62.0659	99.9265	
    33	 1.4616	 0.0625	 1.5242	 1.3991	 1.5382	-0.0451	 1.4931	 1.5833	 1.6790	-0.0163	 1.6627	 1.6952	62.3505	99.9111	
    34	 1.0593	-0.2817	 0.7777	 1.3410	 0.8229	 0.2190	 1.0420	 0.6039	 1.7935	-0.3958	 1.3977	 2.1893	63.5982	99.8642	
    35	 1.0315	-0.3574	 0.6741	 1.3889	 0.9432	-0.2276	 0.7156	 1.1708	 1.1063	-0.1497	 0.9567	 1.2560	61.2220	99.9081	
    36	 1.7876	 0.3020	 2.0895	 1.4856	 1.9281	 0.3808	 2.3089	 1.5474	 2.0642	 0.4413	 2.5056	 1.6229	61.7727	99.8992	
    37	 3.1838	 1.2411	 4.4249	 1.9427	 3.3008	 1.1476	 4.4484	 2.1531	 3.3666	 1.1510	 4.5175	 2.2156	62.3175	99.9034	
    38	 4.0799	 1.6298	 5.7097	 2.4501	 4.0778	 1.4909	 5.5687	 2.5869	 3.9976	 1.5104	 5.5080	 2.4872	62.0294	99.9047	
    39	 4.1930	 1.6975	 5.8906	 2.4955	 4.1833	 1.5927	 5.7760	 2.5905	 4.1180	 1.5833	 5.7013	 2.5347	62.0364	99.9010	
    40	 4.2011	 1.7024	 5.9035	 2.4987	 4.1909	 1.6100	 5.8010	 2.5809	 4.1180	 1.5833	 5.7013	 2.5347	62.0352	99.8979	
    41	 3.8796	 1.4066	 5.2862	 2.4731	 3.8966	 1.3433	 5.2399	 2.5532	 3.8633	 1.3955	 5.2588	 2.4678	61.8920	99.9048	
    42	 3.4118	 1.1413	 4.5531	 2.2706	 3.5356	 1.1883	 4.7239	 2.3473	 3.6628	 1.3527	 5.0155	 2.3101	61.7132	99.9137	
    43	 3.2529	 1.0905	 4.3434	 2.1624	 3.4132	 1.1396	 4.5529	 2.2736	 3.5424	 1.2798	 4.8222	 2.2626	61.8169	99.9097	
    44	 3.3553	 1.2404	 4.5957	 2.1149	 3.5608	 1.2796	 4.8404	 2.2812	 3.5713	 1.3870	 4.9583	 2.1842	61.7379	99.8974	
    45	 3.6229	 1.4153	 5.0382	 2.2076	 3.8415	 1.4240	 5.2654	 2.4175	 3.8483	 1.4425	 5.2907	 2.4058	62.1358	99.8899	
    46	 3.8940	 1.5186	 5.4126	 2.3755	 3.9876	 1.3097	 5.2973	 2.6779	 3.7568	 1.1403	 4.8971	 2.6166	62.7186	99.8736	
    47	 3.9173	 1.3848	 5.3021	 2.5325	 3.6229	 0.9751	 4.5980	 2.6478	 3.3053	 0.7548	 4.0601	 2.5505	62.6401	99.8951	
    48	 3.2762	 0.9567	 4.2330	 2.3195	 2.7848	 0.4935	 3.2783	 2.2912	 2.4485	 0.3148	 2.7633	 2.1337	62.2033	99.9098	
    49	 2.6890	 0.7825	 3.4715	 1.9066	 2.1829	 0.3068	 2.4897	 1.8760	 1.8861	 0.1539	 2.0400	 1.7321	62.0303	99.9157	
    50	 2.3263	 0.7131	 3.0394	 1.6133	 1.9534	 0.3580	 2.3114	 1.5953	 1.7331	 0.2409	 1.9740	 1.4922	61.8338	99.9101	
    51	 2.4296	 0.7453	 3.1749	 1.6842	 2.0788	 0.3452	 2.4241	 1.7336	 1.7259	 0.2141	 1.9400	 1.5118	61.8156	99.9018	
    52	 2.2500	 0.7413	 2.9913	 1.5088	 1.8363	 0.4012	 2.2376	 1.4351	 1.6132	 0.4040	 2.0172	 1.2092	61.2338	99.9221	
    53	 2.3910	 1.0177	 3.4087	 1.3734	 2.3601	 0.8447	 3.2048	 1.5154	 2.3803	 0.6887	 3.0690	 1.6916	62.4244	99.8950	
    54	 1.5065	-0.1026	 1.4038	 1.6091	 1.5345	-0.3387	 1.1958	 1.8732	 1.3691	-0.7088	 0.6603	 2.0779	63.4657	99.8548	
    55	 1.0503	-0.7007	 0.3496	 1.7510	 0.5405	-1.2186	-0.6781	 1.7591	 0.2294	-1.5445	-1.3151	 1.7738	63.0064	99.8971	
    56	 0.6749	-0.9844	-0.3095	 1.6594	-0.0483	-1.6381	-1.6863	 1.5897	-0.3360	-1.8754	-2.2114	 1.5394	62.7637	99.9261	
    57	-0.0308	-1.5841	-1.6150	 1.5533	-0.9828	-2.0639	-3.0467	 1.0811	-1.3717	-2.1656	-3.5373	 0.7939	61.0117	99.9300	
    58	-1.0661	-2.3516	-3.4177	 1.2855	-2.2331	-2.7821	-5.0153	 0.5490	-2.7686	-2.8988	-5.6674	 0.1302	60.0329	99.9240	
    59	-2.5161	-2.7469	-5.2630	 0.2308	-3.4339	-2.8750	-6.3090	-0.5589	-3.7973	-2.7134	-6.5106	-1.0839	58.4863	99.9298	
    60	-2.7270	-2.2232	-4.9502	-0.5038	-3.4648	-2.2603	-5.7251	-1.2045	-3.7306	-2.1007	-5.8313	-1.6299	58.3128	99.9226	
    61	-2.7351	-2.0951	-4.8302	-0.6400	-3.5061	-2.1713	-5.6774	-1.3349	-3.8776	-2.0101	-5.8877	-1.8675	57.9861	99.9200	
    62	-2.7324	-1.9162	-4.6486	-0.8161	-3.1911	-1.7781	-4.9692	-1.4131	-3.2972	-1.5018	-4.7990	-1.7955	58.1583	99.9210	
    63	-2.0912	-1.3552	-3.4464	-0.7360	-2.3325	-1.0561	-3.3885	-1.2764	-2.2045	-0.6721	-2.8766	-1.5324	58.2984	99.9270	
    64	-0.1267	-0.4303	-0.5570	 0.3037	-0.2515	-0.3295	-0.5810	 0.0780	-0.0885	-0.1321	-0.2206	 0.0436	60.2766	99.9218	
    65	 0.4533	-0.3785	 0.0748	 0.8319	 0.1723	-0.3519	-0.1796	 0.5241	 0.2157	-0.2286	-0.0129	 0.4442	60.4194	99.9192	
    66	 0.5619	-0.3874	 0.1746	 0.9493	 0.2235	-0.3842	-0.1607	 0.6077	 0.2031	-0.3597	-0.1566	 0.5627	60.6106	99.9096	
    67	 0.1821	-0.6147	-0.4326	 0.7969	-0.3524	-0.5805	-0.9329	 0.2281	-0.5232	-0.3055	-0.8287	-0.2178	58.8693	99.9294	
    68	 0.5558	 0.1702	 0.7260	 0.3856	 0.0215	-0.0884	-0.0669	 0.1098	-0.5684	-0.2767	-0.8451	-0.2917	59.9759	99.8732	
    69	-1.2005	-0.9254	-2.1259	-0.2751	-2.2590	-1.2776	-3.5366	-0.9814	-2.9986	-1.2537	-4.2523	-1.7449	57.7532	99.9152	
    70	-1.5939	-1.6483	-3.2422	 0.0544	-2.8981	-1.9936	-4.8917	-0.9046	-3.5663	-1.9676	-5.5338	-1.5987	57.6246	99.9295	
    71	-1.7565	-1.8933	-3.6498	 0.1369	-2.9585	-2.1188	-5.0772	-0.8397	-3.4524	-2.0221	-5.4745	-1.4303	57.7723	99.9346	
    72	-1.5401	-1.9263	-3.4664	 0.3862	-2.6250	-2.0944	-4.7194	-0.5306	-3.0068	-1.9769	-4.9837	-1.0300	58.2441	99.9350	
    73	-1.1253	-1.7666	-2.8919	 0.6414	-2.0369	-1.9160	-3.9529	-0.1209	-2.2872	-1.8219	-4.1091	-0.4653	59.1329	99.9330	
    74	-0.8308	-1.6642	-2.4950	 0.8334	-1.6575	-1.7880	-3.4455	 0.1304	-1.7970	-1.7048	-3.5018	-0.0923	59.6460	99.9338	
    75	-0.4016	-1.3925	-1.7941	 0.9909	-1.0045	-1.4056	-2.4101	 0.4011	-0.9378	-1.3307	-2.2685	 0.3928	60.3418	99.9300	
    76	 0.0483	-1.1675	-1.1193	 1.2158	-0.4171	-1.2404	-1.6575	 0.8233	-0.5181	-1.2225	-1.7406	 0.7044	60.7371	99.9132	
    77	-0.3971	-1.1830	-1.5800	 0.7860	-0.8984	-0.9487	-1.8471	 0.0504	-0.8604	-0.6217	-1.4821	-0.2387	58.7234	99.9321	
    78	-0.2246	-0.6366	-0.8612	 0.4121	-0.4281	-0.5123	-0.9404	 0.0842	-0.2040	-0.3367	-0.5408	 0.1327	60.3359	99.9249	
    79	-0.0369	-0.6277	-0.6646	 0.5908	-0.3417	-0.5107	-0.8524	 0.1690	-0.2227	-0.3592	-0.5819	 0.1365	60.0731	99.9211	
    80	 0.5727	-0.3366	 0.2361	 0.9094	 0.0407	-0.3301	-0.2894	 0.3708	 0.2012	-0.2822	-0.0810	 0.4834	60.4624	99.9303	
    81	 0.3895	-0.8008	-0.4113	 1.1903	-0.1832	-0.8709	-1.0541	 0.6877	-0.1888	-0.8325	-1.0213	 0.6436	60.5363	99.9258	
    82	 0.5394	-0.9031	-0.3637	 1.4425	-0.3605	-1.1808	-1.5414	 0.8203	-0.6759	-1.2283	-1.9041	 0.5524	60.2082	99.9255	
    83	 0.4990	-0.9273	-0.4283	 1.4263	-0.4952	-1.2116	-1.7067	 0.7164	-0.8487	-1.2992	-2.1479	 0.4505	60.0490	99.9236	
    84	 0.5259	-0.9998	-0.4739	 1.5257	-0.6481	-1.3294	-1.9775	 0.6813	-1.1413	-1.4314	-2.5727	 0.2901	59.5607	99.9240	
    85	 0.2188	-1.1836	-0.9648	 1.4025	-1.0106	-1.5107	-2.5212	 0.5001	-1.5532	-1.6133	-3.1665	 0.0601	59.2630	99.9226	
    86	 0.0590	-1.2497	-1.1907	 1.3088	-1.1903	-1.5180	-2.7083	 0.3277	-1.6779	-1.5429	-3.2207	-0.1350	58.8371	99.9302	
    87	 0.3409	-1.0957	-0.7548	 1.4367	-0.8439	-1.3845	-2.2284	 0.5406	-1.3135	-1.4907	-2.8043	 0.1772	59.4331	99.9226	
    88	 0.2808	-1.1908	-0.9100	 1.4716	-0.8469	-1.4370	-2.2839	 0.5901	-1.1877	-1.4258	-2.6135	 0.2381	59.3796	99.9359	
    89	 0.4702	-1.0183	-0.5481	 1.4886	-0.1312	-0.8901	-1.0213	 0.7589	-0.2280	-0.6879	-0.9159	 0.4598	59.2963	99.9242	
    90	 0.2531	-0.6018	-0.3488	 0.8549	 0.0484	-0.4268	-0.3784	 0.4752	 0.2229	-0.2018	 0.0211	 0.4246	60.1414	99.9238	
    91	 0.8178	-0.6774	 0.1404	 1.4952	 0.3530	-0.9013	-0.5483	 1.2543	 0.1618	-1.1589	-0.9972	 1.3207	61.9980	99.8894	
    92	 0.1236	-1.4769	-1.3533	 1.6006	-0.9684	-1.7005	-2.6689	 0.7321	-1.2996	-1.6731	-2.9727	 0.3734	59.4953	99.9349	
    93	 0.3822	-1.3221	-0.9399	 1.7044	-0.5057	-1.5094	-2.0151	 1.0036	-0.6619	-1.5228	-2.1847	 0.8609	60.4367	99.9315	
    94	 0.6139	-1.2278	-0.6139	 1.8417	-0.1478	-1.4069	-1.5547	 1.2591	-0.2597	-1.4140	-1.6737	 1.1543	60.8411	99.9295	
    95	 0.7351	-1.1552	-0.4202	 1.8903	 0.2039	-1.1815	-0.9775	 1.3854	 0.3376	-1.1423	-0.8047	 1.4799	61.2699	99.9296	
    96	 1.2496	-0.8916	 0.3580	 2.1412	 0.8678	-0.9573	-0.0895	 1.8251	 0.9813	-0.9884	-0.0070	 1.9697	61.9904	99.9192	
    97	 1.5665	-0.8052	 0.7612	 2.3718	 1.1638	-0.8923	 0.2715	 2.0560	 1.1319	-0.8973	 0.2346	 2.0291	61.7149	99.9152	
    98	 1.0637	-0.7369	 0.3268	 1.8007	 0.7750	-0.3800	 0.3950	 1.1550	 1.0038	 0.1250	 1.1288	 0.8788	59.1745	99.9433	
    99	 2.4322	 0.2595	 2.6916	 2.1727	 2.5736	 0.5178	 3.0915	 2.0558	 3.0126	 0.9591	 3.9717	 2.0534	61.0427	99.9408	
   100	 3.9010	 0.5774	 4.4784	 3.3236	 3.9794	 0.7093	 4.6888	 3.2701	 4.4066	 1.0734	 5.4801	 3.3332	62.0282	99.9440	
   101	 4.6309	 0.6598	 5.2908	 3.9711	 4.8017	 0.6873	 5.4890	 4.1144	 5.2130	 0.9892	 6.2022	 4.2239	62.9956	99.9413	
   102	 5.2639	 0.9501	 6.2141	 4.3138	 5.5680	 0.8468	 6.4148	 4.7213	 6.0953	 0.9059	 7.0012	 5.1894	64.7235	99.9310	
   103	 4.9254	 0.3634	 5.2888	 4.5620	 5.5116	 0.4453	 5.9569	 5.0663	 6.2279	 0.6495	 6.8774	 5.5784	64.8820	99.9320	
   104	 4.2411	-0.2677	 3.9734	 4.5089	 4.7301	-0.2047	 4.5254	 4.9349	 5.7313	-0.0438	 5.6875	 5.7751	65.5663	99.9461	
   105	 3.8622	-0.7457	 3.1165	 4.6079	 4.1950	-0.8451	 3.3499	 5.0401	 4.9957	-0.8481	 4.1476	 5.8438	66.0849	99.9371	
   106	 3.4015	-1.1544	 2.2472	 4.5559	 3.5878	-1.2377	 2.3501	 4.8255	 4.3479	-1.3075	 3.0403	 5.6553	65.9778	99.9331	
   107	 3.3647	-1.2502	 2.1144	 4.6150	 3.4900	-1.5502	 1.9399	 5.0402	 3.7169	-1.7791	 1.9377	 5.4960	66.0855	99.9023	
   108	 3.3476	-1.4082	 1.9394	 4.7558	 2.7942	-1.9837	 0.8104	 4.7779	 2.7354	-2.2609	 0.4745	 4.9963	65.3136	99.9262	
   109	 2.6428	-1.8597	 0.7831	 4.5024	 1.7556	-2.3712	-0.6156	 4.1268	 1.5943	-2.4466	-0.8522	 4.0408	63.4550	99.9459	
   110	 1.2789	-2.2477	-0.9687	 3.5266	 0.4232	-2.4423	-2.0191	 2.8655	 0.2790	-2.3897	-2.1107	 2.6687	61.6050	99.9373	
   111	 0.1594	-2.0611	-1.9017	 2.2205	-0.4482	-2.0066	-2.4548	 1.5584	-0.4516	-1.9678	-2.4194	 1.5162	60.9175	99.9184	
   112	 0.3201	-1.9797	-1.6595	 2.2998	-0.1277	-2.0914	-2.2191	 1.9638	 0.2362	-2.0902	-1.8540	 2.3264	62.7941	99.9399	
   113	 1.6930	-1.4385	 0.2544	 3.1315	 1.3178	-1.6732	-0.3554	 2.9910	 1.4959	-1.7542	-0.2583	 3.2501	63.5376	99.9286	
   114	 2.1420	-0.9630	 1.1790	 3.1050	 1.5364	-1.2243	 0.3121	 2.7607	 1.5162	-1.3604	 0.1558	 2.8766	62.7436	99.9233	
   115	 2.3251	-0.7647	 1.5604	 3.0899	 1.7742	-1.0172	 0.7570	 2.7913	 1.8113	-1.1818	 0.6294	 2.9931	62.9938	99.9215	
   116	 2.5900	-0.7687	 1.8213	 3.3587	 2.1475	-1.1081	 1.0394	 3.2555	 2.2425	-1.3024	 0.9401	 3.5449	63.8829	99.9236	
   117	 2.4606	-1.2449	 1.2157	 3.7056	 1.8746	-1.4632	 0.4114	 3.3377	 1.7403	-1.4268	 0.3135	 3.1671	62.2188	99.9290	
   118	 1.3320	-1.4773	-0.1453	 2.8094	 0.9497	-1.2624	-0.3127	 2.2122	 1.1481	-0.9211	 0.2270	 2.0692	60.5664	99.9396	
   119	 1.7280	-1.3733	 0.3547	 3.1013	 1.3789	-1.4209	-0.0420	 2.7998	 1.6246	-1.1826	 0.4420	 2.8072	62.0480	99.9472	
   120	 1.9902	-1.1572	 0.8330	 3.1474	 2.1452	-1.0335	 1.1117	 3.1786	 2.8114	-0.7898	 2.0217	 3.6012	63.3887	99.9426	
   121	 3.8488	-0.4435	 3.4052	 4.2923	 3.9700	-0.4872	 3.4828	 4.4571	 4.5769	-0.2599	 4.3170	 4.8368	64.1670	99.9495	
   122	 5.1767	-0.1361	 5.0406	 5.3128	 5.2396	-0.2387	 5.0009	 5.4782	 5.7097	-0.2364	 5.4733	 5.9461	65.0902	99.9311	
   123	 4.7250	-0.6576	 4.0674	 5.3826	 5.1204	-0.6908	 4.4297	 5.8112	 5.7267	-0.5852	 5.1414	 6.3119	65.6283	99.9306	
   124	 3.9330	-1.2646	 2.6684	 5.1976	 4.3841	-1.3641	 3.0200	 5.7482	 5.1602	-1.2759	 3.8843	 6.4362	66.4021	99.9390	
   125	 3.2515	-1.8498	 1.4017	 5.1013	 3.5483	-1.9203	 1.6280	 5.4686	 4.3469	-2.0038	 2.3430	 6.3507	66.7307	99.9288	
   126	 2.6911	-2.3624	 0.3287	 5.0536	 2.8525	-2.5818	 0.2707	 5.4343	 3.4191	-2.6888	 0.7303	 6.1079	66.7101	99.9272	
   127	 2.5780	-2.4302	 0.1478	 5.0082	 2.6927	-2.5898	 0.1028	 5.2825	 2.9958	-2.7542	 0.2416	 5.7500	66.0855	99.9032	
   128	 3.1392	-2.0351	 1.1041	 5.1744	 2.5649	-2.5024	 0.0625	 5.0673	 2.4044	-2.6857	-0.2813	 5.0901	64.7672	99.9223	
   129	 2.2665	-2.2917	-0.0252	 4.5582	 1.2173	-2.7221	-1.5049	 3.9394	 0.8790	-2.8570	-1.9780	 3.7360	62.7670	99.9321	
   130	 0.4825	-2.6653	-2.1828	 3.1479	-0.4876	-2.9172	-3.4048	 2.4296	-0.8090	-2.9023	-3.7113	 2.0933	61.1363	99.9310	
   131	-0.1801	-2.7961	-2.9762	 2.6160	-0.8120	-2.7840	-3.5960	 1.9720	-0.8187	-2.7511	-3.5697	 1.9324	61.4134	99.9206	
   132	 0.8066	-2.5895	-1.7829	 3.3961	 0.6068	-2.5973	-1.9905	 3.2041	 0.9524	-2.5657	-1.6133	 3.5181	63.5894	99.9264	
   133	 2.1948	-1.5222	 0.6726	 3.7170	 1.8961	-1.6655	 0.2305	 3.5615	 2.0505	-1.7440	 0.3065	 3.7945	63.6716	99.9191	
   134	 2.6582	-0.9346	 1.7236	 3.5928	 1.9869	-1.2432	 0.7437	 3.2301	 1.7861	-1.4440	 0.3421	 3.2300	62.8365	99.9120	
   135	 2.4310	-0.9524	 1.4786	 3.3835	 1.6519	-1.2938	 0.3581	 2.9457	 1.4428	-1.5395	-0.0966	 2.9823	62.7310	99.9136	
   136	 2.4993	-0.8525	 1.6468	 3.3518	 1.8538	-1.1337	 0.7201	 2.9875	 1.7746	-1.3275	 0.4471	 3.1020	62.8920	99.9174	
   137	 2.8378	-0.7976	 2.0402	 3.6354	 2.3188	-1.1311	 1.1877	 3.4499	 2.3268	-1.3636	 0.9632	 3.6904	63.7965	99.9176	
   138	 2.8673	-1.2230	 1.6443	 4.0904	 2.3136	-1.5650	 0.7487	 3.8786	 2.1764	-1.7913	 0.3852	 3.9677	63.7758	99.9107	
   139	 1.6991	-1.9961	-0.2970	 3.6953	 1.0143	-1.9835	-0.9692	 2.9977	 0.7720	-1.6537	-0.8817	 2.4257	60.1978	99.9374	
   140	 1.2063	-1.6264	-0.4201	 2.8328	 0.9804	-1.5352	-0.5548	 2.5157	 1.3169	-1.2678	 0.0490	 2.5847	61.8840	99.9420	
   141	 2.0889	-1.3345	 0.7544	 3.4234	 1.9456	-1.2682	 0.6775	 3.2138	 2.4207	-1.0150	 1.4056	 3.4357	62.7186	99.9468	
   142	 3.6225	-0.7119	 2.9106	 4.3344	 3.7742	-0.6562	 3.1180	 4.4304	 4.3397	-0.4483	 3.8914	 4.7881	63.9855	99.9397	
   143	 5.2269	-0.2094	 5.0175	 5.4363	 5.3276	-0.3248	 5.0028	 5.6523	 5.7717	-0.2774	 5.4943	 6.0491	65.0912	99.9329	
   144	 4.7779	-0.6849	 4.0930	 5.4629	 5.1900	-0.6360	 4.5540	 5.8260	 5.8140	-0.4763	 5.3377	 6.2903	65.3158	99.9308	
   145	 3.8172	-1.2453	 2.5719	 5.0625	 4.3320	-1.2309	 3.1011	 5.5630	 5.2553	-1.1286	 4.1267	 6.3839	66.3289	99.9390	
   146	 3.1267	-1.8506	 1.2760	 4.9773	 3.4190	-1.8592	 1.5599	 5.2782	 4.3523	-1.8996	 2.4527	 6.2518	66.5843	99.9359	
   147	 2.4317	-2.3996	 0.0321	 4.8313	 2.5259	-2.4880	 0.0379	 5.0139	 3.3534	-2.4929	 0.8605	 5.8463	66.2311	99.9439	
   148	 2.1040	-2.5367	-0.4327	 4.6407	 2.3118	-2.6302	-0.3184	 4.9419	 2.8807	-2.7228	 0.1579	 5.6036	66.1959	99.9184	
   149	 2.3131	-2.5592	-0.2460	 4.8723	 2.0442	-2.8934	-0.8492	 4.9375	 2.0685	-3.2032	-1.1347	 5.2717	65.7765	99.8978	
   150	 2.2467	-2.4955	-0.2488	 4.7423	 1.3757	-2.9683	-1.5927	 4.3440	 1.1670	-3.1540	-1.9871	 4.3210	63.9410	99.9305	
   151	 1.2780	-2.6618	-1.3839	 3.9398	 0.0815	-3.0670	-2.9855	 3.1485	-0.4036	-3.1844	-3.5880	 2.7808	61.6735	99.9283	
   152	-0.2483	-2.8960	-3.1444	 2.6477	-1.2019	-3.0959	-4.2978	 1.8939	-1.4720	-3.0903	-4.5623	 1.6183	60.9106	99.9286	
   153	 0.0533	-3.0700	-3.0167	 3.1233	-0.4837	-3.0795	-3.5632	 2.5958	-0.4663	-3.0428	-3.5090	 2.5765	62.0970	99.9200	
   154	 1.7036	-2.1855	-0.4819	 3.8891	 1.4557	-2.1599	-0.7042	 3.6155	 1.7508	-2.1274	-0.3767	 3.8782	63.4216	99.9243	
   155	 2.7749	-1.0716	 1.7033	 3.8465	 2.3372	-1.2720	 1.0652	 3.6092	 2.3497	-1.3722	 0.9775	 3.7219	63.2838	99.9184	
   156	 2.9312	-0.6678	 2.2634	 3.5990	 2.3394	-1.0046	 1.3348	 3.3441	 2.1877	-1.2346	 0.9531	 3.4222	63.2439	99.9112	
   157	 2.7777	-0.6268	 2.1509	 3.4045	 2.0824	-0.9701	 1.1123	 3.0525	 1.9781	-1.1146	 0.8635	 3.0926	62.7415	99.9269	
   158	 3.1350	-0.5163	 2.6187	 3.6513	 2.7478	-0.8336	 1.9142	 3.5814	 2.8723	-0.9661	 1.9062	 3.8384	63.8707	99.9280	
   159	 3.1870	-0.9578	 2.2292	 4.1448	 2.7304	-1.2496	 1.4808	 3.9799	 2.5424	-1.3678	 1.1747	 3.9102	63.3047	99.9111	
   160	 1.8411	-1.3055	 0.5356	 3.1467	 1.1461	-0.7383	 0.4078	 1.8844	 1.4057	-0.3388	 1.0669	 1.7445	58.8673	99.9390	
   161	 2.3872	-0.3731	 2.0141	 2.7603	 1.8626	-0.1783	 1.6843	 2.0408	 2.2709	 0.0390	 2.3099	 2.2319	60.9039	99.9469	
   162	 2.4787	-0.5398	 1.9389	 3.0186	 2.0930	-0.5583	 1.5346	 2.6513	 2.2987	-0.2135	 2.0852	 2.5122	61.2124	99.9534	
   163	 3.4466	-0.2559	 3.1907	 3.7025	 3.3281	-0.1027	 3.2254	 3.4307	 3.8565	 0.1345	 3.9911	 3.7220	62.5422	99.9440	
   164	 4.7521	 0.3336	 5.0856	 4.4186	 4.6803	 0.1958	 4.8761	 4.4844	 4.9760	 0.3519	 5.3279	 4.6240	63.5425	99.9412	
   165	 4.3319	 0.0820	 4.4139	 4.2499	 4.5571	 0.1340	 4.6911	 4.4231	 5.0055	 0.2464	 5.2519	 4.7591	63.9642	99.9239	
   166	 3.4322	-0.3679	 3.0643	 3.8001	 3.8697	-0.2691	 3.6005	 4.1388	 4.5877	-0.0514	 4.5363	 4.6391	64.3333	99.9361	
   167	 2.4894	-0.8879	 1.6015	 3.3774	 2.8136	-0.8445	 1.9691	 3.6581	 3.6792	-0.7022	 2.9770	 4.3814	64.7369	99.9434	
   168	 1.8366	-1.3821	 0.4545	 3.2187	 1.9243	-1.4078	 0.5165	 3.3320	 2.7219	-1.3938	 1.3281	 4.1157	64.8147	99.9409	
   169	 1.0564	-1.7901	-0.7337	 2.8465	 1.1985	-1.7834	-0.5848	 2.9819	 1.9542	-1.6901	 0.2641	 3.6443	64.4053	99.9410	
   170	 1.3841	-1.3871	-0.0029	 2.7712	 1.5326	-1.4039	 0.1287	 2.9366	 1.9348	-1.4998	 0.4350	 3.4346	64.2378	99.9053	
   171	 2.1087	-0.9976	 1.1111	 3.1064	 1.6106	-1.3188	 0.2919	 2.9294	 1.4934	-1.4640	 0.0294	 2.9574	63.0063	99.9158	
   172	 2.0764	-0.8840	 1.1924	 2.9605	 1.0415	-1.1689	-0.1275	 2.2104	 0.7303	-1.2189	-0.4886	 1.9491	60.8129	99.9324	
   173	 0.5734	-1.2520	-0.6785	 1.8254	-0.6366	-1.4745	-2.1110	 0.8379	-1.1299	-1.4357	-2.5656	 0.3058	58.8626	99.9316	
   174	-0.5327	-1.5005	-2.0332	 0.9679	-1.3624	-1.5081	-2.8705	 0.1457	-1.6526	-1.5051	-3.1577	-0.1474	59.2039	99.9099	
   175	 0.2268	-1.7106	-1.4838	 1.9374	-0.3772	-1.5836	-1.9608	 1.2064	-0.3795	-1.4753	-1.8548	 1.0958	60.2199	99.9206	
   176	 1.5754	-1.0510	 0.5244	 2.6265	 1.3221	-1.0245	 0.2976	 2.3467	 1.4595	-0.8786	 0.5809	 2.3380	61.7482	99.9262	
   177	 2.4115	-0.0927	 2.3188	 2.5041	 2.0538	-0.2020	 1.8518	 2.2558	 2.1343	-0.1223	 2.0120	 2.2565	61.7598	99.9304	
   178	 2.8237	 0.5529	 3.3766	 2.2708	 2.3871	 0.2783	 2.6654	 2.1088	 2.2534	 0.2640	 2.5174	 1.9894	61.6832	99.9233	
   179	 2.8569	 0.5876	 3.4444	 2.2694	 2.2357	 0.3007	 2.5364	 1.9349	 2.1300	 0.2454	 2.3754	 1.8845	61.5041	99.9293	
   180	 2.9107	 0.4425	 3.3533	 2.4682	 2.4338	 0.1672	 2.6010	 2.2666	 2.3980	 0.1271	 2.5251	 2.2709	62.0273	99.9284	
   181	 2.7257	-0.1852	 2.5404	 2.9109	 1.9926	-0.2263	 1.7663	 2.2189	 1.6375	-0.1424	 1.4951	 1.7799	59.9744	99.9157	
   182	 1.0476	-0.6136	 0.4340	 1.6613	 0.0805	-0.3314	-0.2509	 0.4118	-0.2475	 0.0634	-0.1842	-0.3109	56.8056	99.9335	
   183	 0.0071	-0.2764	-0.2692	 0.2835	-0.8757	-0.2130	-1.0887	-0.6628	-1.1611	-0.0070	-1.1680	-1.1541	57.5381	99.9286	
   184	-0.2415	-0.1298	-0.3713	-0.1117	-0.6915	 0.1011	-0.5903	-0.7926	-0.3308	 0.4843	 0.1535	-0.8151	58.7000	99.9516	
   185	 0.8889	 0.3992	 1.2880	 0.4897	 0.4457	 0.7002	 1.1459	-0.2546	 0.8445	 1.1059	 1.9504	-0.2613	58.7501	99.9519	
   186	 2.4773	 1.4238	 3.9011	 1.0535	 2.2444	 1.4841	 3.7285	 0.7602	 2.3848	 1.7911	 4.1759	 0.5936	59.8015	99.9391	
   187	 2.5716	 1.7018	 4.2734	 0.8698	 2.4270	 1.8859	 4.3130	 0.5410	 2.6876	 2.1203	 4.8078	 0.5673	59.9397	99.9297	
   188	 1.6567	 1.5235	 3.1802	 0.1333	 1.9383	 1.8184	 3.7566	 0.1199	 2.4328	 2.1569	 4.5897	 0.2759	60.3316	99.9286	
   189	 0.5999	 1.0534	 1.6533	-0.4534	 0.7965	 1.3685	 2.1649	-0.5720	 1.6146	 1.6729	 3.2874	-0.0583	60.6623	99.9432	
   190	-0.0744	 0.7236	 0.6492	-0.7979	-0.0355	 0.8779	 0.8424	-0.9135	 0.6410	 1.0051	 1.6461	-0.3641	60.9580	99.9356	
   191	-0.9453	 0.2318	-0.7136	-1.1771	-0.9731	 0.3995	-0.5735	-1.3726	-0.3302	 0.6081	 0.2779	-0.9383	60.3475	99.9412	
   192	-0.8411	 0.6782	-0.1629	-1.5193	-0.7339	 0.8609	 0.1271	-1.5948	-0.3767	 0.9503	 0.5736	-1.3270	60.0660	99.9090	
   193	 0.0397	 1.2055	 1.2452	-1.1657	-0.4043	 1.1616	 0.7573	-1.5659	-0.4888	 1.2640	 0.7751	-1.7528	58.6011	99.9212	
   194	 0.1483	 1.1966	 1.3450	-1.0483	-0.9160	 1.0421	 0.1262	-1.9581	-1.3470	 1.1374	-0.2096	-2.4844	56.7490	99.9315	
   195	-1.1832	 0.8280	-0.3552	-2.0111	-2.5634	 0.8058	-1.7577	-3.3692	-3.1770	 0.9388	-2.2382	-4.1158	54.3762	99.9274	
   196	-2.5236	 0.5721	-1.9515	-3.0957	-3.7444	 0.7122	-3.0321	-4.4566	-4.2212	 0.8230	-3.3982	-5.0443	54.0183	99.9154	
   197	-2.2023	 0.2032	-1.9991	-2.4054	-3.0704	 0.4231	-2.6473	-3.4936	-3.2871	 0.6140	-2.6731	-3.9012	55.5614	99.9196	
   198	-0.5099	 0.4777	-0.0322	-0.9875	-0.8516	 0.7770	-0.0746	-1.6287	-0.8278	 1.1373	 0.3095	-1.9652	57.4258	99.9250	
   199	 0.7302	 1.4120	 2.1421	-0.6818	 0.3757	 1.5574	 1.9331	-1.1817	 0.4558	 1.8245	 2.2803	-1.3686	58.3052	99.9311	
   200	 1.4773	 2.1841	 3.6614	-0.7068	 1.1320	 2.1161	 3.2481	-0.9842	 1.0164	 2.2871	 3.3035	-1.2708	58.6914	99.9247	
   201	 1.3318	 2.2300	 3.5619	-0.8982	 0.6325	 2.0927	 2.7252	-1.4602	 0.4045	 2.1862	 2.5907	-1.7817	57.9679	99.9293	
   202	 0.9377	 2.1566	 3.0943	-1.2189	 0.1002	 1.9608	 2.0610	-1.8606	-0.2313	 1.9585	 1.7271	-2.1898	57.7176	99.9233	
   203	 0.5660	 2.0670	 2.6330	-1.5010	-0.4512	 1.8426	 1.3914	-2.2939	-0.8618	 1.8350	 0.9732	-2.6968	57.0524	99.9267	
   204	 0.3299	 2.1620	 2.4919	-1.8321	-0.7037	 1.9559	 1.2522	-2.6597	-1.0907	 1.9209	 0.8302	-3.0116	56.8825	99.9250	
   205	 0.3614	 2.4320	 2.7933	-2.0706	-0.5600	 2.2582	 1.6982	-2.8182	-0.9029	 2.2814	 1.3785	-3.1844	56.7809	99.9266	
   206	 0.7322	 2.7721	 3.5043	-2.0399	-0.0025	 2.5954	 2.5928	-2.5979	-0.2906	 2.6183	 2.3278	-2.9089	57.3300	99.9231	
   207	 0.8669	 2.6755	 3.5423	-1.8086	 0.0839	 2.4830	 2.5669	-2.3991	-0.2448	 2.4890	 2.2442	-2.7338	57.3768	99.9221	
   208	 0.3488	 2.3506	 2.6993	-2.0018	-0.4017	 2.2399	 1.8383	-2.6416	-0.6036	 2.3167	 1.7130	-2.9203	57.2104	99.9291	
   209	 0.0067	 2.2344	 2.2411	-2.2277	-0.7236	 2.0706	 1.3469	-2.7942	-0.8655	 2.1021	 1.2366	-2.9676	57.6007	99.9306	
   210	-0.3982	 2.1102	 1.7120	-2.5084	-1.1267	 1.9915	 0.8648	-3.1182	-1.2094	 2.1072	 0.8978	-3.3166	57.1887	99.9380	
   211	-0.6371	 2.0263	 1.3893	-2.6634	-1.4671	 1.9630	 0.4959	-3.4300	-1.5418	 2.1080	 0.5662	-3.6498	56.6170	99.9411	
   212	-0.7618	 2.1584	 1.3966	-2.9202	-1.5344	 2.1755	 0.6411	-3.7100	-1.6010	 2.5435	 0.9425	-4.1445	55.6454	99.9522	
   213	-0.8282	 2.3550	 1.5268	-3.1832	-1.5698	 2.5975	 1.0277	-4.1674	-1.7343	 3.2371	 1.5028	-4.9714	53.7686	99.9548	
   214	-1.1855	 2.9093	 1.7238	-4.0947	-1.7744	 3.5379	 1.7635	-5.3123	-1.9431	 4.5022	 2.5591	-6.4453	51.4139	99.9536	
   215	-1.1629	 3.6909	 2.5280	-4.8537	-1.5698	 4.4344	 2.8647	-6.0042	-1.7935	 5.3671	 3.5736	-7.1606	50.9641	99.9371	
   216	-1.2132	 3.6312	 2.4181	-4.8444	-1.7113	 4.3995	 2.6883	-6.1108	-1.9458	 5.3534	 3.4076	-7.2993	50.5911	99.9400	
   217	-1.1250	 4.3339	 3.2089	-5.4589	-1.3131	 5.1977	 3.8847	-6.5108	-1.4914	 6.1334	 4.6420	-7.6249	50.8478	99.9255	
   218	-0.8109	 3.7095	 2.8986	-4.5204	-1.5100	 4.2045	 2.6945	-5.7146	-1.7554	 4.9749	 3.2196	-6.7303	51.5793	99.9470	
   219	-0.9778	 4.1857	 3.2079	-5.1635	-1.3091	 4.9214	 3.6123	-6.2306	-1.5064	 5.9560	 4.4496	-7.4624	50.7247	99.9440	
   220	-0.5855	 4.0956	 3.5101	-4.6811	-1.0459	 4.6499	 3.6040	-5.6958	-1.2828	 5.5415	 4.2586	-6.8243	51.5355	99.9453	
   221	-0.6017	 4.0859	 3.4842	-4.6875	-1.0551	 4.7204	 3.6652	-5.7755	-1.2961	 5.6232	 4.3271	-6.9193	51.2776	99.9417	
   222	-0.5953	 4.3260	 3.7307	-4.9213	-1.0361	 4.9346	 3.8985	-5.9706	-1.2775	 5.8701	 4.5926	-7.1477	51.1284	99.9450	
   223	-0.6052	 4.4235	 3.8183	-5.0287	-1.0958	 5.0505	 3.9547	-6.1463	-1.3583	 6.0008	 4.6425	-7.3591	50.7883	99.9458	
   224	-0.6734	 4.5895	 3.9161	-5.2629	-1.1326	 5.2182	 4.0857	-6.3508	-1.4174	 6.2119	 4.7946	-7.6293	50.5286	99.9466	
   225	-0.6114	 4.7152	 4.1038	-5.3266	-1.0347	 5.4167	 4.3820	-6.4515	-1.2880	 6.4585	 5.1706	-7.7465	50.3070	99.9469	
   226	-0.4534	 4.8837	 4.4303	-5.3370	-0.8925	 5.5788	 4.6862	-6.4713	-1.1609	 6.5467	 5.3857	-7.7076	50.4402	99.9419	
   227	-0.4929	 4.8748	 4.3819	-5.3677	-0.9667	 5.5592	 4.5925	-6.5260	-1.2597	 6.5542	 5.2945	-7.8139	50.2305	99.9443	
   228	-0.5916	 4.9191	 4.3274	-5.5107	-1.0631	 5.6149	 4.5518	-6.6781	-1.3826	 6.6594	 5.2768	-8.0420	49.9100	99.9458	
   229	-0.6958	 5.0044	 4.3087	-5.7002	-1.1695	 5.7280	 4.5585	-6.8975	-1.4543	 6.7394	 5.2852	-8.1937	49.8838	99.9439	
   230	-0.7846	 5.0842	 4.2996	-5.8688	-1.2774	 5.8147	 4.5374	-7.0921	-1.5832	 6.8410	 5.2578	-8.4242	49.6159	99.9442	
   231	-0.8735	 5.1639	 4.2904	-6.0374	-1.3501	 5.9354	 4.5854	-7.2855	-1.6332	 7.0015	 5.3682	-8.6347	49.3792	99.9455	
   232	-0.7406	 5.3026	 4.5620	-6.0431	-1.2101	 6.0581	 4.8479	-7.2682	-1.4827	 7.0926	 5.6099	-8.5753	49.5449	99.9445	
   233	-0.7038	 5.2655	 4.5617	-5.9693	-1.2338	 5.9931	 4.7592	-7.2269	-1.5116	 6.9853	 5.4737	-8.4969	49.6254	99.9447	
   234	-0.8196	 5.2848	 4.4652	-6.1044	-1.3616	 5.9665	 4.6049	-7.3281	-1.6459	 6.9826	 5.3367	-8.6285	49.5565	99.9486	
   235	-0.9309	 5.2477	 4.3168	-6.1786	-1.5023	 5.9447	 4.4424	-7.4470	-1.7820	 6.9451	 5.1632	-8.7271	49.4516	99.9479	
   236	-1.0387	 5.2719	 4.2332	-6.3105	-1.6323	 5.9927	 4.3604	-7.6251	-1.9078	 6.9924	 5.0845	-8.9002	49.2585	99.9476	
   237	-1.1751	 5.3379	 4.1627	-6.5130	-1.7234	 6.0263	 4.3030	-7.7497	-2.0193	 7.0932	 5.0740	-9.1125	49.0946	99.9511	
   238	-1.1985	 5.4716	 4.2732	-6.6701	-1.7059	 6.2143	 4.5084	-7.9202	-1.9435	 7.3187	 5.3752	-9.2622	48.9842	99.9526	
   239	-1.0521	 5.5740	 4.5219	-6.6261	-1.5774	 6.3680	 4.7906	-7.9454	-1.8430	 7.4581	 5.6151	-9.3010	48.7914	99.9486	
   240	-1.1086	 5.6731	 4.5645	-6.7817	-1.6448	 6.4666	 4.8218	-8.1114	-1.9201	 7.5460	 5.6260	-9.4661	48.6702	99.9478	
   241	-1.1912	 5.7271	 4.5358	-6.9183	-1.7213	 6.5217	 4.8004	-8.2430	-1.9930	 7.6029	 5.6100	-9.5959	48.5993	99.9478	
   242	-1.2675	 5.7552	 4.4877	-7.0227	-1.7848	 6.5719	 4.7871	-8.3567	-2.0972	 7.7306	 5.6334	-9.8278	48.1898	99.9496	
   243	-1.3600	 5.9067	 4.5467	-7.2666	-1.8369	 6.8191	 4.9822	-8.6560	-2.0931	 8.0361	 5.9430	-10.1292	47.8556	99.9504	
   244	-1.3518	 6.1774	 4.8256	-7.5293	-1.7698	 7.2904	 5.5206	-9.0602	-2.0192	 8.6755	 6.6563	-10.6948	46.8638	99.9509	
   245	-1.0699	 6.5973	 5.5275	-7.6672	-1.4442	 7.8674	 6.4232	-9.3116	-1.6966	 9.2748	 7.5781	-10.9714	46.4060	99.9438	
   246	-0.8983	 6.8625	 5.9642	-7.7608	-1.3058	 8.1917	 6.8859	-9.4976	-1.6155	 9.6044	 7.9890	-11.2199	45.9554	99.9398	
   247	-0.8956	 6.9084	 6.0128	-7.8040	-1.3043	 8.1040	 6.7997	-9.4083	-1.6648	 9.4399	 7.7752	-11.1047	46.3469	99.9384	
   248	-0.8042	 6.3428	 5.5386	-7.1469	-1.1570	 7.0910	 5.9340	-8.2480	-1.3902	 7.8667	 6.4765	-9.2570	49.9380	99.9233	
   249	-0.7999	 5.2228	 4.4229	-6.0226	-1.2277	 5.8701	 4.6425	-7.0978	-1.5512	 6.5574	 5.0062	-8.1085	50.8203	99.9185	
   250	-0.8709	 4.9440	 4.0731	-5.8148	-1.6435	 5.2259	 3.5824	-6.8694	-2.0754	 5.6678	 3.5924	-7.7432	51.6179	99.9258	
   251	-1.3019	 4.5087	 3.2068	-5.8105	-2.2254	 4.6966	 2.4712	-6.9220	-2.5190	 4.9841	 2.4651	-7.5031	52.3719	99.9312	
   252	-1.4258	 4.2573	 2.8314	-5.6830	-2.3721	 4.4558	 2.0837	-6.8280	-2.6400	 4.7874	 2.1475	-7.4274	52.3174	99.9363	
   253	-1.4644	 4.2637	 2.7993	-5.7281	-2.3768	 4.6050	 2.2283	-6.9818	-2.5624	 5.0476	 2.4853	-7.6100	51.8185	99.9404	
   254	-1.2929	 4.5288	 3.2360	-5.8217	-2.0457	 4.9320	 2.8862	-6.9777	-2.2680	 5.3268	 3.0588	-7.5948	52.0035	99.9254	
   255	-1.5740	 3.9913	 2.4173	-5.5653	-2.7345	 4.0466	 1.3121	-6.7812	-3.2317	 4.0590	 0.8273	-7.2907	52.7083	99.9108	
   256	-3.1526	 2.6032	-0.5493	-5.7558	-4.6226	 2.8667	-1.7559	-7.4893	-5.2857	 3.4780	-1.8076	-8.7637	48.8929	99.9507	
   257	-4.6212	 3.7478	-0.8734	-8.3689	-5.3651	 4.3811	-0.9840	-9.7462	-5.5813	 4.9824	-0.5989	-10.5637	49.1670	99.9270	
   258	-4.4739	 4.1314	-0.3425	-8.6052	-5.2077	 4.8057	-0.4020	-10.0134	-5.4387	 5.5961	 0.1573	-11.0348	48.3099	99.9393	
   259	-4.0105	 4.8519	 0.8414	-8.8623	-4.4409	 5.7762	 1.3353	-10.2171	-4.3949	 6.8338	 2.4388	-11.2287	48.1607	99.9502	
   260	-3.3631	 4.9883	 1.6251	-8.3514	-3.6056	 5.7493	 2.1437	-9.3550	-3.6686	 6.6674	 2.9988	-10.3360	49.5228	99.9369	
   261	-3.1556	 5.5999	 2.4443	-8.7555	-3.5065	 6.5440	 3.0375	-10.0505	-3.4913	 7.6163	 4.1250	-11.1076	48.2354	99.9470	
   262	-2.8091	 5.3938	 2.5846	-8.2028	-3.2585	 6.1239	 2.8654	-9.3825	-3.3471	 6.9068	 3.5597	-10.2539	49.4816	99.9347	
   263	-2.8074	 4.8926	 2.0852	-7.6999	-3.2384	 5.4394	 2.2010	-8.6778	-3.3347	 6.0166	 2.6818	-9.3513	50.9658	99.9267	
   264	-2.9180	 3.8071	 0.8891	-6.7252	-3.6870	 4.4587	 0.7717	-8.1457	-3.7488	 5.1151	 1.3664	-8.8639	50.3501	99.9408	
   265	-3.0258	 3.5654	 0.5396	-6.5912	-3.9086	 4.0712	 0.1626	-7.9799	-4.0058	 4.6566	 0.6509	-8.6624	50.7084	99.9449	
   266	-3.3141	 3.3042	-0.0098	-6.6182	-4.2894	 3.8029	-0.4865	-8.0924	-4.3790	 4.4307	 0.0516	-8.8098	50.3833	99.9514	
   267	-3.4703	 3.2993	-0.1710	-6.7696	-4.3912	 3.7667	-0.6244	-8.1579	-4.4844	 4.3108	-0.1736	-8.7952	50.7616	99.9448	
   268	-3.5736	 2.7353	-0.8384	-6.3089	-4.6165	 2.9717	-1.6448	-7.5882	-5.0273	 3.3987	-1.6285	-8.4260	51.0112	99.9356	
   269	-5.0370	 2.9080	-2.1290	-7.9450	-5.8751	 3.8320	-2.0431	-9.7071	-6.0497	 4.7213	-1.3284	-10.7710	47.6435	99.9394	
   270	-5.0736	 3.8757	-1.1979	-8.9493	-5.6986	 4.4708	-1.2279	-10.1694	-5.7939	 5.0445	-0.7494	-10.8384	49.6055	99.9289	
   271	-4.7979	 4.3214	-0.4765	-9.1193	-5.2736	 5.0445	-0.2290	-10.3181	-5.2184	 5.7967	 0.5783	-11.0152	49.3568	99.9394	
   272	-4.3148	 4.7140	 0.3991	-9.0288	-4.7253	 5.4521	 0.7268	-10.1775	-4.6826	 6.2332	 1.5507	-10.9158	49.4051	99.9384	
   273	-4.2403	 4.7881	 0.5478	-9.0284	-4.7009	 5.5303	 0.8294	-10.2312	-4.5453	 6.1817	 1.6364	-10.7270	49.9204	99.9356	
   274	-3.8794	 4.5610	 0.6816	-8.4404	-4.3527	 5.2341	 0.8814	-9.5869	-4.1621	 5.6954	 1.5333	-9.8575	51.1089	99.9262	
   275	-3.5761	 4.0189	 0.4428	-7.5949	-4.6682	 4.2579	-0.4104	-8.9261	-4.8982	 4.5429	-0.3553	-9.4411	50.8427	99.9359	
   276	-3.8752	 3.4410	-0.4341	-7.3161	-5.1888	 3.5250	-1.6639	-8.7138	-5.6416	 3.7002	-1.9414	-9.3419	50.7016	99.9310	
   277	-4.2622	 2.9582	-1.3040	-7.2204	-5.6155	 3.1529	-2.4626	-8.7684	-5.9921	 3.4657	-2.5263	-9.4578	50.1197	99.9413	
   278	-4.1203	 2.9841	-1.1363	-7.1044	-5.3899	 3.1500	-2.2398	-8.5399	-5.7590	 3.4609	-2.2981	-9.2199	50.5424	99.9403	
   279	-4.0835	 2.9470	-1.1365	-7.0305	-5.4036	 3.1417	-2.2619	-8.5453	-5.8017	 3.4238	-2.3780	-9.2255	50.3785	99.9365	
   280	-4.3484	 2.8180	-1.5304	-7.1664	-5.7493	 2.9073	-2.8419	-8.6566	-6.3111	 3.1604	-3.1507	-9.4715	50.0425	99.9340	
   281	-4.7992	 2.5777	-2.2214	-7.3768	-6.3503	 2.6198	-3.7306	-8.9701	-7.0096	 2.8499	-4.1597	-9.8595	49.4331	99.9346	
   282	-5.2346	 2.3318	-2.9028	-7.5664	-6.8933	 2.3040	-4.5892	-9.1973	-7.6990	 2.4888	-5.2102	-10.1878	48.9464	99.9300	
   283	-6.2007	 2.0785	-4.1222	-8.2792	-7.9657	 2.4788	-5.4869	-10.4446	-8.6477	 2.9807	-5.6670	-11.6284	46.0928	99.9423	
   284	-6.2344	 4.2887	-1.9457	-10.5231	-6.6872	 5.4056	-1.2816	-12.0929	-6.0503	 6.5164	 0.4661	-12.5668	47.8856	99.9677	
   285	-3.3064	 6.0857	 2.7794	-9.3921	-3.3194	 7.1386	 3.8192	-10.4580	-2.9187	 7.8619	 4.9432	-10.7806	50.2571	99.9226	
   286	-2.9752	 5.3534	 2.3782	-8.3286	-3.9720	 5.7304	 1.7584	-9.7024	-4.4026	 6.3466	 1.9440	-10.7492	48.5998	99.9419	
   287	-4.2178	 5.1709	 0.9531	-9.3887	-4.8761	 5.7156	 0.8395	-10.5918	-4.7832	 6.3182	 1.5351	-11.1014	49.7179	99.9459	
   288	-4.4862	 5.3795	 0.8933	-9.8657	-5.0620	 5.8312	 0.7692	-10.8933	-5.0356	 6.5134	 1.4778	-11.5490	49.4816	99.9504	
   289	-4.4718	 5.6245	 1.1527	-10.0962	-5.1041	 5.9071	 0.8030	-11.0112	-5.1181	 6.4971	 1.3790	-11.6152	49.8311	99.9521	
   290	-4.3640	 5.9992	 1.6352	-10.3631	-4.8649	 6.4825	 1.6175	-11.3474	-4.7214	 7.0626	 2.3412	-11.7840	49.8265	99.9449	
   291	-3.8557	 6.8204	 2.9648	-10.6761	-4.2855	 7.3143	 3.0288	-11.5998	-4.1665	 7.9820	 3.8155	-12.1485	49.4262	99.9478	
   292	-3.4498	 7.3588	 3.9091	-10.8086	-3.8666	 8.0111	 4.1445	-11.8777	-3.6742	 8.8186	 5.1444	-12.4928	48.7056	99.9532	
   293	-2.6381	 7.9038	 5.2657	-10.5418	-2.8519	 8.6755	 5.8236	-11.5273	-2.9311	 9.0887	 6.1576	-12.0199	49.4386	99.8919	
   294	-2.6821	 7.6854	 5.0033	-10.3675	-3.0927	 8.3018	 5.2092	-11.3945	-3.0907	 9.0483	 5.9576	-12.1390	48.7765	99.9422	
   295	-2.6058	 7.7902	 5.1844	-10.3959	-3.0194	 8.6502	 5.6308	-11.6695	-3.0131	 9.4206	 6.4075	-12.4338	48.0259	99.9318	
   296	-2.4935	 8.1085	 5.6150	-10.6020	-2.7862	 9.0065	 6.2203	-11.7928	-2.8338	 9.8434	 7.0096	-12.6772	47.7753	99.9280	
   297	-2.2448	 7.9619	 5.7171	-10.2067	-2.8144	 8.6348	 5.8204	-11.4492	-2.9916	 9.7255	 6.7339	-12.7170	46.9268	99.9594	
   298	-2.3767	 8.2375	 5.8607	-10.6142	-2.8673	 9.0968	 6.2295	-11.9642	-2.8532	10.0337	 7.1805	-12.8868	47.2612	99.9473	
   299	-2.1720	 8.5373	 6.3653	-10.7092	-2.7489	 9.4218	 6.6729	-12.1707	-2.7810	10.3018	 7.5208	-13.0828	46.9500	99.9429	
   300	-2.0534	 8.8298	 6.7764	-10.8832	-2.6083	 9.7855	 7.1772	-12.3939	-2.6432	10.7106	 8.0674	-13.3538	46.5779	99.9420	
   301	-1.8244	 9.2771	 7.4527	-11.1015	-2.2942	10.5076	 8.2133	-12.8018	-2.3400	11.5001	 9.1601	-13.8401	45.7336	99.9300	
   302	-1.5649	 9.5802	 8.0153	-11.1450	-2.0275	10.9856	 8.9581	-13.0131	-2.2377	11.8986	 9.6609	-14.1364	45.0701	99.9040	
   303	-1.7355	 9.4633	 7.7278	-11.1987	-2.2095	10.9388	 8.7294	-13.1484	-2.3991	11.8234	 9.4243	-14.2225	44.9505	99.8986	
   304	-1.8450	 9.4568	 7.6118	-11.3018	-2.2913	10.9020	 8.6107	-13.1934	-2.4743	11.7218	 9.2474	-14.1961	45.2163	99.8934	
   305	-1.8306	 9.5688	 7.7382	-11.3994	-2.3303	10.9164	 8.5861	-13.2468	-2.5316	11.7432	 9.2117	-14.2748	45.2091	99.9015	
   306	-1.8719	 9.6622	 7.7903	-11.5341	-2.3939	11.0807	 8.6868	-13.4746	-2.6575	12.0149	 9.3574	-14.6724	44.4526	99.9041	
   307	-1.9168	 9.6945	 7.7777	-11.6112	-2.4506	11.2491	 8.7985	-13.6997	-2.6931	12.1168	 9.4237	-14.8099	44.2502	99.8911	
   308	-2.0560	 9.7146	 7.6586	-11.7705	-2.5500	11.2523	 8.7023	-13.8023	-2.8647	12.1812	 9.3165	-15.0460	43.9533	99.8915	
   309	-2.2113	 9.7250	 7.5137	-11.9362	-2.7451	11.3243	 8.5793	-14.0694	-3.0743	12.3013	 9.2269	-15.3756	43.4300	99.8928	
   310	-2.3325	 9.7854	 7.4529	-12.1178	-2.8514	11.4373	 8.5859	-14.2888	-3.0948	12.3562	 9.2613	-15.4510	43.5884	99.8888	
   311	-2.1394	 9.8862	 7.7467	-12.0256	-2.6763	11.5939	 8.9176	-14.2703	-2.9516	12.5327	 9.5811	-15.4843	43.3333	99.8861	
   312	-2.1520	 9.9377	 7.7857	-12.0897	-2.7238	11.6919	 8.9681	-14.4157	-3.0383	12.6597	 9.6214	-15.6981	42.9142	99.8848	
   313	-2.2929	 9.9272	 7.6343	-12.2201	-2.8714	11.6659	 8.7945	-14.5374	-3.2672	12.7456	 9.4784	-16.0128	42.3606	99.8915	
   314	-2.4303	 9.9779	 7.5476	-12.4082	-3.0145	11.7188	 8.7043	-14.7332	-3.4389	12.8101	 9.3712	-16.2489	42.1175	99.8907	
   315	-2.5497	10.0689	 7.5193	-12.6186	-3.1530	11.8504	 8.6974	-15.0033	-3.5419	12.8487	 9.3069	-16.3906	42.1588	99.8821	
   316	-2.6089	10.1221	 7.5132	-12.7310	-3.2746	11.9288	 8.6542	-15.2034	-3.7111	12.9595	 9.2484	-16.6706	41.6564	99.8832	
   317	-2.7481	10.1422	 7.3941	-12.8902	-3.4154	12.0210	 8.6056	-15.4364	-3.7979	13.0865	 9.2887	-16.8844	41.4259	99.8856	
   318	-2.6906	10.1914	 7.5008	-12.8819	-3.3007	12.0524	 8.7517	-15.3531	-3.6944	13.2838	 9.5895	-16.9782	41.1915	99.8995	
   319	-2.6735	10.2164	 7.5428	-12.8899	-3.3611	12.1552	 8.7940	-15.5163	-3.6631	13.3252	 9.6622	-16.9883	41.1853	99.8981	
   320	-2.7184	10.2486	 7.5301	-12.9670	-3.4499	12.2282	 8.7783	-15.6781	-3.8552	13.4446	 9.5894	-17.2998	40.5365	99.8951	
   321	-2.7768	10.3170	 7.5403	-13.0938	-3.5432	12.3364	 8.7931	-15.8796	-3.9606	13.4369	 9.4763	-17.3976	40.5191	99.8820	
   322	-2.8495	10.4065	 7.5570	-13.2559	-3.5930	12.3950	 8.8020	-15.9880	-4.0865	13.4842	 9.3977	-17.5707	40.3802	99.8766	
   323	-2.9572	10.4306	 7.4734	-13.3878	-3.7100	12.4382	 8.7282	-16.1482	-4.2190	13.6284	 9.4094	-17.8474	39.9352	99.8848	
   324	-3.1116	10.4563	 7.3447	-13.5679	-3.9311	12.5198	 8.5887	-16.4510	-4.4142	13.8021	 9.3879	-18.2163	39.3493	99.8946	
   325	-3.2615	10.5586	 7.2971	-13.8201	-4.0979	12.6216	 8.5237	-16.7195	-4.5852	13.7659	 9.1807	-18.3511	39.4674	99.8816	
   326	-3.2005	10.6690	 7.4686	-13.8695	-4.0107	12.7503	 8.7396	-16.7611	-4.4829	13.8278	 9.3450	-18.3107	39.6737	99.8736	
   327	-2.9482	10.8496	 7.9014	-13.7977	-3.8127	12.9588	 9.1461	-16.7715	-4.3498	14.0318	 9.6819	-18.3816	39.3616	99.8696	
   328	-2.8727	11.0720	 8.1993	-13.9447	-3.7952	13.0328	 9.2376	-16.8279	-4.3932	14.0953	 9.7021	-18.4885	39.3483	99.8773	
   329	-3.0119	11.0921	 8.0803	-14.1039	-4.1668	12.8080	 8.6412	-16.9748	-4.6792	13.7539	 9.0748	-18.4331	39.7295	99.8975	
   330	-3.3854	10.8390	 7.4536	-14.2243	-4.5575	12.3690	 7.8115	-16.9265	-5.0458	13.3188	 8.2731	-18.3646	40.0968	99.9109	
   331	-3.6916	10.6705	 6.9789	-14.3620	-4.8022	12.1577	 7.3555	-16.9599	-5.2119	13.1509	 7.9390	-18.3629	40.3707	99.9190	
   332	-3.7239	10.7841	 7.0602	-14.5079	-4.8955	12.2659	 7.3703	-17.1614	-5.2909	13.3164	 8.0255	-18.6073	40.0218	99.9270	
   333	-3.7831	10.9702	 7.1871	-14.7532	-4.9652	12.4391	 7.4739	-17.4043	-5.4210	13.5069	 8.0859	-18.9280	39.6628	99.9264	
   334	-3.8567	11.0443	 7.1876	-14.9010	-4.9997	12.5323	 7.5326	-17.5319	-5.5102	13.5876	 8.0775	-19.0978	39.5081	99.9198	
   335	-3.7202	11.1112	 7.3910	-14.8314	-4.7679	12.6344	 7.8665	-17.4024	-5.2808	13.7377	 8.4569	-19.0185	39.6124	99.9182	
   336	-3.5137	11.1758	 7.6621	-14.6894	-4.5661	12.7945	 8.2284	-17.3606	-5.0592	13.8493	 8.7902	-18.9086	39.6408	99.9100	
   337	-3.3934	11.2330	 7.8396	-14.6264	-4.4789	12.9232	 8.4443	-17.4022	-4.9888	13.9705	 8.9817	-18.9593	39.3947	99.9055	
   338	-3.3826	11.2838	 7.9012	-14.6664	-4.4246	12.9434	 8.5188	-17.3680	-4.9611	14.0546	 9.0935	-19.0157	39.3367	99.9098	
   339	-3.2569	11.2999	 8.0430	-14.5568	-4.3138	13.0231	 8.7094	-17.3369	-4.8618	14.1708	 9.3090	-19.0326	39.0956	99.9093	
   340	-3.2461	11.3507	 8.1046	-14.5968	-4.3375	13.0721	 8.7346	-17.4096	-4.8847	14.1794	 9.2948	-19.0641	39.0842	99.9072	
   341	-3.2668	11.3974	 8.1307	-14.6642	-4.3719	13.1653	 8.7933	-17.5372	-4.9082	14.2886	 9.3804	-19.1968	38.8821	99.9072	
   342	-3.2793	11.4490	 8.1697	-14.7283	-4.4064	13.2585	 8.8521	-17.6649	-5.0058	14.4315	 9.4257	-19.4373	38.3865	99.9062	
   343	-3.3099	11.4603	 8.1504	-14.7701	-4.4454	13.2729	 8.8275	-17.7183	-5.0287	14.4401	 9.4114	-19.4688	38.3865	99.9068	
   344	-3.1734	11.3942	 8.2208	-14.5676	-4.2649	13.2934	 9.0285	-17.5583	-4.7547	14.4376	 9.6830	-19.1923	38.7429	99.9035	
   345	-3.0253	11.3943	 8.3690	-14.4195	-4.1043	13.3145	 9.2102	-17.4188	-4.5860	14.4275	 9.8414	-19.0135	38.9248	99.8995	
   346	-2.9903	11.3266	 8.3363	-14.3168	-4.0676	13.2607	 9.1932	-17.3283	-4.6089	14.4361	 9.8271	-19.0450	38.6450	99.9006	
   347	-2.9903	11.3266	 8.3363	-14.3168	-4.0676	13.2607	 9.1932	-17.3283	-4.6089	14.4361	 9.8271	-19.0450	38.6450	99.9006	
   348	-2.9903	11.3266	 8.3363	-14.3168	-4.0698	13.2213	 9.1515	-17.2912	-4.5830	14.3732	 9.7902	-18.9562	38.8680	99.9026	
   349	-3.0360	11.3435	 8.3075	-14.3795	-4.1479	13.2501	 9.1023	-17.3980	-4.6860	14.4119	 9.7258	-19.0979	38.6176	99.9026	
   350	-3.0666	11.3548	 8.2882	-14.4213	-4.1869	13.2645	 9.0777	-17.4514	-4.7318	14.4290	 9.6973	-19.1608	38.5340	99.9025	
   351	-3.0962	11.3814	 8.2852	-14.4775	-4.2152	13.2348	 9.0196	-17.4500	-4.7884	14.3499	 9.5615	-19.1383	38.6806	99.8996	
   352	-3.2300	11.3604	 8.1304	-14.5903	-4.3414	13.2344	 8.8931	-17.5758	-4.9287	14.4557	 9.5270	-19.3845	38.2749	99.9067	
   353	-2.9624	11.4024	 8.4399	-14.3647	-4.0018	13.3638	 9.3620	-17.3656	-4.5066	14.6102	10.1036	-19.1168	38.5871	99.9061	
   354	-2.6554	11.4532	 8.7979	-14.1086	-3.6905	13.4634	 9.7729	-17.1540	-4.2037	14.7149	10.5112	-18.9187	38.6264	99.9033	
   355	-2.5692	11.3276	 8.7584	-13.8967	-3.6125	13.4346	 9.8221	-17.0471	-4.1549	14.6435	10.4886	-18.7984	38.5253	99.8919	
   356	-2.6716	11.1776	 8.5061	-13.8492	-3.6744	13.2831	 9.6087	-16.9576	-4.1976	14.4942	10.2966	-18.6919	38.7013	99.8915	
   357	-2.7721	11.0584	 8.2862	-13.8305	-3.7294	13.1359	 9.4064	-16.8653	-4.2343	14.3486	10.1142	-18.5829	38.9372	99.8924	
   358	-2.9131	10.9149	 8.0018	-13.8280	-3.8365	13.0078	 9.1713	-16.8443	-4.3451	14.2366	 9.8915	-18.5817	38.9297	99.8911	
   359	-3.0667	10.8230	 7.7563	-13.8896	-3.9603	12.9329	 8.9725	-16.8932	-4.4420	14.1668	 9.7247	-18.6088	38.9784	99.8907	
   360	-3.1699	10.7907	 7.6208	-13.9606	-4.0819	12.8973	 8.8154	-16.9793	-4.5673	14.1134	 9.5461	-18.6807	38.9182	99.8896	
   361	-3.2759	10.7125	 7.4366	-13.9884	-4.1928	12.8176	 8.6248	-17.0104	-4.6901	14.1064	 9.4163	-18.7965	38.6743	99.8959	
   362	-3.1996	10.6843	 7.4848	-13.8839	-3.9955	12.7849	 8.7895	-16.7804	-4.3956	14.0490	 9.6533	-18.4446	39.4002	99.8951	
   363	-2.9275	10.6699	 7.7424	-13.5974	-3.7285	12.8070	 9.0785	-16.5356	-4.1475	14.1093	 9.9618	-18.2569	39.3471	99.8956	
   364	-2.8997	10.6127	 7.7130	-13.5124	-3.6551	12.6995	 9.0444	-16.3545	-4.0728	13.9750	 9.9022	-18.0478	39.7082	99.8944	
   365	-3.0075	10.5039	 7.4964	-13.5113	-3.7009	12.5957	 8.8948	-16.2966	-4.1553	13.9587	 9.8034	-18.1141	39.5437	99.8971	
   366	-3.0802	10.4604	 7.3802	-13.5405	-3.7315	12.5266	 8.7951	-16.2581	-4.1264	13.8416	 9.7152	-17.9680	39.9668	99.8961	
   367	-3.1296	10.4160	 7.2864	-13.5456	-3.8141	12.4766	 8.6625	-16.2907	-4.2401	13.7839	 9.5438	-18.0241	39.8205	99.8951	
   368	-3.2400	10.3942	 7.1542	-13.6342	-3.9028	12.4356	 8.5328	-16.3384	-4.3570	13.7806	 9.4236	-18.1376	39.6981	99.8969	
   369	-3.3119	10.3660	 7.0542	-13.6778	-3.9984	12.3905	 8.3921	-16.3889	-4.4364	13.7100	 9.2736	-18.1465	39.7479	99.8975	
   370	-3.3918	10.3330	 6.9412	-13.7247	-4.0503	12.2957	 8.2453	-16.3461	-4.5189	13.6938	 9.1748	-18.2127	39.6661	99.9052	
   371	-3.2346	10.3532	 7.1185	-13.5878	-3.8010	12.3578	 8.5568	-16.1588	-4.1600	13.7539	 9.5938	-17.9139	40.1982	99.9057	
   372	-2.8971	10.3927	 7.4957	-13.2898	-3.5081	12.4843	 8.9762	-15.9924	-3.9035	13.8642	 9.9607	-17.7678	40.0146	99.8989	
   373	-2.7741	10.3630	 7.5889	-13.1370	-3.3911	12.4411	 9.0500	-15.8322	-3.8463	13.8427	 9.9964	-17.6891	39.9193	99.8983	
   374	-2.7920	10.3227	 7.5306	-13.1147	-3.3956	12.3623	 8.9667	-15.7580	-3.8288	13.7299	 9.9011	-17.5587	40.1982	99.8983	
   375	-2.7445	10.3364	 7.5919	-13.0808	-3.3673	12.3921	 9.0248	-15.7595	-3.8318	13.7842	 9.9523	-17.6160	39.9908	99.8984	
   376	-2.7651	10.2502	 7.4851	-13.0153	-3.4109	12.2137	 8.8029	-15.6246	-3.8649	13.5958	 9.7309	-17.4608	40.2396	99.9046	
   377	-2.9357	10.1333	 7.1976	-13.0690	-3.5217	12.1340	 8.6123	-15.6558	-3.9558	13.5296	 9.5738	-17.4854	40.2822	99.9021	
   378	-3.0614	10.1171	 7.0557	-13.1785	-3.5822	12.1228	 8.5406	-15.7050	-3.9787	13.5382	 9.5595	-17.5169	40.4197	99.9031	
   379	-3.0398	10.2187	 7.1788	-13.2585	-3.6082	12.2464	 8.6382	-15.8546	-4.0016	13.5468	 9.5452	-17.5484	40.4831	99.8935	
   380	-2.9133	10.2501	 7.3369	-13.1633	-3.4324	12.4161	 8.9837	-15.8485	-3.8059	13.7213	 9.9154	-17.5273	40.3849	99.8846	
   381	-2.6098	10.2397	 7.6299	-12.8495	-3.2106	12.5756	 9.3649	-15.7862	-3.6164	14.1166	10.5002	-17.7330	39.3281	99.8979	
   382	-2.3027	10.2906	 7.9879	-12.5933	-3.0393	12.5525	 9.5132	-15.5918	-3.0337	13.0890	10.0553	-16.1226	42.8173	99.8317	
   383	-2.5667	10.1769	 7.6102	-12.7436	-3.0377	12.3508	 9.3131	-15.3885	-3.4754	13.9101	10.4348	-17.3855	39.9865	99.9018	
   384	-2.5811	10.1979	 7.6168	-12.7789	-3.0422	12.2720	 9.2298	-15.3143	-3.5121	13.7645	10.2524	-17.2766	40.3032	99.8993	
   385	-2.6601	10.1801	 7.5200	-12.8402	-3.1485	12.2711	 9.1225	-15.4196	-3.6174	13.7568	10.1394	-17.3743	40.1685	99.8988	
   386	-2.7813	10.1075	 7.3262	-12.8888	-3.2288	12.1465	 8.9177	-15.3753	-3.6824	13.6277	 9.9453	-17.3102	40.4129	99.9006	
   387	-2.8926	10.0704	 7.1778	-12.9630	-3.3397	12.0668	 8.7271	-15.4065	-3.8191	13.5787	 9.7595	-17.3978	40.3235	99.9041	
   388	-3.0049	10.0180	 7.0132	-13.0229	-3.4674	12.0402	 8.5728	-15.5076	-3.8299	13.4823	 9.6524	-17.3123	40.6509	99.9042	
   389	-2.8334	10.0173	 7.1839	-12.8506	-3.2311	12.1071	 8.8761	-15.3382	-3.5108	13.5633	10.0525	-17.0741	40.9499	99.9041	
   390	-2.6476	 9.9956	 7.3480	-12.6431	-3.0337	12.0745	 9.0408	-15.1082	-3.3711	13.5581	10.1870	-16.9292	40.9237	99.9033	
   391	-2.6314	10.0053	 7.3739	-12.6366	-3.0077	12.0649	 9.0572	-15.0726	-3.4199	13.6295	10.2096	-17.0494	40.6130	99.9064	
   392	-2.5649	10.0746	 7.5096	-12.6395	-2.9925	12.2134	 9.2210	-15.2059	-3.3862	13.7172	10.3311	-17.1034	40.4879	99.8998	
   393	-2.3315	10.1995	 7.8681	-12.5310	-2.8250	12.3527	 9.5277	-15.1778	-3.2923	13.8414	10.5491	-17.1337	40.2080	99.8959	
   394	-2.2597	10.2278	 7.9681	-12.4874	-2.7967	12.3825	 9.5858	-15.1793	-3.3128	13.8963	10.5836	-17.2091	39.9344	99.8969	
   395	-2.2758	10.2181	 7.9423	-12.4939	-2.7990	12.3431	 9.5441	-15.1422	-3.3495	13.8629	10.5134	-17.2124	39.9319	99.8964	
   396	-2.3656	10.1496	 7.7840	-12.5152	-2.8946	12.2980	 9.4034	-15.1926	-3.3549	13.7586	10.4037	-17.1135	40.2179	99.8956	
   397	-2.2148	10.1956	 7.9808	-12.4103	-2.6254	12.3595	 9.7341	-14.9849	-3.0671	13.9104	10.8433	-16.9775	40.3946	99.8992	
   398	-1.8260	10.1771	 8.3511	-12.0032	-2.2261	12.3729	10.1468	-14.5991	-2.6985	13.9314	11.2329	-16.6300	40.5103	99.8959	
   399	-1.6312	10.1756	 8.5444	-11.8068	-2.0678	12.3547	10.2869	-14.4225	-2.5612	13.8799	11.3187	-16.4411	40.6070	99.8942	
   400	-1.6142	 9.9347	 8.3205	-11.5488	-2.0990	12.0444	 9.9454	-14.1435	-2.5713	13.5708	10.9994	-16.1421	40.8465	99.9017	
   401	-1.8863	 9.6832	 7.7969	-11.5694	-2.2320	11.6980	 9.4660	-13.9300	-2.6303	13.3331	10.7028	-15.9634	41.3289	99.9149	
   402	-2.2302	 9.5364	 7.3063	-11.7666	-2.4400	11.5469	 9.1069	-13.9868	-2.7296	13.2169	10.4873	-15.9465	41.7429	99.9186	
   403	-2.3352	 9.6065	 7.2713	-11.9417	-2.4553	11.6263	 9.1710	-14.0816	-2.7784	13.2883	10.5099	-16.0668	41.7755	99.9120	
   404	-2.2266	 9.5977	 7.3711	-11.8242	-2.4943	11.6407	 9.1464	-14.1350	-2.8693	13.2221	10.3528	-16.0914	41.4799	99.9068	
   405	-2.1305	 9.6404	 7.5099	-11.7709	-2.2993	11.6826	 9.3833	-13.9819	-2.6074	13.3245	10.7171	-15.9319	41.7951	99.9121	
   406	-1.6205	 9.6946	 8.0740	-11.3151	-1.8067	11.8158	10.0091	-13.6226	-2.1226	13.4495	11.3269	-15.5722	41.8532	99.9076	
   407	-1.4024	 9.6922	 8.2898	-11.0945	-1.6178	11.8667	10.2489	-13.4846	-1.9113	13.4765	11.5652	-15.3878	41.9049	99.9053	
   408	-1.2390	 9.6866	 8.4477	-10.9256	-1.4855	11.8581	10.3726	-13.3436	-1.9342	13.4851	11.5509	-15.4192	41.5086	99.8986	
   409	-1.0971	 9.5795	 8.4824	-10.6766	-1.4403	11.7208	10.2804	-13.1611	-1.8931	13.2630	11.3699	-15.1562	41.6774	99.8967	
   410	-1.1681	 9.4336	 8.2655	-10.6017	-1.4578	11.5328	10.0750	-12.9907	-1.8184	13.1287	11.3103	-14.9471	42.0559	99.9073	
   411	-1.2785	 9.4118	 8.1333	-10.6903	-1.4624	11.4540	 9.9916	-12.9165	-1.8756	13.1502	11.2745	-15.0258	42.0293	99.9114	
   412	-1.2749	 9.3401	 8.0652	-10.6150	-1.5167	11.4339	 9.9172	-12.9506	-1.8858	12.9532	11.0674	-14.8391	42.3377	99.8983	
   413	-1.2498	 9.2370	 7.9872	-10.4868	-1.4363	11.2165	 9.7802	-12.6528	-1.8165	12.8269	11.0104	-14.6434	42.5793	99.9098	
   414	-0.9895	 9.1565	 8.1670	-10.1460	-1.0768	11.1172	10.0405	-12.1940	-1.3456	12.7977	11.4521	-14.1432	43.1871	99.9193	
   415	-0.8387	 9.0695	 8.2309	-9.9082	-0.8557	11.0356	10.1799	-11.8913	-1.0167	12.7274	11.7106	-13.7441	43.7253	99.9234	
   416	-0.8450	 8.9624	 8.1174	-9.8073	-0.8143	10.8326	10.0183	-11.6469	-0.9606	12.4583	11.4977	-13.4190	44.3248	99.9223	
   417	-0.9554	 8.8076	 7.8522	-9.7630	-0.9114	10.6472	 9.7358	-11.5586	-1.0280	12.2829	11.2549	-13.3109	44.5019	99.9257	
   418	-1.0048	 8.7633	 7.7585	-9.7681	-0.9243	10.5380	 9.6137	-11.4624	-1.0123	12.1353	11.1230	-13.1476	44.9066	99.9263	
   419	-1.0129	 8.6255	 7.6126	-9.6384	-0.8975	10.3136	 9.4161	-11.2111	-1.0472	11.9122	10.8650	-12.9594	45.1265	99.9261	
   420	-0.9968	 8.5022	 7.5054	-9.4990	-0.9296	10.2182	 9.2886	-11.1477	-1.0887	11.7861	10.6974	-12.8748	45.0761	99.9235	
   421	-1.0318	 8.4369	 7.4051	-9.4687	-0.9356	10.1131	 9.1775	-11.0488	-1.0820	11.6891	10.6071	-12.7711	45.2723	99.9257	
   422	-0.7670	 8.4330	 7.6660	-9.1999	-0.5440	10.1093	 9.5653	-10.6534	-0.6147	11.7026	11.0879	-12.3173	45.8757	99.9267	
   423	-0.2813	 8.3397	 8.0584	-8.6209	-0.1195	10.1001	 9.9806	-10.2196	-0.1612	11.6741	11.5129	-11.8353	45.9827	99.9251	
   424	-0.0676	 8.2608	 8.1932	-8.3284	 0.0626	10.0328	10.0954	-9.9703	-0.0377	11.5805	11.5428	-11.6182	45.9779	99.9204	
   425	-0.1134	 8.1447	 8.0313	-8.2581	 0.0634	 9.8180	 9.8814	-9.7546	-0.0130	11.3822	11.3693	-11.3952	46.3886	99.9264	
   426	-0.1906	 8.0247	 7.8340	-8.2153	 0.0077	 9.6576	 9.6652	-9.6499	-0.0256	11.2512	11.2256	-11.2768	46.5936	99.9320	
   427	-0.2032	 7.9433	 7.7400	-8.1465	 0.0085	 9.5567	 9.5652	-9.5483	-0.1105	11.1886	11.0781	-11.2991	46.4171	99.9306	
   428	-0.1126	 7.8941	 7.7816	-8.0067	 0.0429	 9.5775	 9.6204	-9.5347	-0.1399	11.0698	10.9298	-11.2097	46.3881	99.9148	
   429	-0.0192	 7.7580	 7.7388	-7.7772	 0.0613	 9.4366	 9.4979	-9.3754	-0.2061	10.9175	10.7114	-11.1236	46.1841	99.9120	
   430	-0.0399	 7.6718	 7.6319	-7.7116	 0.0766	 9.3572	 9.4339	-9.2807	-0.0917	10.8745	10.7828	-10.9662	46.4377	99.9190	
   431	 0.3255	 7.6542	 7.9797	-7.3286	 0.5157	 9.3694	 9.8851	-8.8538	 0.3865	10.8721	11.2586	-10.4857	46.8926	99.9159	
   432	 0.6146	 7.5318	 8.1464	-6.9172	 0.7980	 9.1981	 9.9961	-8.4002	 0.6449	10.6807	11.3256	-10.0358	47.2352	99.9159	
   433	 0.6343	 7.3368	 7.9711	-6.7025	 0.7713	 8.9667	 9.7379	-8.1954	 0.6739	10.4513	11.1252	-9.7775	47.4709	99.9229	
   434	 0.5346	 7.2328	 7.7674	-6.6982	 0.7247	 8.8498	 9.5745	-8.1251	 0.6390	10.3404	10.9794	-9.7015	47.6438	99.9226	
   435	 0.5669	 7.1192	 7.6861	-6.5523	 0.7561	 8.7041	 9.4602	-7.9480	 0.6818	10.1531	10.8350	-9.4713	47.9409	99.9217	
   436	 0.5777	 7.0370	 7.6147	-6.4593	 0.7508	 8.6122	 9.3630	-7.8615	 0.6662	10.0763	10.7425	-9.4102	47.9216	99.9234	
   437	 0.5750	 6.9911	 7.5661	-6.4161	 0.7554	 8.5770	 9.3324	-7.8216	 0.6126	10.0551	10.6677	-9.4426	47.7664	99.9203	
   438	 0.5624	 6.9097	 7.4721	-6.3473	 0.7172	 8.4905	 9.2077	-7.7734	 0.5891	 9.9399	10.5291	-9.3508	47.8683	99.9201	
   439	 0.7303	 6.8477	 7.5780	-6.1174	 0.9719	 8.5306	 9.5024	-7.5587	 0.9486	10.0116	10.9603	-9.0630	48.1115	99.9199	
   440	 1.0813	 6.8511	 7.9324	-5.7697	 1.3451	 8.5536	 9.8988	-7.2086	 1.2570	10.1084	11.3654	-8.8515	47.9788	99.9203	
   441	 1.3165	 6.8737	 8.1902	-5.5571	 1.5478	 8.6129	10.1607	-7.0651	 1.3834	10.1850	11.5684	-8.8016	47.7151	99.9168	
   442	 1.3875	 6.8866	 8.2741	-5.4991	 1.5776	 8.6689	10.2465	-7.0914	 1.3743	10.2356	11.6099	-8.8613	47.4691	99.9134	
   443	 1.6245	 7.0728	 8.6973	-5.4483	 1.6861	 8.9372	10.6233	-7.2512	 1.3797	10.4520	11.8317	-9.0724	46.8805	99.9035	
   444	 2.0385	 7.3501	 9.3886	-5.3117	 1.7105	 9.2433	10.9538	-7.5329	 1.3682	10.6807	12.0489	-9.3126	46.0736	99.9094	
   445	 2.2109	 7.4977	 9.7085	-5.2868	 1.7058	 9.2785	10.9844	-7.5727	 1.2550	10.6347	11.8896	-9.3797	45.8852	99.9097	
   446	 2.2279	 7.5226	 9.7506	-5.2947	 1.6584	 9.2625	10.9210	-7.6041	 1.2219	10.5585	11.7804	-9.3367	46.0133	99.9103	
   447	 2.3420	 7.6057	 9.9476	-5.2637	 1.8160	 9.3451	11.1611	-7.5292	 1.4507	10.6970	12.1477	-9.2464	46.1706	99.9177	
   448	 2.8394	 7.7114	10.5508	-4.8720	 2.3093	 9.4915	11.8007	-7.1823	 1.9854	10.7737	12.7592	-8.7884	46.5676	99.9126	
   449	 3.1778	 7.6333	10.8112	-4.4555	 2.6497	 9.4060	12.0557	-6.7564	 2.3082	10.6998	13.0080	-8.3916	46.7682	99.9131	
   450	 3.2649	 7.5230	10.7879	-4.2581	 2.7277	 9.2632	11.9910	-6.5355	 2.3606	10.5856	12.9463	-8.2250	46.8133	99.9162	
   451	 3.3223	 7.4392	10.7615	-4.1169	 2.8257	 9.1198	11.9455	-6.2941	 2.4565	10.4080	12.8644	-7.9515	47.2254	99.9150	
   452	 3.3474	 7.3361	10.6835	-3.9886	 2.8456	 9.0052	11.8508	-6.1595	 2.4782	10.2640	12.7422	-7.7858	47.3979	99.9134	
   453	 3.3618	 7.1822	10.5439	-3.8204	 2.8809	 8.8111	11.6920	-5.9303	 2.5150	10.0731	12.5881	-7.5581	47.6469	99.9151	
   454	 3.3079	 7.0613	10.3692	-3.7534	 2.8970	 8.6309	11.5279	-5.7339	 2.4831	 9.9079	12.3910	-7.4248	47.8535	99.9140	
   455	 3.2944	 6.9646	10.2590	-3.6702	 2.8435	 8.5098	11.3534	-5.6663	 2.4513	 9.7427	12.1940	-7.2915	48.0365	99.9145	
   456	 3.3079	 6.9283	10.2362	-3.6204	 2.8695	 8.5002	11.3698	-5.6307	 2.6079	 9.7253	12.3331	-7.1175	48.3549	99.9194	
   457	 3.7065	 6.9454	10.6519	-3.2389	 3.3430	 8.5332	11.8762	-5.1903	 3.1191	 9.7991	12.9182	-6.6800	48.6933	99.9214	
   458	 4.0144	 6.8786	10.8930	-2.8642	 3.6268	 8.5022	12.1290	-4.8754	 3.5311	 9.6444	13.1755	-6.1133	49.3745	99.9176	
   459	 4.1042	 6.6812	10.7854	-2.5770	 3.7401	 8.2793	12.0194	-4.5393	 3.6594	 9.4191	13.0785	-5.7597	49.7061	99.9188	
   460	 4.1167	 6.4967	10.6134	-2.3800	 3.7891	 8.0936	11.8827	-4.3046	 3.8203	 9.1461	12.9665	-5.3258	50.3902	99.9164	
   461	 4.1283	 6.2969	10.4252	-2.1685	 3.8665	 7.8237	11.6902	-3.9573	 3.9198	 8.8136	12.7334	-4.8938	51.0615	99.9137	
   462	 4.0160	 5.9786	 9.9946	-1.9625	 3.8636	 7.4293	11.2928	-3.5657	 3.9657	 8.3476	12.3133	-4.3819	51.9361	99.9103	
   463	 3.7843	 5.4854	 9.2697	-1.7010	 3.8455	 6.7723	10.6177	-2.9268	 3.9744	 7.7244	11.6988	-3.7501	52.9922	99.9155	
   464	 3.3874	 4.8342	 8.2215	-1.4468	 3.7349	 5.8946	 9.6295	-2.1598	 3.8759	 6.8344	10.7104	-2.9585	54.4804	99.9162	
   465	 3.0120	 4.4174	 7.4295	-1.4054	 3.5607	 5.4092	 8.9699	-1.8486	 3.9381	 6.3447	10.2828	-2.4066	55.6780	99.9250	
   466	 3.3711	 4.4256	 7.7968	-1.0545	 3.9630	 5.4752	 9.4382	-1.5122	 4.3765	 6.4753	10.8518	-2.0988	55.6945	99.9276	
   467	 3.6656	 4.2621	 7.9277	-0.5965	 4.2094	 5.1429	 9.3523	-0.9335	 4.6500	 6.0124	10.6625	-1.3624	56.7212	99.9297	
   468	 3.5452	 3.9390	 7.4842	-0.3937	 4.1744	 4.6530	 8.8274	-0.4786	 4.6273	 5.5723	10.1996	-0.9450	57.3937	99.9393	
   469	 3.4662	 3.7883	 7.2545	-0.3221	 4.1202	 4.5189	 8.6390	-0.3987	 4.6081	 5.4260	10.0341	-0.8179	57.5631	99.9384	
   470	 3.4482	 3.7480	 7.1962	-0.2997	 4.1661	 4.3946	 8.5607	-0.2285	 4.5750	 5.3498	 9.9248	-0.7748	57.6487	99.9398	
   471	 3.4599	 3.9470	 7.4070	-0.4871	 4.1186	 4.7206	 8.8391	-0.6020	 4.7232	 5.1702	 9.8934	-0.4470	58.8527	99.9048	
   472	 3.3441	 3.7004	 7.0445	-0.3563	 4.0918	 4.6031	 8.6949	-0.5112	 4.5634	 5.6907	10.2541	-1.1273	56.7522	99.9388	
   473	 3.4204	 3.9381	 7.3586	-0.5177	 4.2662	 4.7465	 9.0127	-0.4803	 4.7260	 5.7891	10.5151	-1.0631	57.1907	99.9363	
   474	 3.3019	 3.6456	 6.9475	-0.3437	 4.0782	 4.2528	 8.3310	-0.1746	 4.7208	 5.2361	 9.9568	-0.5153	58.2660	99.9525	
   475	 3.1447	 3.4925	 6.6372	-0.3477	 4.0140	 4.1759	 8.1899	-0.1620	 4.7611	 5.3390	10.1001	-0.5779	57.9815	99.9616	
   476	 3.2632	 3.5191	 6.7823	-0.2558	 4.0545	 4.1878	 8.2423	-0.1333	 4.8105	 5.1669	 9.9775	-0.3564	58.4294	99.9540	
   477	 3.2102	 3.4135	 6.6238	-0.2032	 4.0423	 4.0917	 8.1341	-0.0494	 4.6787	 5.0984	 9.7770	-0.4197	58.2128	99.9487	
   478	 3.2803	 3.4111	 6.6914	-0.1308	 4.1234	 4.1154	 8.2388	 0.0080	 4.7088	 5.1166	 9.8253	-0.4078	58.1124	99.9445	
   479	 3.2955	 3.4055	 6.7010	-0.1099	 4.1624	 4.1010	 8.2634	 0.0614	 4.7130	 5.0855	 9.7985	-0.3725	58.1717	99.9413	
   480	 3.3171	 3.3741	 6.6911	-0.0570	 4.1479	 4.0796	 8.2275	 0.0683	 4.6757	 5.0404	 9.7161	-0.3648	58.1223	99.9392	
   481	 3.2282	 3.3209	 6.5490	-0.0926	 4.0186	 4.0267	 8.0454	-0.0081	 4.5739	 4.9901	 9.5640	-0.4162	58.0789	99.9420	
   482	 3.3584	 3.4136	 6.7719	-0.0552	 4.2771	 4.1324	 8.4095	 0.1447	 4.9268	 5.1587	10.0855	-0.2320	58.3209	99.9462	
   483	 3.5972	 3.3645	 6.9617	 0.2327	 4.4202	 4.0796	 8.4998	 0.3406	 5.0852	 5.0638	10.1490	 0.0213	58.4373	99.9474	
   484	 3.7184	 3.3041	 7.0225	 0.4143	 4.5242	 4.0412	 8.5654	 0.4831	 5.1123	 5.0241	10.1364	 0.0881	58.2926	99.9432	
   485	 3.6735	 3.2034	 6.8768	 0.4701	 4.4769	 3.9112	 8.3880	 0.5657	 5.0347	 4.8762	 9.9108	 0.1585	58.4014	99.9419	
   486	 3.6007	 3.1598	 6.7606	 0.4409	 4.3866	 3.8439	 8.2306	 0.5427	 4.9672	 4.8129	 9.7801	 0.1543	58.4590	99.9450	
   487	 3.5109	 3.0913	 6.6023	 0.4197	 4.2589	 3.8173	 8.0762	 0.4415	 4.8655	 4.7625	 9.6280	 0.1029	58.3852	99.9438	
   488	 3.4768	 3.0413	 6.5182	 0.4355	 4.2391	 3.7040	 7.9431	 0.5350	 4.7824	 4.6225	 9.4049	 0.1599	58.5529	99.9414	
   489	 3.3412	 2.9897	 6.3310	 0.3515	 4.0777	 3.6697	 7.7474	 0.4079	 4.6523	 4.5887	 9.2410	 0.0637	58.4809	99.9428	
   490	 3.3879	 2.9881	 6.3761	 0.3998	 4.2169	 3.6653	 7.8822	 0.5516	 4.8125	 4.6407	 9.4532	 0.1718	58.5845	99.9449	
   491	 3.6312	 3.0156	 6.6468	 0.6157	 4.4578	 3.6970	 8.1548	 0.7608	 5.0703	 4.6620	 9.7323	 0.4082	58.7333	99.9450	
   492	 3.7228	 2.9818	 6.7046	 0.7410	 4.4984	 3.7088	 8.2072	 0.7895	 5.1275	 4.6406	 9.7680	 0.4869	58.6986	99.9430	
   493	 3.7201	 2.9359	 6.6560	 0.7843	 4.4823	 3.6611	 8.1434	 0.8212	 5.0902	 4.5955	 9.6857	 0.4946	58.6561	99.9427	
   494	 3.6959	 2.9214	 6.6172	 0.7745	 4.4617	 3.6486	 8.1103	 0.8130	 5.0601	 4.5773	 9.6374	 0.4827	58.6522	99.9416	
   495	 3.6150	 2.8730	 6.4880	 0.7421	 4.4158	 3.5449	 7.9607	 0.8709	 4.9800	 4.4952	 9.4752	 0.4848	58.7393	99.9429	
   496	 3.5585	 2.8391	 6.3976	 0.7194	 4.3156	 3.5349	 7.8506	 0.7807	 4.9198	 4.4587	 9.3785	 0.4610	58.7335	99.9432	
   497	 3.5010	 2.7899	 6.2910	 0.7111	 4.2139	 3.4988	 7.7127	 0.7151	 4.7909	 4.4481	 9.2390	 0.3428	58.4869	99.9445	
   498	 3.4705	 2.8012	 6.2717	 0.6693	 4.2284	 3.5202	 7.7486	 0.7082	 4.8854	 4.4716	 9.3571	 0.4138	58.6812	99.9464	
   499	 3.7066	 2.8392	 6.5458	 0.8675	 4.5030	 3.5596	 8.0626	 0.9434	 5.1516	 4.5429	 9.6945	 0.6086	58.7410	99.9470	
   500	 3.8700	 2.8336	 6.7036	 1.0365	 4.6567	 3.5766	 8.2333	 1.0801	 5.2733	 4.5268	 9.8000	 0.7464	58.7719	99.9426	
   501	 3.8530	 2.8086	 6.6615	 1.0444	 4.6422	 3.5551	 8.1973	 1.0871	 5.2359	 4.4818	 9.7177	 0.7541	58.7951	99.9396	
   502	 3.8206	 2.7892	 6.6099	 1.0314	 4.6070	 3.5212	 8.1282	 1.0858	 5.1986	 4.4367	 9.6353	 0.7619	58.8532	99.9395	
   503	 3.7874	 2.7546	 6.5420	 1.0328	 4.5604	 3.5183	 8.0787	 1.0421	 5.1559	 4.3996	 9.5555	 0.7562	58.8476	99.9360	
   504	 3.7461	 2.7151	 6.4612	 1.0310	 4.5161	 3.4408	 7.9569	 1.0752	 5.0541	 4.3493	 9.4034	 0.7048	58.7626	99.9370	
   505	 3.6276	 2.6885	 6.3160	 0.9392	 4.3807	 3.3970	 7.7776	 0.9837	 4.9457	 4.2837	 9.2294	 0.6620	58.8501	99.9382	
   506	 3.5405	 2.6659	 6.2064	 0.8747	 4.2935	 3.3822	 7.6757	 0.9113	 4.9199	 4.2344	 9.1542	 0.6855	59.0190	99.9383	
   507	 3.7156	 2.7264	 6.4419	 0.9892	 4.5237	 3.4581	 7.9818	 1.0656	 5.1758	 4.3331	 9.5089	 0.8426	59.1198	99.9387	
   508	 3.8790	 2.7208	 6.5997	 1.1582	 4.7279	 3.4296	 8.1576	 1.2983	 5.3347	 4.3620	 9.6967	 0.9727	59.0997	99.9404	
   509	 3.9248	 2.7039	 6.6286	 1.2209	 4.7164	 3.4607	 8.1771	 1.2557	 5.3118	 4.3706	 9.6825	 0.9412	58.9265	99.9379	
   510	 3.8763	 2.6748	 6.5511	 1.2015	 4.6683	 3.4315	 8.0998	 1.2367	 5.2673	 4.2988	 9.5661	 0.9685	59.0486	99.9349	
   511	 3.8368	 2.6660	 6.5027	 1.1708	 4.6331	 3.3976	 8.0307	 1.2355	 5.1945	 4.2435	 9.4379	 0.9510	59.0979	99.9324	
   512	 3.7093	 2.6192	 6.3285	 1.0901	 4.4626	 3.3198	 7.7824	 1.1428	 5.1132	 4.1382	 9.2514	 0.9750	59.3216	99.9379	
   513	 3.6536	 2.6006	 6.2542	 1.0530	 4.4220	 3.3079	 7.7300	 1.1141	 5.0259	 4.1414	 9.1673	 0.8844	59.1823	99.9358	
   514	 3.5908	 2.5926	 6.1833	 0.9982	 4.3348	 3.2932	 7.6280	 1.0416	 4.9229	 4.0679	 8.9908	 0.8550	59.2599	99.9316	
   515	 3.5279	 2.5845	 6.1124	 0.9435	 4.3348	 3.2932	 7.6280	 1.0416	 4.9259	 4.1258	 9.0517	 0.8001	59.1805	99.9335	
   516	 3.7003	 2.5990	 6.2993	 1.1013	 4.5146	 3.3006	 7.8152	 1.2140	 5.1060	 4.1113	 9.2173	 0.9946	59.3528	99.9321	
   517	 3.7542	 2.5870	 6.3411	 1.1672	 4.5612	 3.3035	 7.8647	 1.2578	 5.2047	 4.1038	 9.3085	 1.1009	59.4640	99.9335	
   518	 3.7613	 2.5765	 6.3378	 1.1849	 4.5536	 3.2862	 7.8398	 1.2674	 5.1060	 4.1113	 9.2173	 0.9946	59.2136	99.9315	
   519	 3.7479	 2.6128	 6.3606	 1.1351	 4.5628	 3.3297	 7.8925	 1.2330	 5.0789	 4.1510	 9.2299	 0.9278	59.1456	99.9281	
   520	 3.7712	 2.6120	 6.3832	 1.1593	 4.5536	 3.2862	 7.8398	 1.2674	 5.0446	 4.0517	 9.0963	 0.9928	59.3191	99.9258	
   521	 3.5970	 2.5668	 6.1638	 1.0303	 4.3922	 3.2519	 7.6441	 1.1403	 4.9458	 4.0593	 9.0051	 0.8865	59.2653	99.9313	
   522	 3.5396	 2.5176	 6.0572	 1.0220	 4.2477	 3.1645	 7.4122	 1.0832	 4.7706	 3.9420	 8.7126	 0.8285	59.2256	99.9324	
   523	 3.3977	 2.4918	 5.8895	 0.9060	 4.1085	 3.1690	 7.2775	 0.9395	 4.6604	 3.9539	 8.6143	 0.7065	59.1293	99.9328	
   524	 3.4166	 2.5474	 5.9640	 0.8692	 4.2048	 3.2272	 7.4321	 0.9776	 4.7790	 3.9920	 8.7710	 0.7870	59.3505	99.9295	
   525	 3.5737	 2.5676	 6.1413	 1.0061	 4.3608	 3.2836	 7.6445	 1.0772	 4.9530	 4.0861	 9.0391	 0.8669	59.2412	99.9316	
   526	 3.7003	 2.5990	 6.2993	 1.1013	 4.4404	 3.2810	 7.7214	 1.1593	 5.0018	 4.0147	 9.0165	 0.9872	59.4169	99.9282	
   527	 3.5665	 2.5780	 6.1446	 0.9885	 4.3272	 3.2759	 7.6031	 1.0513	 4.8886	 4.0808	 8.9694	 0.8078	59.1605	99.9321	
   528	 3.5935	 2.6385	 6.2319	 0.9550	 4.3494	 3.3147	 7.6640	 1.0347	 4.8531	 4.0705	 8.9236	 0.7825	59.2068	99.9265	
   529	 3.4561	 2.5563	 6.0123	 0.8999	 4.1972	 3.2100	 7.4072	 0.9872	 4.6791	 3.9764	 8.6555	 0.7026	59.1534	99.9278	
   530	 3.3861	 2.5587	 5.9447	 0.8274	 4.1138	 3.2609	 7.3747	 0.8529	 4.6574	 4.0082	 8.6655	 0.6492	59.1312	99.9274	
   531	 3.3465	 2.5498	 5.8963	 0.7968	 4.0450	 3.2192	 7.2642	 0.8257	 4.5375	 3.9469	 8.4844	 0.5906	59.1034	99.9259	
   532	 3.2541	 2.5683	 5.8224	 0.6858	 3.9784	 3.2170	 7.1954	 0.7614	 4.4460	 3.9812	 8.4272	 0.4647	59.0013	99.9276	
   533	 3.2254	 2.6102	 5.8355	 0.6152	 3.9876	 3.2605	 7.2481	 0.7270	 4.4887	 4.0183	 8.5071	 0.4704	59.1164	99.9274	
   534	 3.3511	 2.6263	 5.9774	 0.7248	 4.1100	 3.3092	 7.4192	 0.8007	 4.6429	 4.0667	 8.7096	 0.5761	59.1348	99.9276	
   535	 3.3968	 2.6094	 6.0063	 0.7874	 4.1344	 3.2734	 7.4078	 0.8611	 4.6303	 4.0479	 8.6781	 0.5824	59.0571	99.9287	
   536	 3.3358	 2.6320	 5.9678	 0.7039	 4.0694	 3.2974	 7.3668	 0.7720	 4.5773	 4.0382	 8.6155	 0.5390	59.1182	99.9268	
   537	 3.2882	 2.6182	 5.9065	 0.6700	 3.9761	 3.2916	 7.2677	 0.6845	 4.4887	 4.0183	 8.5071	 0.4704	59.0385	99.9271	
   538	 3.2092	 2.6005	 5.8097	 0.6087	 3.9394	 3.2314	 7.1708	 0.7080	 4.3876	 3.9796	 8.3671	 0.4080	59.0253	99.9259	
   539	 3.1374	 2.5723	 5.7096	 0.5651	 3.8071	 3.2400	 7.0471	 0.5670	 4.3219	 3.9511	 8.2730	 0.3709	59.0215	99.9268	
   540	 3.0440	 2.5755	 5.6195	 0.4686	 3.7199	 3.2253	 6.9452	 0.4946	 4.2461	 3.9500	 8.1961	 0.2960	59.0197	99.9292	
   541	 2.9416	 2.5585	 5.5001	 0.3832	 3.5845	 3.1814	 6.7660	 0.4031	 4.1437	 3.8881	 8.0318	 0.2556	59.1071	99.9321	
   542	 2.8896	 2.6012	 5.4908	 0.2884	 3.5600	 3.2173	 6.7773	 0.3427	 4.0744	 4.0145	 8.0889	 0.0599	58.7794	99.9360	
   543	 3.0988	 2.7117	 5.8104	 0.3872	 3.8575	 3.3086	 7.1661	 0.5490	 4.3219	 3.9511	 8.2730	 0.3709	59.3811	99.9189	
   544	 3.2424	 2.7681	 6.0106	 0.4744	 3.9370	 3.4200	 7.3570	 0.5170	 4.3484	 4.1242	 8.4725	 0.2242	58.8464	99.9205	
   545	 3.1401	 2.7512	 5.8912	 0.3890	 3.8369	 3.4101	 7.2469	 0.4268	 4.2671	 4.1311	 8.3982	 0.1360	58.7813	99.9224	
   546	 3.1096	 2.7624	 5.8720	 0.3472	 3.8185	 3.4370	 7.2554	 0.3815	 4.2328	 4.1440	 8.3767	 0.0888	58.7459	99.9190	
   547	 3.1446	 2.8277	 5.9723	 0.3169	 3.8146	 3.4853	 7.2999	 0.3293	 4.2026	 4.1257	 8.3284	 0.0769	58.8231	99.9143	
   548	 3.0790	 2.7737	 5.8527	 0.3054	 3.7328	 3.4485	 7.1813	 0.2843	 4.0870	 4.1455	 8.2325	-0.0585	58.5145	99.9167	
   549	 2.9938	 2.7817	 5.7755	 0.2121	 3.6456	 3.4337	 7.0794	 0.2119	 4.0485	 4.0773	 8.1258	-0.0288	58.7777	99.9164	
   550	 2.8833	 2.7599	 5.6433	 0.1234	 3.5194	 3.4334	 6.9528	 0.0860	 3.9672	 4.0842	 8.0514	-0.1171	58.7144	99.9189	
   551	 2.9803	 2.8180	 5.7983	 0.1623	 3.6639	 3.5208	 7.1848	 0.1431	 4.1183	 4.1869	 8.3052	-0.0686	58.7084	99.9171	
   552	 3.1159	 2.8696	 5.9855	 0.2463	 3.7978	 3.5384	 7.3362	 0.2593	 4.2424	 4.2171	 8.4595	 0.0252	58.7794	99.9198	
   553	 3.1311	 2.8640	 5.9951	 0.2672	 3.7939	 3.5868	 7.3807	 0.2071	 4.2279	 4.2757	 8.5036	-0.0478	58.5488	99.9177	
   554	 3.1347	 2.9252	 6.0599	 0.2096	 3.8238	 3.6428	 7.4666	 0.1809	 4.2592	 4.3171	 8.5763	-0.0579	58.6218	99.9158	
   555	 3.1114	 2.9260	 6.0374	 0.1854	 3.7679	 3.5964	 7.3643	 0.1715	 4.1478	 4.3057	 8.4535	-0.1580	58.4636	99.9195	
   556	 2.9615	 2.8953	 5.8568	 0.0662	 3.6471	 3.5740	 7.2211	 0.0731	 4.0906	 4.3272	 8.4178	-0.2367	58.4504	99.9251	
   557	 2.9318	 2.9219	 5.8537	 0.0100	 3.6287	 3.6009	 7.2296	 0.0278	 4.0207	 4.3298	 8.3505	-0.3091	58.4026	99.9197	
   558	 2.9830	 2.9969	 5.9799	-0.0138	 3.6470	 3.6880	 7.3350	-0.0409	 4.0333	 4.3487	 8.3821	-0.3154	58.4574	99.9142	
   559	 3.0629	 3.0299	 6.0929	 0.0330	 3.7228	 3.7338	 7.4565	-0.0110	 4.1249	 4.4265	 8.5514	-0.3017	58.3732	99.9174	
   560	 3.1240	 3.0074	 6.1314	 0.1166	 3.8398	 3.6905	 7.5303	 0.1492	 4.2706	 4.4250	 8.6956	-0.1544	58.5335	99.9216	
   561	 3.0899	 2.9574	 6.0473	 0.1325	 3.7977	 3.6524	 7.4502	 0.1453	 4.2405	 4.4067	 8.6472	-0.1663	58.4687	99.9235	
   562	 3.0171	 2.9139	 5.9310	 0.1033	 3.6899	 3.6252	 7.3151	 0.0647	 4.1448	 4.3600	 8.5048	-0.2153	58.4231	99.9230	
   563	 2.9875	 2.9405	 5.9280	 0.0471	 3.6654	 3.6611	 7.3265	 0.0043	 4.1219	 4.3686	 8.4905	-0.2468	58.4545	99.9201	
   564	 2.9983	 2.9912	 5.9895	 0.0071	 3.6677	 3.7005	 7.3681	-0.0328	 4.0906	 4.3272	 8.4178	-0.2367	58.5998	99.9122	
   565	 3.0549	 3.0251	 6.0799	 0.0298	 3.6677	 3.7005	 7.3681	-0.0328	 4.0249	 4.2987	 8.3237	-0.2738	58.5319	99.9100	
   566	 2.8806	 2.8470	 5.7276	 0.0337	 3.4154	 3.4718	 6.8872	-0.0565	 3.7673	 4.0530	 7.8203	-0.2858	58.5846	99.9140	
   567	 2.5924	 2.7187	 5.3112	-0.1263	 3.1997	 3.3034	 6.5032	-0.1037	 3.6432	 4.0228	 7.6660	-0.3796	58.5832	99.9301	
   568	 2.6822	 2.7873	 5.4695	-0.1050	 3.3335	 3.4350	 6.7686	-0.1015	 3.8612	 4.1772	 8.0383	-0.3160	58.6018	99.9315	
   569	 2.8043	 2.8751	 5.6795	-0.0708	 3.5454	 3.5378	 7.0832	 0.0076	 3.9894	 4.2884	 8.2779	-0.2991	58.5508	99.9236	
   570	 3.0369	 3.1177	 6.1547	-0.0808	 3.7074	 3.9271	 7.6345	-0.2198	 4.1260	 4.6741	 8.8001	-0.5481	57.9078	99.9166	
   571	 3.2911	 3.4619	 6.7529	-0.1708	 3.9482	 4.3008	 8.2490	-0.3527	 4.3679	 5.0674	 9.4353	-0.6995	57.6461	99.9175	
   572	 3.4482	 3.6150	 7.0632	-0.1668	 4.0369	 4.3418	 8.3787	-0.3049	 4.4010	 5.1435	 9.5446	-0.7425	57.5836	99.9263	
   573	 3.4419	 3.6408	 7.0827	-0.1989	 4.0269	 4.3991	 8.4260	-0.3722	 4.3480	 5.1339	 9.4820	-0.7859	57.5655	99.9167	
   574	 3.4114	 3.6521	 7.0635	-0.2407	 3.9849	 4.3610	 8.3459	-0.3762	 4.1560	 5.0289	 9.1849	-0.8729	57.5327	99.9049	
   575	 3.3108	 3.6658	 6.9766	-0.3549	 3.8571	 4.3344	 8.1916	-0.4773	 3.9055	 4.8100	 8.7155	-0.9045	57.8159	99.8816	
   576	 3.4455	 3.8350	 7.2806	-0.3894	 3.7699	 4.3197	 8.0896	-0.5498	 3.7484	 4.7037	 8.4520	-0.9553	57.9455	99.8902	
   577	 3.7473	 4.4588	 8.2061	-0.7114	 3.8103	 4.7875	 8.5978	-0.9772	 3.8615	 5.0863	 8.9478	-1.2249	57.9697	99.9091	
   578	 3.0506	 4.2781	 7.3287	-1.2274	 2.7763	 4.3648	 7.1411	-1.5885	 2.8854	 4.5966	 7.4820	-1.7112	58.0292	99.9332	
   579	 3.0524	 4.4416	 7.4941	-1.3892	 3.2986	 4.6680	 7.9667	-1.3694	 3.6568	 4.9624	 8.6192	-1.3057	58.9615	99.9251	
   580	 3.7751	 4.1357	 7.9108	-0.3606	 3.7431	 4.4301	 8.1733	-0.6870	 3.8483	 4.8315	 8.6798	-0.9832	57.9237	99.9268	
   581	 3.6063	 4.3153	 7.9217	-0.7089	 3.5457	 4.5768	 8.1225	-1.0311	 3.6525	 4.9935	 8.6461	-1.3410	57.7015	99.9310	
   582	 3.6261	 4.2533	 7.8794	-0.6272	 3.5863	 4.5886	 8.1749	-1.0024	 3.7326	 4.9635	 8.6961	-1.2308	57.7918	99.9249	
   583	 3.5740	 4.1630	 7.7370	-0.5890	 3.6108	 4.5528	 8.1635	-0.9420	 3.7326	 4.9635	 8.6961	-1.2308	57.6764	99.9204	
   584	 3.5919	 4.0704	 7.6623	-0.4784	 3.6483	 4.5121	 8.1604	-0.8639	 3.7941	 4.9109	 8.7049	-1.1168	57.7272	99.9169	
   585	 3.6432	 4.4112	 8.0544	-0.7680	 3.6245	 4.6751	 8.2996	-1.0506	 3.7754	 5.0005	 8.7759	-1.2252	58.0973	99.9243	
   586	 3.8101	 4.3339	 8.1441	-0.5237	 3.8065	 4.6078	 8.4144	-0.8013	 3.9157	 5.0069	 8.9226	-1.0912	57.9396	99.9271	
   587	 3.7141	 4.4241	 8.1382	-0.7100	 3.6260	 4.7013	 8.3273	-1.0754	 3.7483	 5.0402	 8.7885	-1.2920	57.8383	99.9258	
   588	 3.4771	 4.3709	 7.8479	-0.8938	 3.3255	 4.5576	 7.8830	-1.2321	 3.3593	 4.8497	 8.2090	-1.4905	57.8228	99.9242	
   589	 3.0479	 4.2321	 7.2800	-1.1842	 2.8804	 4.3264	 7.2068	-1.4460	 2.9385	 4.4940	 7.4325	-1.5556	58.3508	99.9204	
   590	 2.5235	 3.9330	 6.4565	-1.4095	 2.3283	 3.9671	 6.2954	-1.6389	 2.3581	 4.0979	 6.4560	-1.7398	58.4502	99.9196	
   591	 1.8914	 3.6580	 5.5495	-1.7666	 1.6293	 3.7090	 5.3383	-2.0798	 1.7258	 3.8275	 5.5533	-2.1017	58.2889	99.9234	
   592	 1.5817	 3.6942	 5.2759	-2.1125	 1.4067	 3.7644	 5.1711	-2.3577	 1.5680	 3.9340	 5.5020	-2.3660	58.2147	99.9268	
   593	 1.2432	 3.3734	 4.6166	-2.1302	 0.9219	 3.3065	 4.2284	-2.3846	 1.0551	 3.3767	 4.4318	-2.3216	58.5974	99.9298	
   594	 0.7197	 3.0896	 3.8093	-2.3699	 0.6237	 3.0881	 3.7118	-2.4645	 0.9353	 3.2032	 4.1385	-2.2679	59.0716	99.9308	
   595	 0.9091	 3.1291	 4.0383	-2.2200	 0.7346	 3.1679	 3.9025	-2.4333	 1.0449	 3.2919	 4.3368	-2.2470	58.8202	99.9322	
   596	 1.0357	 3.0276	 4.0634	-1.9919	 0.5993	 2.8960	 3.4953	-2.2968	 0.6247	 2.8356	 3.4604	-2.2109	58.8464	99.9199	
   597	 0.1792	 2.7808	 2.9600	-2.6016	-0.0264	 2.8723	 2.8460	-2.8987	 0.2585	 2.9731	 3.2316	-2.7146	58.4579	99.9262	
   598	 0.2663	 2.9363	 3.2026	-2.6700	 0.0095	 3.0334	 3.0429	-3.0239	 0.2073	 3.2226	 3.4299	-3.0154	57.7935	99.9307	
   599	 0.5060	 3.0355	 3.5415	-2.5295	 0.2106	 3.1803	 3.3910	-2.9697	 0.1338	 3.2679	 3.4017	-3.1342	57.3096	99.9035	
   600	 0.0328	 2.8114	 2.8442	-2.7785	-0.3645	 2.9972	 2.6327	-3.3617	-0.4618	 3.1432	 2.6814	-3.6050	56.6135	99.9091	
   601	-0.2284	 2.8766	 2.6481	-3.1049	-0.5879	 3.0394	 2.4516	-3.6273	-0.6948	 3.1480	 2.4531	-3.8428	56.6653	99.9044	
   602	-0.4520	 2.9200	 2.4680	-3.3719	-1.0636	 2.9671	 1.9035	-4.0307	-1.2633	 2.9835	 1.7202	-4.2468	56.3332	99.9076	
   603	-0.6351	 2.9876	 2.3525	-3.6227	-1.0606	 3.0196	 1.9590	-4.0801	-1.1543	 3.0607	 1.9064	-4.2150	56.8372	99.9098	
   604	-0.4439	 3.0578	 2.6139	-3.5016	-0.9175	 3.0807	 2.1632	-3.9983	-0.9996	 3.1207	 2.1211	-4.1203	56.8428	99.9133	
   605	-0.3657	 3.1932	 2.8275	-3.5589	-0.9551	 3.2354	 2.2803	-4.1905	-0.9195	 3.3150	 2.3955	-4.2345	56.6087	99.9275	
   606	-0.3783	 3.2447	 2.8665	-3.6230	-1.0201	 3.2594	 2.2393	-4.2795	-1.0033	 3.3878	 2.3845	-4.3910	56.3294	99.9342	
   607	-0.3900	 3.1787	 2.7887	-3.5686	-1.0766	 3.0858	 2.0092	-4.1625	-1.2001	 3.0779	 1.8778	-4.2780	56.6950	99.9224	
   608	-1.1343	 2.8513	 1.7170	-3.9855	-1.7948	 2.8415	 1.0467	-4.6363	-1.7499	 2.9359	 1.1861	-4.6858	56.3799	99.9342	
   609	-1.0597	 3.0584	 1.9986	-4.1181	-1.5784	 3.1370	 1.5586	-4.7155	-1.4459	 3.2882	 1.8424	-4.7341	56.3615	99.9337	
   610	-0.5901	 3.3543	 2.7641	-3.9444	-1.0569	 3.4272	 2.3703	-4.4841	-0.9805	 3.6036	 2.6231	-4.5840	56.3482	99.9317	
   611	-0.1726	 3.5599	 3.3872	-3.7325	-0.6355	 3.5933	 2.9578	-4.2289	-0.6222	 3.7643	 3.1421	-4.3865	56.4396	99.9303	
   612	-0.0164	 3.5648	 3.5483	-3.5811	-0.4902	 3.5799	 3.0897	-4.0701	-0.4505	 3.6998	 3.2493	-4.1504	56.7758	99.9290	
   613	 0.1650	 3.5995	 3.7644	-3.4345	-0.2676	 3.6385	 3.3709	-3.9061	-0.2290	 3.8115	 3.5825	-4.0405	56.7120	99.9307	
   614	 0.4631	 3.7631	 4.2262	-3.3000	 0.1102	 3.8543	 3.9645	-3.7442	 0.1281	 4.0612	 4.1893	-3.9332	56.6373	99.9267	
   615	 0.7037	 3.7447	 4.4483	-3.0410	 0.3503	 3.8729	 4.2232	-3.5226	 0.3202	 4.0541	 4.3742	-3.7339	56.6428	99.9196	
   616	 0.7898	 3.6190	 4.4088	-2.8292	 0.4521	 3.7951	 4.2472	-3.3430	 0.4256	 3.9495	 4.3751	-3.5239	56.7634	99.9137	
   617	 0.8760	 3.6263	 4.5023	-2.7502	 0.5194	 3.8105	 4.3299	-3.2911	 0.4678	 3.9750	 4.4428	-3.5073	56.6511	99.9135	
   618	 0.8922	 3.6360	 4.5281	-2.7438	 0.5584	 3.7961	 4.3545	-3.2377	 0.4906	 3.9664	 4.4571	-3.4758	56.7241	99.9136	
   619	 0.8527	 3.6271	 4.4798	-2.7744	 0.5010	 3.8374	 4.3384	-3.3364	 0.4244	 4.0386	 4.4629	-3.6142	56.4012	99.9135	
   620	 0.8760	 3.6263	 4.5023	-2.7502	 0.5416	 3.8492	 4.3908	-3.3077	 0.4701	 4.0214	 4.4915	-3.5512	56.5163	99.9096	
   621	 0.9245	 3.6553	 4.5798	-2.7308	 0.6387	 3.9206	 4.5593	-3.2820	 0.6628	 4.1380	 4.8008	-3.4752	56.5885	99.9151	
   622	 1.2558	 3.7207	 4.9765	-2.4649	 0.9889	 4.0058	 4.9947	-3.0169	 0.9392	 4.2940	 5.2332	-3.3549	56.3331	99.9155	
   623	 1.3501	 3.7328	 5.0829	-2.3827	 1.0853	 4.0641	 5.1494	-2.9788	 1.0482	 4.3712	 5.4193	-3.3231	56.2174	99.9151	
   624	 1.3321	 3.6925	 5.0246	-2.3604	 1.1098	 4.0282	 5.1380	-2.9184	 1.0734	 4.4089	 5.4824	-3.3355	56.1025	99.9198	
   625	 1.2414	 3.6087	 4.8501	-2.3672	 1.1243	 4.0497	 5.1740	-2.9254	 1.1391	 4.4374	 5.5765	-3.2984	56.1325	99.9128	
   626	 1.1166	 3.4749	 4.5915	-2.3583	 1.1060	 3.9626	 5.0686	-2.8566	 1.2077	 4.4117	 5.6194	-3.2039	56.2737	99.9163	
   627	 1.1606	 3.4274	 4.5879	-2.2667	 1.2154	 3.9021	 5.1175	-2.6867	 1.3252	 4.3144	 5.6396	-2.9892	56.6406	99.9116	
   628	 1.2172	 3.5942	 4.8113	-2.3770	 0.9844	 3.8130	 4.7975	-2.8286	 0.6616	 4.1148	 4.7764	-3.4532	56.0119	99.9017	
   629	 0.5492	 3.7704	 4.3197	-3.2211	 0.0429	 3.8389	 3.8818	-3.7961	 0.1016	 4.0003	 4.1019	-3.8987	56.6294	99.9322	
   630	 1.0888	 3.6650	 4.7538	-2.5762	 1.0051	 3.8255	 4.8306	-2.8205	 1.2458	 4.1317	 5.3774	-2.8859	57.6596	99.9337	
   631	 1.8717	 3.5871	 5.4588	-1.7154	 1.7876	 3.8048	 5.5923	-2.0172	 1.9859	 4.1195	 6.1054	-2.1337	57.8541	99.9295	
   632	 1.4001	 2.4629	 3.8630	-1.0628	 1.3168	 2.6713	 3.9881	-1.3545	 1.8418	 2.7979	 4.6397	-0.9561	59.7108	99.9308	
   633	 1.0193	 1.9544	 2.9737	-0.9350	 0.9652	 2.1039	 3.0692	-1.1387	 1.5450	 2.4724	 4.0175	-0.9274	59.5023	99.9535	
   634	 0.9143	 1.7585	 2.6728	-0.8442	 0.8345	 1.9109	 2.7454	-1.0764	 1.4000	 2.2612	 3.6612	-0.8613	59.5494	99.9521	
   635	 0.8290	 1.6336	 2.4625	-0.8046	 0.7145	 1.7876	 2.5021	-1.0731	 1.2946	 2.1413	 3.4360	-0.8467	59.5363	99.9539	
   636	 0.7365	 1.5191	 2.2556	-0.7826	 0.6143	 1.6637	 2.2780	-1.0494	 1.1724	 2.0337	 3.2061	-0.8613	59.4853	99.9546	
   637	 0.6817	 1.5159	 2.1976	-0.8342	 0.5677	 1.6608	 2.2284	-1.0931	 1.1170	 2.0899	 3.2069	-0.9730	59.2756	99.9579	
   638	 0.7383	 1.6827	 2.4210	-0.9444	 0.6655	 1.8593	 2.5248	-1.1938	 1.2103	 2.3147	 3.5250	-1.1045	59.0883	99.9569	
   639	 0.7805	 1.8705	 2.6510	-1.0899	 0.7389	 1.9797	 2.7186	-1.2408	 1.2235	 2.3452	 3.5687	-1.1217	59.3891	99.9505	
   640	 0.6836	 1.9454	 2.6290	-1.2618	 0.6325	 2.0927	 2.7252	-1.4602	 1.0597	 2.4480	 3.5077	-1.3884	59.0521	99.9455	
   641	 0.5965	 2.1887	 2.7852	-1.5921	 0.7081	 2.4804	 3.1885	-1.7724	 1.1956	 2.9343	 4.1298	-1.7387	58.5808	99.9431	
   642	 0.8516	 2.6811	 3.5327	-1.8295	 1.1690	 3.2153	 4.3843	-2.0463	 1.5873	 3.8559	 5.4432	-2.2686	57.4032	99.9345	
   643	 1.3383	 3.4008	 4.7392	-2.0625	 1.7171	 4.0788	 5.7959	-2.3618	 1.9369	 4.6398	 6.5767	-2.7029	56.6875	99.9063	
   644	 1.5835	 3.5919	 5.1753	-2.0084	 1.7637	 4.0817	 5.8455	-2.3180	 1.7810	 4.4444	 6.2254	-2.6634	56.9318	99.8949	
   645	 1.2854	 3.8271	 5.1125	-2.5416	 0.8972	 3.9123	 4.8095	-3.0151	 0.5527	 3.9254	 4.4781	-3.3728	56.7554	99.8870	
   646	-0.6261	 3.0078	 2.3816	-3.6339	-1.3053	 2.9222	 1.6169	-4.2275	-1.3939	 2.9381	 1.5442	-4.3321	56.6864	99.9256	
   647	-1.3076	 2.8214	 1.5138	-4.1290	-1.6931	 2.8777	 1.1846	-4.5708	-1.5674	 3.0800	 1.5125	-4.6474	56.5998	99.9338	
   648	-1.0813	 3.2228	 2.1415	-4.3040	-1.3659	 3.3669	 2.0011	-4.7328	-1.1292	 3.6594	 2.5302	-4.7886	56.3838	99.9388	
   649	-0.4797	 3.6420	 3.1623	-4.1216	-0.8215	 3.8229	 3.0014	-4.6444	-0.6867	 4.0955	 3.4088	-4.7823	56.0071	99.9324	
   650	-0.0603	 3.8782	 3.8178	-3.9385	-0.3053	 4.1351	 3.8298	-4.4404	-0.2472	 4.3615	 4.1143	-4.6088	56.0354	99.9163	
   651	 0.1246	 3.8412	 3.9658	-3.7166	-0.0192	 4.1434	 4.1242	-4.1627	-0.1142	 4.4533	 4.3391	-4.5674	55.6633	99.9075	
   652	-0.2849	 3.2416	 2.9566	-3.5264	-0.4978	 3.5626	 3.0648	-4.0604	-0.4885	 3.8676	 3.3791	-4.3562	55.8967	99.9146	
   653	-1.6498	 2.0405	 0.3907	-3.6903	-1.7685	 2.2620	 0.4935	-4.0305	-1.6666	 2.4028	 0.7362	-4.0694	57.2258	99.9050	
   654	-2.8189	 0.9862	-1.8327	-3.8050	-3.0088	 1.2585	-1.7503	-4.2673	-2.7219	 1.3938	-1.3281	-4.1157	57.4602	99.9141	
   655	-3.1502	 0.7878	-2.3624	-3.9380	-3.2910	 1.0878	-2.2031	-4.3788	-3.0248	 1.2890	-1.7358	-4.3138	57.1887	99.9149	
   656	-3.1754	 0.8910	-2.2844	-4.0663	-3.3285	 1.2425	-2.0860	-4.5710	-3.0749	 1.5617	-1.5132	-4.6366	56.5080	99.9225	
   657	-2.7425	 1.7557	-0.9867	-4.4981	-2.6826	 2.3045	-0.3781	-4.9871	-2.1684	 2.8510	 0.6826	-5.0193	55.9375	99.9376	
   658	-1.8436	 2.7221	 0.8785	-4.5657	-1.7054	 3.2376	 1.5321	-4.9430	-1.3184	 3.8367	 2.5183	-5.1551	55.5955	99.9353	
   659	-1.2375	 3.2179	 1.9804	-4.4553	-1.0616	 3.6903	 2.6288	-4.7519	-0.7681	 4.2146	 3.4465	-4.9827	55.8093	99.9257	
   660	-1.1163	 3.0245	 1.9082	-4.1408	-1.0507	 3.3042	 2.2535	-4.3549	-0.7245	 3.5901	 2.8656	-4.3147	57.1213	99.9225	
   661	-1.1137	 2.5386	 1.4249	-3.6523	-1.0085	 2.8864	 1.8779	-3.8949	-0.6786	 3.1242	 2.4456	-3.8028	57.5112	99.9122	
   662	-1.2673	 2.1808	 0.9135	-3.4481	-1.2577	 2.4823	 1.2246	-3.7400	-0.9049	 2.6954	 1.7906	-3.6003	57.7376	99.9177	
   663	-1.7665	 1.7786	 0.0120	-3.5451	-1.8694	 2.1249	 0.2555	-3.9944	-1.4672	 2.4224	 0.9552	-3.8897	57.2121	99.9290	
   664	-1.8356	 2.0622	 0.2266	-3.8978	-1.8841	 2.4454	 0.5613	-4.3296	-1.3807	 2.8564	 1.4757	-4.2370	56.8647	99.9397	
   665	-1.3489	 2.5160	 1.1671	-3.8649	-1.3833	 2.8370	 1.4538	-4.2203	-0.8864	 3.2789	 2.3925	-4.1653	56.9233	99.9450	
   666	-0.8676	 2.8780	 2.0103	-3.7456	-0.6874	 3.2706	 2.5832	-3.9580	-0.2711	 3.7860	 3.5149	-4.0571	56.8025	99.9360	
   667	-0.6315	 2.9159	 2.2844	-3.5474	-0.4977	 3.2207	 2.7230	-3.7184	-0.1313	 3.6686	 3.5372	-3.7999	57.1525	99.9346	
   668	-0.5831	 2.8120	 2.2289	-3.3950	-0.5573	 3.1086	 2.5513	-3.6659	-0.1506	 3.5223	 3.3717	-3.6729	57.2292	99.9382	
   669	-0.0533	 3.3359	 3.2826	-3.3891	 0.2050	 3.8863	 4.0913	-3.6814	 0.6271	 4.5765	 5.2036	-3.9494	56.1488	99.9394	
   670	 1.2029	 4.2799	 5.4828	-3.0769	 0.9872	 4.4355	 5.4227	-3.4483	 0.9372	 4.7080	 5.6453	-3.7708	56.4523	99.9202	
   671	 1.4238	 4.5894	 6.0132	-3.1655	 1.4904	 4.8665	 6.3568	-3.3761	 1.5531	 5.2267	 6.7798	-3.6736	56.6240	99.9165	
   672	 2.1455	 3.4704	 5.6158	-1.3249	 2.0844	 3.5409	 5.6254	-1.4565	 2.2070	 3.7708	 5.9778	-1.5638	58.6658	99.9257	
   673	 1.5410	 2.3405	 3.8815	-0.7994	 1.7803	 2.7616	 4.5419	-0.9813	 2.0573	 3.2425	 5.2998	-1.1853	58.3367	99.9231	
   674	 1.3471	 2.2244	 3.5715	-0.8773	 1.5295	 2.6732	 4.2027	-1.1438	 1.8537	 3.1418	 4.9955	-1.2881	58.2490	99.9251	
   675	 1.0921	 1.9979	 3.0900	-0.9058	 1.2428	 2.4238	 3.6666	-1.1811	 1.6154	 2.8180	 4.4334	-1.2026	58.5978	99.9237	
   676	 0.7572	 1.7383	 2.4955	-0.9811	 0.9728	 2.2352	 3.2080	-1.2624	 1.4341	 2.6971	 4.1312	-1.2630	58.5217	99.9275	
   677	 0.8802	 1.8415	 2.7217	-0.9613	 1.1235	 2.3137	 3.4371	-1.1902	 1.5377	 2.7822	 4.3199	-1.2445	58.5260	99.9260	
   678	 0.9287	 1.8705	 2.7992	-0.9418	 1.1502	 2.3172	 3.4674	-1.1670	 1.5606	 2.7736	 4.3342	-1.2130	58.5879	99.9271	
   679	 0.7931	 1.8189	 2.6120	-1.0258	 1.0715	 2.3329	 3.4043	-1.2614	 1.4817	 2.8269	 4.3085	-1.3452	58.3631	99.9242	
   680	 0.8245	 1.8229	 2.6474	-0.9984	 1.0562	 2.2983	 3.3545	-1.2421	 1.4961	 2.9927	 4.4887	-1.4966	57.8644	99.9452	
   681	 1.0355	 2.0970	 3.1325	-1.0614	 1.3199	 2.6098	 3.9298	-1.2899	 1.8194	 3.2669	 5.0863	-1.4475	58.0256	99.9420	
   682	 1.4639	 2.6193	 4.0831	-1.1553	 1.6157	 3.1308	 4.7465	-1.5151	 1.9638	 3.6909	 5.6547	-1.7272	57.5664	99.9319	
   683	 1.6713	 2.9650	 4.6363	-1.2936	 1.7724	 3.5422	 5.3146	-1.7699	 2.0317	 4.1023	 6.1340	-2.0707	56.9439	99.9256	
   684	 1.9929	 3.5267	 5.5196	-1.5339	 1.8288	 3.9437	 5.7725	-2.1149	 1.8756	 4.3558	 6.2314	-2.4802	56.5757	99.9207	
   685	 2.2882	 3.6445	 5.9327	-1.3562	 2.1577	 3.8893	 6.0470	-1.7316	 2.2207	 4.1494	 6.3702	-1.9287	57.7240	99.9175	
   686	 2.2900	 3.5421	 5.8322	-1.2521	 2.2594	 4.0395	 6.2989	-1.7801	 2.3507	 4.4077	 6.7584	-2.0569	57.0149	99.9095	
   687	 2.3843	 3.4213	 5.8056	-1.0370	 2.3673	 3.8387	 6.2061	-1.4714	 2.3646	 4.2253	 6.5900	-1.8607	57.1553	99.9097	
   688	 2.2837	 3.4350	 5.7187	-1.1512	 2.2243	 3.8915	 6.1158	-1.6673	 2.2183	 4.3275	 6.5458	-2.1092	56.7297	99.9133	
   689	 2.3888	 3.7638	 6.1526	-1.3749	 2.2946	 4.0734	 6.3680	-1.7788	 2.2249	 4.4549	 6.6798	-2.2301	56.9299	99.9151	
   690	 2.3673	 3.6622	 6.0295	-1.2949	 2.2227	 3.9793	 6.2020	-1.7566	 2.1508	 4.3764	 6.5273	-2.2257	56.8052	99.9179	
   691	 2.4023	 3.8605	 6.2628	-1.4581	 2.2777	 4.2405	 6.5182	-1.9629	 2.2422	 4.6787	 6.9209	-2.4364	56.5048	99.9193	
   692	 2.6977	 4.1112	 6.8089	-1.4134	 2.5568	 4.4727	 7.0295	-1.9159	 2.4529	 4.9184	 7.3713	-2.4655	56.3367	99.9180	
   693	 2.9294	 4.2055	 7.1349	-1.2761	 2.7365	 4.4801	 7.2166	-1.7436	 2.5559	 4.8797	 7.4357	-2.3238	56.5021	99.9168	
   694	 2.9411	 4.2716	 7.2126	-1.3305	 2.6937	 4.5428	 7.2365	-1.8492	 2.4529	 4.9184	 7.3713	-2.4655	56.2860	99.9134	
   695	 2.9384	 4.2257	 7.1640	-1.2873	 2.6661	 4.5262	 7.1923	-1.8600	 2.4800	 4.8787	 7.3587	-2.3987	56.3655	99.9139	
   696	 2.8854	 4.1201	 7.0055	-1.2347	 2.5996	 4.4099	 7.0096	-1.8103	 2.4163	 4.7727	 7.1890	-2.3565	56.3872	99.9161	
   697	 2.8252	 4.1579	 6.9832	-1.3327	 2.5591	 4.3981	 6.9572	-1.8390	 2.3705	 4.7899	 7.1604	-2.4195	56.4200	99.9205	
   698	 2.8225	 4.1120	 6.9345	-1.2894	 2.5239	 4.3641	 6.8881	-1.8402	 2.3163	 4.7571	 7.0734	-2.4409	56.2965	99.9200	
   699	 2.8405	 4.1523	 6.9928	-1.3118	 2.5346	 4.4339	 6.9686	-1.8993	 2.3705	 4.7899	 7.1604	-2.4195	56.3816	99.9180	
   700	 3.0200	 4.1564	 7.1764	-1.1363	 2.7625	 4.4704	 7.2330	-1.7079	 2.6059	 4.8314	 7.4374	-2.2255	56.4939	99.9151	
   701	 3.1906	 4.1403	 7.3309	-0.9497	 2.8627	 4.4804	 7.3431	-1.6177	 2.6818	 4.8325	 7.5143	-2.1507	56.3383	99.9142	
   702	 3.1062	 4.1637	 7.2699	-1.0574	 2.7885	 4.4608	 7.2494	-1.6723	 2.5246	 4.8383	 7.3630	-2.3137	56.1624	99.9135	
   703	 3.0991	 4.1741	 7.2732	-1.0750	 2.7702	 4.4877	 7.2579	-1.7176	 2.5258	 4.8615	 7.3873	-2.3357	56.1325	99.9139	
   704	 3.1790	 4.2072	 7.3862	-1.0282	 2.8994	 4.5406	 7.4400	-1.6412	 2.6872	 4.9367	 7.6239	-2.2495	56.2132	99.9147	
   705	 3.2903	 4.2443	 7.5346	-0.9540	 3.0011	 4.5768	 7.5779	-1.5756	 2.7715	 4.9877	 7.7592	-2.2163	56.1480	99.9156	
   706	 3.3442	 4.2322	 7.5764	-0.8880	 3.0677	 4.5790	 7.6467	-1.5113	 2.8474	 4.9888	 7.8361	-2.1414	56.1974	99.9147	
   707	 3.3998	 4.2508	 7.6506	-0.8509	 3.1809	 4.5841	 7.7650	-1.4033	 2.9588	 5.0001	 7.9589	-2.0413	56.3609	99.9136	
   708	 3.4366	 4.2137	 7.6504	-0.7771	 3.2237	 4.5214	 7.7451	-1.2977	 3.0118	 4.8975	 7.9093	-1.8857	56.6352	99.9120	
   709	 3.4752	 4.0743	 7.5496	-0.5991	 3.1764	 4.3914	 7.5677	-1.2150	 2.9805	 4.7439	 7.7245	-1.7634	56.6411	99.9138	
   710	 3.5282	 4.0470	 7.5751	-0.5188	 3.2896	 4.3965	 7.6861	-1.1070	 3.1407	 4.7960	 7.9367	-1.6553	56.6945	99.9165	
   711	 3.7104	 4.0970	 7.8074	-0.3865	 3.5435	 4.4234	 7.9669	-0.8799	 3.4237	 4.8551	 8.2788	-1.4313	56.9550	99.9197	
   712	 3.8020	 4.0632	 7.8652	-0.2611	 3.6345	 4.3898	 8.0243	-0.7553	 3.5580	 4.8578	 8.4158	-1.2998	57.0155	99.9254	
   713	 3.8702	 4.0302	 7.9004	-0.1599	 3.7516	 4.3466	 8.0982	-0.5950	 3.6725	 4.8148	 8.4873	-1.1424	57.2053	99.9240	
   714	 3.9241	 3.8851	 7.8092	 0.0390	 3.8717	 4.3559	 8.2275	-0.4842	 3.8814	 4.9076	 8.7890	-1.0262	56.9828	99.9248	
   715	 4.1207	 3.9142	 8.0349	 0.2065	 4.1195	 4.3917	 8.5112	-0.2723	 4.0801	 4.9157	 8.9958	-0.8356	57.1334	99.9173	
   716	 3.9177	 3.5121	 7.4298	 0.4057	 3.9903	 4.1109	 8.1013	-0.1206	 4.1272	 4.6973	 8.8244	-0.5701	57.3096	99.9227	
   717	 3.3789	 2.8350	 6.2140	 0.5439	 3.5195	 3.2054	 6.7250	 0.3140	 3.7258	 3.8147	 7.5405	-0.0889	58.3768	99.9375	
   718	 2.5089	 2.3585	 4.8674	 0.1504	 2.6118	 2.5551	 5.1670	 0.0567	 2.9510	 3.0428	 5.9938	-0.0918	59.3249	99.9446	
   719	 2.1946	 2.1852	 4.3798	 0.0095	 2.3151	 2.3630	 4.6782	-0.0479	 2.6915	 2.8745	 5.5660	-0.1830	59.3838	99.9482	
   720	 2.1470	 2.1715	 4.3185	-0.0244	 2.2968	 2.3899	 4.6867	-0.0931	 2.6915	 2.8745	 5.5660	-0.1830	59.4283	99.9442	
   721	 2.1398	 2.1819	 4.3218	-0.0421	 2.3021	 2.3678	 4.6700	-0.0657	 2.7144	 2.8659	 5.5803	-0.1516	59.5373	99.9472	
   722	 2.1542	 2.1610	 4.3152	-0.0068	 2.3358	 2.3755	 4.7113	-0.0397	 2.7554	 2.8683	 5.6236	-0.1129	59.5464	99.9451	
   723	 2.1147	 2.1521	 4.2668	-0.0374	 2.2999	 2.3284	 4.6283	-0.0286	 2.7042	 2.7812	 5.4854	-0.0770	59.7407	99.9432	
   724	 1.9288	 2.0409	 3.9697	-0.1120	 1.9657	 2.1770	 4.1426	-0.2113	 2.3478	 2.5430	 4.8908	-0.1953	59.7434	99.9426	
   725	 1.8561	 1.9973	 3.8534	-0.1412	 1.8701	 2.1318	 4.0019	-0.2618	 2.2406	 2.5006	 4.7412	-0.2601	59.6596	99.9430	
   726	 1.8812	 2.0272	 3.9084	-0.1459	 1.9037	 2.1395	 4.0432	-0.2358	 2.2701	 2.5073	 4.7774	-0.2372	59.7308	99.9436	
   727	 1.8651	 2.0175	 3.8826	-0.1524	 1.8364	 2.1241	 3.9606	-0.2877	 2.1677	 2.4453	 4.6131	-0.2776	59.7036	99.9403	
   728	 1.7484	 2.0215	 3.7698	-0.2731	 1.7247	 2.1453	 3.8700	-0.4205	 2.0684	 2.4413	 4.5097	-0.3729	59.6999	99.9378	
   729	 1.7268	 2.0529	 3.7797	-0.3260	 1.7324	 2.1626	 3.8949	-0.4302	 2.0979	 2.4479	 4.5458	-0.3501	59.8501	99.9378	
   730	 1.7385	 2.1190	 3.8575	-0.3804	 1.7576	 2.2538	 4.0114	-0.4962	 2.1364	 2.5161	 4.6525	-0.3797	59.8590	99.9349	
   731	 1.6694	 2.1367	 3.8061	-0.4673	 1.7323	 2.2765	 4.0089	-0.5442	 2.1069	 2.5095	 4.6164	-0.4026	59.9677	99.9304	
   732	 1.5769	 2.1552	 3.7321	-0.5782	 1.6666	 2.2874	 3.9540	-0.6209	 2.0599	 2.5035	 4.5634	-0.4436	60.0764	99.9294	
   733	 1.6245	 2.1689	 3.7934	-0.5444	 1.7323	 2.2765	 4.0089	-0.5442	 2.1593	 2.5075	 4.6668	-0.3483	60.2307	99.9332	
   734	 1.7430	 2.1955	 3.9385	-0.4525	 1.8409	 2.3169	 4.1578	-0.4760	 2.2484	 2.5390	 4.7874	-0.2906	60.1968	99.9311	
   735	 1.7906	 2.2092	 3.9998	-0.4186	 1.8746	 2.3246	 4.1992	-0.4500	 2.2713	 2.5304	 4.8017	-0.2592	60.2274	99.9300	
   736	 1.7538	 2.2463	 4.0001	-0.4925	 1.8379	 2.3784	 4.2162	-0.5405	 2.1647	 2.6118	 4.7765	-0.4471	59.8982	99.9276	
   737	 1.7161	 2.2680	 3.9841	-0.5519	 1.7881	 2.4369	 4.2251	-0.6489	 2.1086	 2.6564	 4.7651	-0.5478	59.7538	99.9243	
   738	 1.6856	 2.2793	 3.9649	-0.5937	 1.7805	 2.4197	 4.2001	-0.6392	 2.0617	 2.6504	 4.7121	-0.5888	59.7465	99.9238	
   739	 1.5733	 2.2269	 3.8002	-0.6535	 1.6589	 2.3841	 4.0430	-0.7253	 1.9304	 2.5935	 4.5239	-0.6631	59.6981	99.9206	
   740	 1.5024	 2.2140	 3.7164	-0.7115	 1.5839	 2.3515	 3.9354	-0.7676	 1.8588	 2.5613	 4.4201	-0.7026	59.7266	99.9221	
   741	 1.4701	 2.1946	 3.6647	-0.7245	 1.5289	 2.3182	 3.8470	-0.7893	 1.8052	 2.5401	 4.3453	-0.7349	59.6835	99.9249	
   742	 1.5886	 2.2212	 3.8099	-0.6326	 1.6589	 2.3841	 4.0430	-0.7253	 1.9545	 2.6080	 4.5625	-0.6536	59.6678	99.9236	
   743	 1.6146	 2.2664	 3.8810	-0.6517	 1.7132	 2.4043	 4.1175	-0.6911	 1.9991	 2.5677	 4.5667	-0.5686	59.9485	99.9180	
   744	 1.5904	 2.2519	 3.8423	-0.6614	 1.6772	 2.3572	 4.0345	-0.6800	 1.9684	 2.5379	 4.5062	-0.5695	59.9790	99.9223	
   745	 1.6227	 2.2712	 3.8939	-0.6485	 1.6719	 2.3793	 4.0512	-0.7075	 1.9533	 2.5849	 4.5382	-0.6316	59.7964	99.9252	
   746	 1.6003	 2.2873	 3.8876	-0.6870	 1.6719	 2.3793	 4.0512	-0.7075	 1.9696	 2.5610	 4.5306	-0.5915	59.9773	99.9242	
   747	 1.5141	 2.2800	 3.7941	-0.7659	 1.5992	 2.3860	 3.9852	-0.7868	 1.9226	 2.5551	 4.4777	-0.6325	60.0166	99.9231	
   748	 1.3956	 2.2534	 3.6490	-0.8578	 1.5189	 2.3755	 3.8944	-0.8566	 1.8359	 2.5699	 4.4058	-0.7340	59.9145	99.9224	
   749	 1.3821	 2.2897	 3.6718	-0.9075	 1.5342	 2.4100	 3.9442	-0.8759	 1.8551	 2.6040	 4.4591	-0.7489	59.9572	99.9216	
   750	 1.4144	 2.3090	 3.7235	-0.8945	 1.5548	 2.4225	 3.9774	-0.8677	 1.8617	 2.6192	 4.4810	-0.7575	59.9180	99.9220	
   751	 1.4297	 2.3034	 3.7331	-0.8736	 1.6015	 2.4254	 4.0269	-0.8240	 1.9153	 2.6404	 4.5558	-0.7251	59.9303	99.9222	
   752	 1.4162	 2.3396	 3.7559	-0.9234	 1.6527	 2.5071	 4.1598	-0.8544	 2.0008	 2.7146	 4.7154	-0.7138	59.9920	99.9183	
   753	 1.4818	 2.3936	 3.8754	-0.9118	 1.7276	 2.5397	 4.2674	-0.8121	 2.0719	 2.7352	 4.8071	-0.6633	60.1003	99.9180	
   754	 1.5366	 2.3969	 3.9335	-0.8603	 1.7276	 2.5397	 4.2674	-0.8121	 2.0924	 2.6803	 4.7726	-0.5879	60.2307	99.9167	
   755	 1.5689	 2.4162	 3.9851	-0.8473	 1.7276	 2.5397	 4.2674	-0.8121	 2.0719	 2.7352	 4.8071	-0.6633	60.0138	99.9229	
   756	 1.5276	 2.3767	 3.9043	-0.8491	 1.6810	 2.5368	 4.2178	-0.8559	 2.0249	 2.7292	 4.7541	-0.7043	59.9069	99.9206	
   757	 1.4585	 2.3944	 3.8529	-0.9360	 1.6603	 2.5244	 4.1847	-0.8640	 1.9942	 2.6994	 4.6936	-0.7052	60.0833	99.9183	
   758	 1.4980	 2.4033	 3.9013	-0.9053	 1.6397	 2.5119	 4.1516	-0.8722	 2.0171	 2.6908	 4.7079	-0.6737	60.1155	99.9248	
   759	 1.4890	 2.3832	 3.8722	-0.8942	 1.6244	 2.4773	 4.1017	-0.8529	 2.0388	 2.6590	 4.6978	-0.6203	60.2257	99.9282	
   760	 1.6228	 2.4042	 4.0269	-0.7814	 1.7904	 2.4763	 4.2667	-0.6860	 2.2206	 2.6793	 4.9000	-0.4587	60.3844	99.9310	
   761	 1.7565	 2.4252	 4.1817	-0.6686	 1.9066	 2.5340	 4.4406	-0.6274	 2.3290	 2.7449	 5.0739	-0.4159	60.2506	99.9299	
   762	 1.7978	 2.4647	 4.2625	-0.6668	 1.9556	 2.5762	 4.5318	-0.6207	 2.3302	 2.7681	 5.0983	-0.4379	60.2085	99.9252	
   763	 1.7269	 2.4517	 4.1787	-0.7248	 1.8753	 2.5657	 4.4409	-0.6904	 2.2821	 2.7389	 5.0210	-0.4569	60.2779	99.9256	
   764	 1.6946	 2.4324	 4.1270	-0.7378	 1.8546	 2.5532	 4.4078	-0.6986	 2.2297	 2.7409	 4.9706	-0.5113	60.1679	99.9242	
   765	 1.6569	 2.4541	 4.1110	-0.7972	 1.8546	 2.5532	 4.4078	-0.6986	 2.2363	 2.7561	 4.9924	-0.5199	60.2457	99.9257	
   766	 1.6641	 2.4437	 4.1077	-0.7796	 1.8416	 2.5580	 4.3996	-0.7164	 2.2297	 2.7409	 4.9706	-0.5113	60.2423	99.9242	
   767	 1.6479	 2.4340	 4.0819	-0.7861	 1.7819	 2.5599	 4.3418	-0.7780	 2.1598	 2.7435	 4.9033	-0.5837	60.0901	99.9246	
   768	 1.5366	 2.3969	 3.9335	-0.8603	 1.6940	 2.5320	 4.2260	-0.8381	 2.0936	 2.7034	 4.7970	-0.6099	60.1629	99.9233	
   769	 1.5527	 2.4066	 3.9593	-0.8538	 1.7819	 2.5599	 4.3418	-0.7780	 2.2068	 2.7495	 4.9563	-0.5427	60.2589	99.9225	
   770	 1.7422	 2.4461	 4.1883	-0.7039	 1.9479	 2.5589	 4.5069	-0.6110	 2.3519	 2.7363	 5.0882	-0.3844	60.3957	99.9237	
   771	 1.8131	 2.4590	 4.2721	-0.6459	 1.9892	 2.5839	 4.5731	-0.5947	 2.3826	 2.7661	 5.1488	-0.3835	60.2877	99.9240	
   772	 1.7745	 2.4655	 4.2400	-0.6909	 1.9686	 2.5714	 4.5400	-0.6029	 2.3368	 2.7833	 5.1202	-0.4465	60.2151	99.9255	
   773	 1.6156	 2.4146	 4.0302	-0.7990	 1.8623	 2.5705	 4.4327	-0.7082	 2.2833	 2.7621	 5.0454	-0.4789	60.3008	99.9217	
   774	 1.5707	 2.4469	 4.0175	-0.8761	 1.8775	 2.6050	 4.4826	-0.7275	 2.2682	 2.8091	 5.0773	-0.5409	60.2720	99.9185	
   775	 1.6192	 2.4759	 4.0951	-0.8567	 1.8982	 2.6175	 4.5157	-0.7194	 2.2682	 2.8091	 5.0773	-0.5409	60.2621	99.9183	
   776	 1.6910	 2.5041	 4.1951	-0.8131	 1.9112	 2.6127	 4.5239	-0.7016	 2.3368	 2.7833	 5.1202	-0.4465	60.4360	99.9240	
   777	 1.6973	 2.4783	 4.1756	-0.7810	 1.8883	 2.5609	 4.4491	-0.6726	 2.3061	 2.7535	 5.0597	-0.4474	60.3925	99.9281	
   778	 1.7332	 2.4260	 4.1591	-0.6927	 1.8936	 2.5388	 4.4324	-0.6452	 2.3989	 2.7423	 5.1412	-0.3434	60.4439	99.9331	
   779	 1.8670	 2.4470	 4.3139	-0.5800	 2.0466	 2.5426	 4.5892	-0.4960	 2.5109	 2.7652	 5.2761	-0.2543	60.4471	99.9329	
   780	 1.8840	 2.4719	 4.3560	-0.5879	 2.0749	 2.5724	 4.6473	-0.4975	 2.4946	 2.7890	 5.2837	-0.2944	60.3716	99.9293	
   781	 1.8849	 2.4873	 4.3722	-0.6023	 2.0565	 2.5993	 4.6558	-0.5428	 2.5175	 2.7804	 5.2979	-0.2630	60.4793	99.9287	
   782	 1.8382	 2.4888	 4.3271	-0.6506	 2.0489	 2.5820	 4.6309	-0.5331	 2.4868	 2.7506	 5.2374	-0.2639	60.5824	99.9259	
   783	 1.7898	 2.4598	 4.2496	-0.6700	 1.9816	 2.5666	 4.5482	-0.5851	 2.4055	 2.7575	 5.1630	-0.3521	60.4005	99.9269	
   784	 1.7978	 2.4647	 4.2625	-0.6668	 1.9686	 2.5714	 4.5400	-0.6029	 2.3977	 2.7191	 5.1168	-0.3215	60.4989	99.9243	
   785	 1.7269	 2.4517	 4.1787	-0.7248	 1.9273	 2.5465	 4.4737	-0.6192	 2.3278	 2.7218	 5.0496	-0.3939	60.4264	99.9246	
   786	 1.6811	 2.4687	 4.1498	-0.7875	 1.8699	 2.5878	 4.4577	-0.7179	 2.3049	 2.7303	 5.0353	-0.4254	60.4635	99.9227	
   787	 1.6012	 2.4356	 4.0368	-0.8343	 1.8080	 2.5503	 4.3582	-0.7424	 2.2044	 2.7032	 4.9075	-0.4988	60.3844	99.9208	
   788	 1.6246	 2.4348	 4.0593	-0.8102	 1.8806	 2.5436	 4.4242	-0.6630	 2.2971	 2.6920	 4.9891	-0.3948	60.5746	99.9201	
   789	 1.7413	 2.4308	 4.1721	-0.6895	 1.9923	 2.5224	 4.5147	-0.5302	 2.3899	 2.6808	 5.0706	-0.2909	60.6100	99.9212	
   790	 1.8436	 2.4478	 4.2914	-0.6041	 2.0390	 2.5253	 4.5643	-0.4864	 2.4194	 2.6874	 5.1068	-0.2680	60.5297	99.9236	
   791	 1.7880	 2.4292	 4.2172	-0.6412	 1.9456	 2.5196	 4.4652	-0.5739	 2.3188	 2.6602	 4.9790	-0.3414	60.4459	99.9219	
   792	 1.6461	 2.4034	 4.0495	-0.7572	 1.8806	 2.5436	 4.4242	-0.6630	 2.2971	 2.6920	 4.9891	-0.3948	60.4682	99.9190	
   793	 1.6497	 2.4646	 4.1143	-0.8149	 1.9349	 2.5637	 4.4987	-0.6288	 2.3278	 2.7218	 5.0496	-0.3939	60.5777	99.9190	
   794	 1.7431	 2.4614	 4.2045	-0.7183	 1.9456	 2.5196	 4.4652	-0.5739	 2.3351	 2.6364	 4.9715	-0.3013	60.6982	99.9209	
   795	 1.7834	 2.3527	 4.1361	-0.5692	 1.8715	 2.3860	 4.2575	-0.5146	 2.2701	 2.5073	 4.7774	-0.2372	60.6394	99.9276	
   796	 1.7843	 2.3680	 4.1523	-0.5836	 1.9334	 2.4235	 4.3570	-0.4901	 2.3875	 2.6344	 5.0219	-0.2470	60.5329	99.9346	
   797	 2.0115	 2.5187	 4.5302	-0.5072	 2.2867	 2.6752	 4.9619	-0.3885	 2.9179	 2.9667	 5.8846	-0.0488	60.6254	99.9404	
   798	 2.4856	 2.7582	 5.2438	-0.2726	 2.8304	 3.0040	 5.8345	-0.1736	 3.5579	 3.4999	 7.0578	 0.0580	60.1690	99.9531	
   799	 2.7711	 2.8405	 5.6116	-0.0693	 3.1226	 3.0034	 6.1260	 0.1192	 3.6922	 3.5026	 7.1948	 0.1896	60.1808	99.9502	
   800	 2.6490	 2.8856	 5.5346	-0.2365	 3.1731	 3.0719	 6.2450	 0.1011	 3.7614	 3.6006	 7.3620	 0.1608	60.3219	99.9465	
   801	 2.6544	 2.8445	 5.4989	-0.1900	 3.1379	 3.0380	 6.1759	 0.0999	 3.7885	 3.5609	 7.3494	 0.2276	60.3933	99.9499	
   802	 2.7146	 3.0725	 5.7871	-0.3579	 3.2724	 3.4107	 6.6830	-0.1383	 4.0027	 4.0945	 8.0972	-0.0918	59.6927	99.9553	
   803	 2.8843	 3.1741	 6.0584	-0.2898	 3.6417	 3.5961	 7.2378	 0.0456	 4.2153	 4.2568	 8.4721	-0.0416	59.6211	99.9360	
   804	 2.9741	 3.3756	 6.3497	-0.4014	 3.9652	 3.9057	 7.8709	 0.0594	 4.5193	 4.4969	 9.0162	 0.0224	59.8469	99.9149	
   805	 3.1187	 3.4473	 6.5660	-0.3286	 4.0584	 4.1394	 8.1978	-0.0811	 4.7269	 4.9031	 9.6300	-0.1762	59.0578	99.9286	
   806	 3.3916	 3.5812	 6.9728	-0.1895	 4.3268	 4.1878	 8.5146	 0.1390	 4.9329	 4.8258	 9.7587	 0.1071	59.5595	99.9201	
   807	 3.2381	 3.3563	 6.5944	-0.1182	 4.1487	 3.9787	 8.1274	 0.1700	 4.8426	 4.6589	 9.5016	 0.1837	59.5976	99.9282	
   808	 3.2650	 3.4168	 6.6818	-0.1517	 4.2114	 4.0293	 8.2407	 0.1821	 4.8655	 4.7625	 9.6280	 0.1029	59.4415	99.9295	
   809	 3.2884	 3.4160	 6.7043	-0.1276	 4.1724	 4.0437	 8.2161	 0.1287	 4.8083	 4.7840	 9.5923	 0.0242	59.2316	99.9306	
   810	 3.4545	 3.5893	 7.0437	-0.1348	 4.3650	 4.2742	 8.6393	 0.0908	 4.9834	 5.0135	 9.9969	-0.0301	59.0596	99.9257	
   811	 3.5524	 3.6626	 7.2150	-0.1102	 4.4132	 4.3034	 8.7166	 0.1098	 5.0177	 5.0006	10.0183	 0.0171	59.1729	99.9259	
   812	 3.4257	 3.4982	 6.9239	-0.0724	 4.2519	 4.0411	 8.2931	 0.2108	 4.7956	 4.7651	 9.5608	 0.0304	59.2286	99.9310	
   813	 3.2614	 3.3555	 6.6169	-0.0941	 4.0393	 3.9252	 7.9646	 0.1141	 4.6180	 4.6016	 9.2196	 0.0164	59.2751	99.9294	
   814	 3.1806	 3.3071	 6.4877	-0.1265	 3.9491	 3.8580	 7.8071	 0.0911	 4.4964	 4.5055	 9.0019	-0.0091	59.3201	99.9266	
   815	 3.1384	 3.2523	 6.3907	-0.1139	 3.9530	 3.8096	 7.7626	 0.1433	 4.4964	 4.5055	 9.0019	-0.0091	59.2661	99.9282	
   816	 3.2767	 3.3499	 6.6266	-0.0732	 4.1020	 3.9758	 8.0779	 0.1262	 4.6596	 4.6155	 9.2750	 0.0441	59.2841	99.9204	
   817	 3.2479	 3.2588	 6.5067	-0.0109	 3.9843	 3.7779	 7.7623	 0.2064	 4.3621	 4.3906	 8.7527	-0.0285	59.1687	99.9171	
   818	 3.0639	 3.1782	 6.2420	-0.1143	 3.8643	 3.6547	 7.5190	 0.2096	 4.2580	 4.2939	 8.5519	-0.0359	59.3385	99.9200	
   819	 3.0576	 3.0710	 6.1286	-0.0134	 3.7458	 3.5577	 7.3034	 0.1881	 4.1454	 4.1472	 8.2926	-0.0018	59.3059	99.9199	
   820	 3.0701	 3.0195	 6.0896	 0.0507	 3.6923	 3.4366	 7.1289	 0.2556	 4.0828	 4.0644	 8.1473	 0.0184	59.2839	99.9289	
   821	 2.9812	 2.9662	 5.9475	 0.0150	 3.5768	 3.3921	 6.9689	 0.1847	 4.0160	 4.0128	 8.0288	 0.0032	59.3160	99.9314	
   822	 2.8744	 2.8727	 5.7471	 0.0017	 3.4583	 3.2951	 6.7534	 0.1632	 3.9191	 3.9429	 7.8620	-0.0238	59.2784	99.9351	
   823	 2.7496	 2.8719	 5.6215	-0.1223	 3.3650	 3.2893	 6.6543	 0.0756	 3.8378	 3.9498	 7.7876	-0.1120	59.2821	99.9358	
   824	 2.7541	 2.8155	 5.5695	-0.0614	 3.4078	 3.2266	 6.6344	 0.1812	 3.9095	 3.8697	 7.7792	 0.0397	59.5281	99.9349	
   825	 2.6382	 2.7018	 5.3400	-0.0636	 3.3016	 3.1116	 6.4132	 0.1899	 3.8674	 3.7320	 7.5994	 0.1353	59.7667	99.9361	
   826	 2.5825	 2.6833	 5.2658	-0.1007	 3.2664	 3.0777	 6.3441	 0.1887	 3.8318	 3.7218	 7.5536	 0.1100	59.7684	99.9379	
   827	 2.5583	 2.6688	 5.2271	-0.1104	 3.1883	 3.1065	 6.2948	 0.0818	 3.7734	 3.7201	 7.4935	 0.0533	59.6600	99.9363	
   828	 2.5134	 2.7010	 5.2144	-0.1875	 3.1883	 3.1065	 6.2948	 0.0818	 3.7288	 3.7604	 7.4893	-0.0316	59.5923	99.9371	
   829	 2.4524	 2.7235	 5.1759	-0.2711	 3.1363	 3.1257	 6.2620	 0.0106	 3.7505	 3.7287	 7.4792	 0.0218	59.8699	99.9369	
   830	 2.5781	 2.7397	 5.3178	-0.1616	 3.2365	 3.1356	 6.3722	 0.1009	 3.7830	 3.7932	 7.5762	-0.0102	59.5941	99.9388	
   831	 2.6750	 2.7977	 5.4728	-0.1227	 3.3114	 3.2823	 6.5937	 0.0291	 3.8595	 3.9180	 7.7775	-0.0586	59.3698	99.9335	
   832	 2.7191	 2.8832	 5.6022	-0.1641	 3.2854	 3.2919	 6.5773	-0.0065	 3.6896	 3.9050	 7.5947	-0.2154	59.1790	99.9307	
   833	 2.7604	 2.9227	 5.6830	-0.1623	 3.3297	 3.3694	 6.6991	-0.0396	 3.7577	 3.9799	 7.7375	-0.2222	59.1260	99.9296	
   834	 3.0773	 3.0090	 6.0863	 0.0683	 3.5363	 3.3803	 6.9165	 0.1560	 3.8390	 3.9730	 7.8119	-0.1340	59.0120	99.9297	
   835	 2.9516	 2.9928	 5.9444	-0.0412	 3.5584	 3.4190	 6.9774	 0.1394	 3.8962	 3.9515	 7.8477	-0.0553	59.3510	99.9179	
   836	 2.8349	 2.8639	 5.6987	-0.0290	 3.3895	 3.2535	 6.6429	 0.1360	 3.7384	 3.8336	 7.5720	-0.0951	59.2645	99.9265	
   837	 2.9112	 2.9686	 5.8798	-0.0574	 3.4078	 3.3406	 6.7483	 0.0672	 3.7481	 3.9067	 7.6548	-0.1587	59.1849	99.9281	
   838	 2.8950	 2.8260	 5.7210	 0.0690	 3.3260	 3.1898	 6.5157	 0.1362	 3.6933	 3.7501	 7.4434	-0.0569	59.2365	99.9319	
   839	 2.7352	 2.6269	 5.3621	 0.1083	 3.1410	 2.9765	 6.1175	 0.1645	 3.5091	 3.5713	 7.0804	-0.0623	59.1834	99.9361	
   840	 2.4146	 2.6123	 5.0270	-0.1976	 3.0109	 3.0245	 6.0355	-0.0136	 3.5807	 3.7157	 7.2964	-0.1350	59.3765	99.9435	
   841	 2.4910	 2.8500	 5.3411	-0.3590	 3.2724	 3.2967	 6.5691	-0.0243	 3.8920	 3.9826	 7.8745	-0.0907	59.6443	99.9378	
   842	 2.6167	 2.8662	 5.4829	-0.2495	 3.3520	 3.2941	 6.6461	 0.0578	 3.9408	 3.9111	 7.8519	 0.0296	59.7921	99.9337	
   843	 2.6032	 2.7695	 5.3727	-0.1663	 3.3222	 3.1241	 6.4463	 0.1981	 3.8674	 3.7320	 7.5994	 0.1353	59.9682	99.9350	
   844	 2.5843	 2.7139	 5.2983	-0.1295	 3.2809	 3.0991	 6.3800	 0.1817	 3.8764	 3.6814	 7.5578	 0.1950	60.0391	99.9349	
   845	 2.5996	 2.7083	 5.3079	-0.1086	 3.2794	 3.0729	 6.3523	 0.2065	 3.7764	 3.6658	 7.4422	 0.1106	59.8464	99.9322	
   846	 2.6687	 2.6906	 5.3593	-0.0218	 3.2549	 3.1087	 6.3636	 0.1461	 3.7722	 3.6969	 7.4691	 0.0753	59.6035	99.9334	
   847	 2.6975	 2.7816	 5.4791	-0.0841	 3.3336	 3.2070	 6.5407	 0.1266	 3.8197	 3.8267	 7.6464	-0.0069	59.4818	99.9321	
   848	 2.8124	 2.8800	 5.6924	-0.0675	 3.4323	 3.3047	 6.7370	 0.1275	 3.8595	 3.9180	 7.7775	-0.0586	59.3389	99.9292	
   849	 2.9480	 2.9316	 5.8796	 0.0164	 3.4988	 3.3069	 6.8058	 0.1918	 3.8294	 3.8998	 7.7292	-0.0705	59.2340	99.9275	
   850	 2.8869	 2.8212	 5.7081	 0.0658	 3.3260	 3.1898	 6.5157	 0.1362	 3.6716	 3.7819	 7.4535	-0.1103	59.1013	99.9327	
   851	 2.7343	 2.7446	 5.4789	-0.0103	 3.1547	 3.0988	 6.2535	 0.0559	 3.5223	 3.7140	 7.2363	-0.1917	59.0574	99.9369	
   852	 2.6095	 2.6108	 5.2202	-0.0013	 3.0782	 3.0399	 6.1181	 0.0383	 3.5819	 3.7388	 7.3207	-0.1570	59.0087	99.9444	
   853	 2.7972	 2.8856	 5.6828	-0.0884	 3.4337	 3.4449	 6.8787	-0.0112	 3.9852	 4.2074	 8.1926	-0.2222	58.8051	99.9395	
   854	 3.3440	 3.4345	 6.7785	-0.0905	 3.9965	 3.9880	 7.9845	 0.0085	 4.3934	 4.6564	 9.0497	-0.2630	58.7104	99.9243	
   855	 3.8693	 3.8819	 7.7512	-0.0125	 4.3397	 4.4110	 8.7507	-0.0712	 4.6685	 5.0136	 9.6821	-0.3452	58.4177	99.9239	
   856	 4.2626	 4.2059	 8.4685	 0.0567	 4.6234	 4.7219	 9.3453	-0.0985	 4.9099	 5.2832	10.1930	-0.3733	58.2412	99.9235	
   857	 4.4620	 4.4139	 8.8759	 0.0481	 4.7197	 4.8941	 9.6138	-0.1744	 4.9562	 5.3898	10.3459	-0.4336	58.1735	99.9213	
   858	 4.4620	 4.4139	 8.8759	 0.0481	 4.6776	 4.9700	 9.6476	-0.2924	 4.9592	 5.4477	10.4069	-0.4885	58.0155	99.9196	
   859	 4.4009	 4.4364	 8.8373	-0.0355	 4.6646	 4.8608	 9.5255	-0.1962	 4.8827	 5.3229	10.2056	-0.4401	58.3555	99.9204	
   860	 4.2285	 4.1560	 8.3845	 0.0725	 4.4139	 4.4305	 8.8444	-0.0166	 4.5366	 4.9450	 9.4816	-0.4085	58.3758	99.9303	
   861	 4.1028	 4.0069	 8.1096	 0.0959	 4.3749	 4.4449	 8.8198	-0.0700	 4.6757	 5.0404	 9.7161	-0.3648	58.2644	99.9342	
   862	 4.3982	 4.2576	 8.6557	 0.1407	 4.6899	 4.7241	 9.4141	-0.0342	 4.9442	 5.2703	10.2145	-0.3261	58.2496	99.9259	
   863	 4.3883	 4.2221	 8.6104	 0.1662	 4.6288	 4.5858	 9.2146	 0.0430	 4.8304	 5.1004	 9.9309	-0.2700	58.4364	99.9279	
   864	 4.1979	 4.0343	 8.2322	 0.1637	 4.4193	 4.4084	 8.8277	 0.0109	 4.6468	 4.8210	 9.4678	-0.1742	58.7445	99.9208	
   865	 3.9097	 3.6402	 7.5498	 0.2695	 4.0745	 3.9592	 8.0337	 0.1153	 4.2050	 4.3965	 8.6014	-0.1915	58.6353	99.9222	
   866	 3.6331	 3.4451	 7.0782	 0.1881	 3.9193	 3.8020	 7.7213	 0.1173	 4.0779	 4.3084	 8.3863	-0.2304	58.6295	99.9225	
   867	 3.6394	 3.4193	 7.0587	 0.2201	 3.9269	 3.8193	 7.7462	 0.1077	 4.0695	 4.2584	 8.3279	-0.1889	58.6901	99.9131	
   868	 3.5550	 3.3097	 6.8647	 0.2453	 3.8604	 3.7030	 7.5635	 0.1574	 3.9413	 4.1471	 8.0884	-0.2058	58.6353	99.9092	
   869	 3.3889	 3.1364	 6.5252	 0.2525	 3.7978	 3.5384	 7.3362	 0.2593	 4.0557	 4.1041	 8.1599	-0.0484	58.8773	99.9255	
   870	 3.0027	 2.8019	 5.8046	 0.2009	 3.5340	 3.2269	 6.7609	 0.3071	 4.0685	 3.7864	 7.8549	 0.2820	59.6818	99.9340	
   871	 2.6265	 2.5028	 5.1293	 0.1237	 3.1961	 2.7818	 5.9780	 0.4143	 3.7031	 3.3745	 7.0776	 0.3285	60.0484	99.9409	
   872	 2.5313	 2.4754	 5.0067	 0.0560	 3.0791	 2.8251	 5.9041	 0.2540	 3.6814	 3.4063	 7.0877	 0.2751	59.9966	99.9419	
   873	 2.5143	 2.4504	 4.9647	 0.0639	 3.0340	 2.7344	 5.7684	 0.2995	 3.5495	 3.3377	 6.8872	 0.2118	59.8982	99.9434	
   874	 2.4397	 2.3762	 4.8160	 0.0635	 2.8902	 2.6602	 5.5504	 0.2300	 3.4574	 3.2483	 6.7057	 0.2091	59.9207	99.9470	
   875	 2.3922	 2.3625	 4.7547	 0.0297	 2.8566	 2.6525	 5.5090	 0.2041	 3.4767	 3.1702	 6.6469	 0.3065	60.2312	99.9438	
   876	 2.3607	 2.3585	 4.7192	 0.0023	 2.8099	 2.6496	 5.4595	 0.1603	 3.4538	 3.1788	 6.6326	 0.2750	60.1985	99.9461	
   877	 2.3464	 2.3794	 4.7258	-0.0330	 2.7915	 2.6765	 5.4680	 0.1150	 3.4092	 3.2191	 6.6284	 0.1901	60.0580	99.9457	
   878	 2.3850	 2.3730	 4.7580	 0.0120	 2.8382	 2.6794	 5.5176	 0.1588	 3.4791	 3.2165	 6.6956	 0.2626	60.1348	99.9457	
   879	 2.5035	 2.3996	 4.9031	 0.1039	 2.9460	 2.7066	 5.6526	 0.2394	 3.5688	 3.2596	 6.8284	 0.3092	60.0695	99.9464	
   880	 2.5053	 2.4302	 4.9355	 0.0751	 3.0057	 2.7047	 5.7104	 0.3010	 3.5929	 3.2742	 6.8671	 0.3187	60.1412	99.9456	
   881	 2.4891	 2.4206	 4.9097	 0.0686	 2.9720	 2.6970	 5.6690	 0.2750	 3.5688	 3.2596	 6.8284	 0.3092	60.1380	99.9460	
   882	 2.4819	 2.4310	 4.9130	 0.0509	 2.9537	 2.7239	 5.6776	 0.2298	 3.5688	 3.2596	 6.8284	 0.3092	60.1723	99.9445	
   883	 2.4748	 2.4415	 4.9163	 0.0333	 2.9537	 2.7239	 5.6776	 0.2298	 3.5242	 3.2999	 6.8242	 0.2243	59.9977	99.9456	
   884	 2.4667	 2.4367	 4.9034	 0.0300	 2.9353	 2.7508	 5.6861	 0.1845	 3.5483	 3.3145	 6.8628	 0.2338	60.0059	99.9455	
   885	 2.4604	 2.4625	 4.9229	-0.0020	 2.9560	 2.7633	 5.7192	 0.1927	 3.5483	 3.3145	 6.8628	 0.2338	60.0728	99.9434	
   886	 2.4451	 2.4681	 4.9132	-0.0229	 2.9300	 2.7729	 5.7028	 0.1571	 3.5266	 3.3463	 6.8729	 0.1803	59.9717	99.9453	
   887	 2.5331	 2.5060	 5.0391	 0.0272	 3.0975	 2.7982	 5.8956	 0.2993	 3.7031	 3.3745	 7.0776	 0.3285	60.1979	99.9441	
   888	 2.6373	 2.5536	 5.1909	 0.0837	 3.1946	 2.8696	 6.0641	 0.3250	 3.7825	 3.4451	 7.2276	 0.3375	60.1004	99.9423	
   889	 2.6535	 2.5632	 5.2167	 0.0902	 3.1946	 2.8696	 6.0641	 0.3250	 3.7596	 3.4536	 7.2133	 0.3060	60.0257	99.9428	
   890	 2.6436	 2.5278	 5.1714	 0.1158	 3.1594	 2.8356	 5.9950	 0.3237	 3.7627	 3.3994	 7.1620	 0.3633	60.1265	99.9439	
   891	 2.6274	 2.5181	 5.1455	 0.1093	 3.1517	 2.8183	 5.9701	 0.3334	 3.7272	 3.3891	 7.1162	 0.3380	60.0874	99.9432	
   892	 2.6121	 2.5237	 5.1359	 0.0884	 3.1387	 2.8231	 5.9619	 0.3156	 3.7055	 3.4208	 7.1263	 0.2846	59.9866	99.9446	
   893	 2.6274	 2.5181	 5.1455	 0.1093	 3.1387	 2.8231	 5.9619	 0.3156	 3.6826	 3.4294	 7.1120	 0.2531	59.8792	99.9444	
   894	 2.5951	 2.4988	 5.0938	 0.0963	 3.0531	 2.8347	 5.8877	 0.2184	 3.6447	 3.3728	 7.0175	 0.2718	59.9734	99.9420	
   895	 2.5951	 2.4988	 5.0938	 0.0963	 3.0921	 2.8203	 5.9123	 0.2718	 3.6597	 3.4380	 7.0977	 0.2216	59.8143	99.9460	
   896	 2.7226	 2.5455	 5.2681	 0.1771	 3.2359	 2.8945	 6.1304	 0.3413	 3.8193	 3.4785	 7.2978	 0.3407	59.9301	99.9425	
   897	 2.7872	 2.5842	 5.3715	 0.2030	 3.3177	 2.9314	 6.2491	 0.3863	 3.9132	 3.4905	 7.4037	 0.4227	60.0729	99.9409	
   898	 2.7316	 2.5657	 5.2972	 0.1659	 3.2542	 2.8676	 6.1219	 0.3866	 3.8097	 3.4054	 7.2150	 0.4043	60.1541	99.9398	
   899	 2.6579	 2.5068	 5.1648	 0.1511	 3.1517	 2.8183	 5.9701	 0.3334	 3.7260	 3.3659	 7.0919	 0.3600	60.0809	99.9419	
   900	 2.6983	 2.5310	 5.2294	 0.1673	 3.2206	 2.8600	 6.0805	 0.3606	 3.7952	 3.4639	 7.2591	 0.3312	59.9284	99.9442	
   901	 2.7298	 2.5351	 5.2648	 0.1947	 3.2336	 2.8552	 6.0887	 0.3784	 3.7825	 3.4451	 7.2276	 0.3375	59.9184	99.9430	
   902	 2.6570	 2.4915	 5.1486	 0.1655	 3.1365	 2.7838	 5.9202	 0.3527	 3.6892	 3.3325	 7.0217	 0.3567	60.0711	99.9423	
   903	 2.5735	 2.3972	 4.9707	 0.1763	 2.9965	 2.6611	 5.6577	 0.3354	 3.5947	 3.1967	 6.7915	 0.3980	60.1937	99.9467	
   904	 2.5906	 2.4222	 5.0128	 0.1684	 3.0546	 2.7469	 5.8016	 0.3077	 3.6103	 3.3857	 6.9960	 0.2246	59.7032	99.9477	
   905	 2.7809	 2.4771	 5.2580	 0.3039	 3.2481	 2.7626	 6.0108	 0.4855	 3.8061	 3.3358	 7.1419	 0.4702	60.0777	99.9452	
   906	 2.8105	 2.4505	 5.2610	 0.3601	 3.2535	 2.7405	 5.9940	 0.5130	 3.7922	 3.2938	 7.0860	 0.4984	60.0678	99.9434	
   907	 2.7468	 2.4271	 5.1739	 0.3197	 3.2183	 2.7066	 5.9249	 0.5117	 3.7681	 3.2792	 7.0474	 0.4889	60.1070	99.9448	
   908	 2.7468	 2.4271	 5.1739	 0.3197	 3.2000	 2.7335	 5.9335	 0.4665	 3.7248	 3.3428	 7.0675	 0.3820	59.8331	99.9455	
   909	 2.7396	 2.5705	 5.3102	 0.1691	 3.3215	 2.9970	 6.3185	 0.3245	 3.9908	 3.6384	 7.6293	 0.3524	59.8445	99.9447	
   910	 2.7603	 2.5238	 5.2841	 0.2365	 3.1281	 2.6394	 5.7675	 0.4887	 3.7285	 3.0757	 6.8041	 0.6528	60.8205	99.9489	
   911	 2.5358	 2.4190	 4.9548	 0.1169	 2.7495	 2.5244	 5.2739	 0.2251	 3.4364	 2.9550	 6.3915	 0.4814	60.6903	99.9572	
   912	 2.4362	 2.4479	 4.8841	-0.0118	 2.7090	 2.6265	 5.3355	 0.0824	 3.4093	 3.1069	 6.5162	 0.3023	60.4031	99.9560	
   913	 2.7047	 2.7712	 5.4758	-0.0665	 3.1540	 2.9717	 6.1257	 0.1823	 3.7759	 3.5420	 7.3179	 0.2338	60.1835	99.9525	
   914	 2.9848	 2.7616	 5.7464	 0.2232	 3.4852	 2.9567	 6.4419	 0.5285	 3.9783	 3.3952	 7.3735	 0.5831	60.5760	99.9356	
   915	 2.7325	 2.5810	 5.3135	 0.1515	 3.2145	 2.7549	 5.9694	 0.4595	 3.6935	 3.1892	 6.8827	 0.5043	60.5848	99.9361	
   916	 2.5035	 2.3996	 4.9031	 0.1039	 2.8949	 2.5110	 5.4058	 0.3839	 3.4136	 2.8514	 6.2650	 0.5621	60.9581	99.9372	
   917	 2.3553	 2.2666	 4.6220	 0.0887	 2.7068	 2.3592	 5.0659	 0.3476	 3.2294	 2.6726	 5.9020	 0.5567	61.0415	99.9375	
   918	 2.2198	 2.2150	 4.4348	 0.0048	 2.5515	 2.3160	 4.8675	 0.2355	 3.1240	 2.6649	 5.7889	 0.4590	60.9396	99.9428	
   919	 2.2799	 2.3101	 4.5900	-0.0302	 2.7060	 2.4600	 5.1660	 0.2459	 3.3323	 2.8583	 6.1906	 0.4739	60.9114	99.9436	
   920	 2.3374	 2.3593	 4.6967	-0.0219	 2.7962	 2.5273	 5.3235	 0.2689	 3.4123	 2.9405	 6.3528	 0.4719	60.8536	99.9422	
   921	 2.4083	 2.3722	 4.7805	 0.0362	 2.8260	 2.5833	 5.4093	 0.2427	 3.4364	 2.9550	 6.3915	 0.4814	60.7802	99.9380	
   922	 2.3437	 2.3335	 4.6772	 0.0102	 2.7549	 2.5023	 5.2572	 0.2526	 3.3527	 2.9156	 6.2683	 0.4371	60.7383	99.9429	
   923	 2.4317	 2.5044	 4.9360	-0.0726	 2.9300	 2.7729	 5.7028	 0.1571	 3.6308	 3.3308	 6.9616	 0.3000	60.3297	99.9504	
   924	 2.8717	 2.8268	 5.6985	 0.0449	 3.5081	 3.1225	 6.6306	 0.3855	 4.1745	 3.6935	 7.8680	 0.4810	60.4176	99.9444	
   925	 3.1698	 2.9905	 6.1602	 0.1793	 3.7665	 3.3422	 7.1087	 0.4243	 4.3708	 3.8796	 8.2503	 0.4911	60.1840	99.9376	
   926	 3.2030	 3.0251	 6.2281	 0.1779	 3.5302	 3.1613	 6.6915	 0.3689	 4.0029	 3.5335	 7.5365	 0.4694	60.4752	99.9389	
   927	 2.7002	 2.6946	 5.3948	 0.0056	 2.9300	 2.7729	 5.7028	 0.1571	 3.3539	 2.9388	 6.2927	 0.4151	60.9431	99.9258	
   928	 2.3087	 2.4012	 4.7098	-0.0925	 2.4367	 2.3986	 4.8353	 0.0382	 2.7356	 2.4860	 5.2216	 0.2496	60.9669	99.9200	
   929	 1.8471	 2.1101	 3.9573	-0.2630	 2.0360	 2.2449	 4.2809	-0.2089	 2.3767	 2.4259	 4.8026	-0.0492	60.4491	99.9196	
   930	 1.4413	 1.9706	 3.4119	-0.5293	 1.9105	 2.3716	 4.2822	-0.4611	 2.3875	 2.6344	 5.0219	-0.2470	60.1620	99.9071	
   931	 1.5185	 2.0907	 3.6092	-0.5721	 1.9985	 2.3995	 4.3980	-0.4010	 2.5248	 2.5829	 5.1077	-0.0581	60.7532	99.9082	
   932	 2.0672	 2.4043	 4.4715	-0.3371	 2.3831	 2.6195	 5.0026	-0.2364	 2.9854	 2.9177	 5.9031	 0.0676	60.5648	99.9349	
   933	 2.4416	 2.5398	 4.9814	-0.0982	 2.9192	 2.8170	 5.7363	 0.1022	 3.5700	 3.2828	 6.8528	 0.2872	60.4106	99.9418	
   934	 2.7199	 2.4996	 5.2195	 0.2203	 3.1793	 2.7210	 5.9003	 0.4583	 3.6243	 3.0912	 6.7154	 0.5331	60.5697	99.9273	
   935	 2.4712	 2.3803	 4.8514	 0.0909	 2.8673	 2.6083	 5.4756	 0.2590	 3.4744	 3.0117	 6.4860	 0.4627	60.6118	99.9401	
   936	 2.4362	 2.4479	 4.8841	-0.0118	 2.8940	 2.7258	 5.6198	 0.1682	 3.5213	 3.1298	 6.6511	 0.3914	60.5640	99.9365	
   937	 2.6202	 2.5286	 5.1488	 0.0917	 3.1517	 2.8183	 5.9701	 0.3334	 3.6537	 3.3222	 6.9759	 0.3315	60.1674	99.9347	
   938	 2.6238	 2.3239	 4.9477	 0.2999	 2.9507	 2.5574	 5.5081	 0.3933	 3.5165	 2.9250	 6.4415	 0.5915	60.5937	99.9375	
   939	 2.3589	 2.1949	 4.5538	 0.1640	 2.6494	 2.4005	 5.0499	 0.2489	 3.3287	 2.7888	 6.1175	 0.5398	60.7294	99.9469	
   940	 2.3607	 2.2255	 4.5862	 0.1352	 2.6440	 2.4226	 5.0666	 0.2214	 3.3106	 2.8901	 6.2007	 0.4205	60.4582	99.9525	
   941	 2.3616	 2.3738	 4.7354	-0.0121	 2.7992	 2.6938	 5.4930	 0.1054	 3.4682	 3.3446	 6.8128	 0.1236	59.7767	99.9545	
   942	 3.0046	 3.2313	 6.2360	-0.2267	 3.8558	 3.9662	 7.8220	-0.1105	 4.5324	 4.8640	 9.3964	-0.3316	58.4938	99.9398	
   943	 4.3551	 4.4533	 8.8085	-0.0982	 4.8733	 5.1391	10.0124	-0.2657	 5.1308	 5.6076	10.7384	-0.4769	58.1683	99.8972	
   944	 4.4135	 4.6508	 9.0643	-0.2372	 4.7984	 5.2204	10.0188	-0.4221	 4.9802	 5.6287	10.6089	-0.6485	58.1317	99.8998	
   945	 4.2331	 4.6314	 8.8644	-0.3983	 4.6507	 5.1945	 9.8452	-0.5437	 4.8495	 5.5833	10.4328	-0.7338	58.2285	99.8978	
   946	 4.1621	 4.4855	 8.6476	-0.3234	 4.6432	 4.9492	 9.5924	-0.3060	 4.7882	 5.2993	10.0875	-0.5111	58.7044	99.8940	
   947	 3.7903	 3.7312	 7.5215	 0.0591	 4.3292	 4.1132	 8.4423	 0.2159	 4.4621	 4.5184	 8.9805	-0.0563	59.2037	99.9002	
   948	 3.5038	 3.5006	 7.0045	 0.0032	 4.1281	 3.9662	 8.0943	 0.1618	 4.3362	 4.4535	 8.7897	-0.1172	59.0694	99.9035	
   949	 3.6170	 3.5684	 7.1853	 0.0486	 4.1632	 4.0002	 8.1634	 0.1630	 4.3007	 4.4432	 8.7439	-0.1425	58.9991	99.9003	
   950	 3.5442	 3.3919	 6.9361	 0.1524	 4.0310	 3.7808	 7.8118	 0.2501	 4.1882	 4.1843	 8.3725	 0.0039	59.2402	99.9030	
   951	 3.1617	 2.9856	 6.1473	 0.1761	 3.6457	 3.3198	 6.9654	 0.3259	 3.9119	 3.6917	 7.6036	 0.2202	59.7989	99.9099	
   952	 2.7388	 2.6882	 5.4269	 0.0506	 3.3314	 3.0537	 6.3851	 0.2777	 3.8114	 3.5523	 7.3637	 0.2591	59.9900	99.9269	
   953	 2.5798	 2.5044	 5.0842	 0.0755	 3.0486	 2.6419	 5.6905	 0.4066	 3.4376	 2.9782	 6.4158	 0.4594	60.7494	99.9256	
   954	 2.2413	 2.1836	 4.4249	 0.0577	 2.6112	 2.3140	 4.9252	 0.2971	 3.1228	 2.6418	 5.7646	 0.4810	60.9018	99.9353	
   955	 2.1416	 2.0796	 4.2212	 0.0620	 2.3764	 2.1594	 4.5358	 0.2170	 2.9482	 2.4239	 5.3721	 0.5243	61.1146	99.9407	
   956	 1.9064	 1.9240	 3.8304	-0.0176	 1.9566	 1.9055	 3.8621	 0.0511	 2.4406	 2.1953	 4.6359	 0.2453	60.7618	99.9491	
   957	 1.9450	 2.1835	 4.1285	-0.2384	 2.2891	 2.3726	 4.6617	-0.0835	 3.0209	 2.8158	 5.8368	 0.2051	60.6299	99.9520	
   958	 2.4452	 2.6010	 5.0462	-0.1558	 3.0018	 2.9810	 5.9827	 0.0208	 3.6946	 3.5489	 7.2435	 0.1456	60.0179	99.9435	
   959	 3.0243	 3.0364	 6.0607	-0.0120	 3.6196	 3.4433	 7.0630	 0.1762	 3.9721	 3.9525	 7.9246	 0.0195	59.4872	99.9184	
   960	 3.1626	 3.2669	 6.4295	-0.1042	 3.6899	 3.6252	 7.3151	 0.0647	 3.9016	 4.0557	 7.9573	-0.1542	59.3375	99.9087	
   961	 3.1716	 3.2870	 6.4586	-0.1154	 3.6601	 3.6832	 7.3432	-0.0231	 3.9455	 4.1160	 8.0615	-0.1705	59.2838	99.9129	
   962	 3.2757	 3.2016	 6.4774	 0.0742	 3.7144	 3.4754	 7.1898	 0.2391	 3.8902	 3.7234	 7.6137	 0.1668	59.9668	99.8983	
   963	 2.3050	 2.2070	 4.5120	 0.0981	 2.5317	 2.2026	 4.7343	 0.3290	 2.7435	 2.1878	 4.9314	 0.5557	61.4524	99.9006	
   964	 1.3299	 1.6676	 2.9975	-0.3376	 1.4725	 1.8027	 3.2751	-0.3302	 1.9535	 1.9117	 3.8652	 0.0418	60.9194	99.9224	
   965	 1.5948	 1.9296	 3.5244	-0.3347	 1.8441	 2.0274	 3.8716	-0.1834	 2.4015	 2.2277	 4.6291	 0.1738	61.0824	99.9329	
   966	 1.9046	 2.0264	 3.9309	-0.1217	 2.1378	 2.1671	 4.3048	-0.0293	 2.7663	 2.5158	 5.2821	 0.2505	60.7077	99.9464	
   967	 2.1246	 2.1876	 4.3122	-0.0630	 2.4758	 2.3841	 4.8599	 0.0916	 3.1342	 2.7497	 5.8839	 0.3845	60.7915	99.9426	
   968	 2.0653	 2.1078	 4.1731	-0.0425	 2.2984	 2.1882	 4.4866	 0.1102	 2.9638	 2.6129	 5.5767	 0.3509	60.7606	99.9562	
   969	 2.0025	 2.0997	 4.1022	-0.0972	 2.3428	 2.1517	 4.4945	 0.1911	 2.9205	 2.5642	 5.4847	 0.3562	60.8960	99.9496	
   970	 1.9962	 1.9925	 3.9887	 0.0036	 2.3374	 2.1738	 4.5112	 0.1636	 2.9638	 2.6129	 5.5767	 0.3509	60.6057	99.9474	
   971	 2.1721	 2.0683	 4.2405	 0.1038	 2.6112	 2.3140	 4.9252	 0.2971	 3.1492	 2.8149	 5.9641	 0.3343	60.2867	99.9414	
   972	 2.4101	 2.2699	 4.6800	 0.1403	 2.8543	 2.6131	 5.4674	 0.2412	 3.3714	 3.0503	 6.4217	 0.3210	60.1333	99.9302	
   973	 2.4828	 2.3134	 4.7962	 0.1695	 2.8566	 2.6525	 5.5090	 0.2041	 3.3713	 3.1625	 6.5338	 0.2088	59.7885	99.9386	
   974	 2.6840	 2.5520	 5.2359	 0.1320	 3.1020	 2.8769	 5.9789	 0.2251	 3.5874	 3.3943	 6.9817	 0.1931	59.7748	99.9371	
   975	 2.6418	 2.4972	 5.1389	 0.1446	 3.0737	 2.8472	 5.9209	 0.2265	 3.6320	 3.3540	 6.9860	 0.2780	59.9274	99.9382	
