OxySoft export of:	C:\Users\TO3 TechSupport\Documents\Train2Adapt\Post_tests\T2A_54_POST_NIRS
Export date:	2022/12/16 01:14:33
Start of measurement:	2022-12-16 00:18:35.990

Datafile sample rate:	10.00	Hz
Datafile duration:	3340.400	s
Datafile total number of samples:	33404

Description:	

Optode-template:	PortaMon TSI Fit Factor
Optode distance (mm):	 35.00
Optode gradients (mm):	 5.00
DPF:	6.61

Device id:	334
# Receivers:	1
# Light sources:	6
# ADC:	2

Light source wavelengths:
device	index	wavelength
1	1	849	nm
1	2	759	nm
1	3	846	nm
1	4	757	nm
1	5	848	nm
1	6	757	nm

Export sample rate:	10.00	Hz
Selected time span:	0	3340.400
Selected time span (sample numbers):	0	33404


Legend:
Column	Trace (Measurement)
1	(Sample number)
2	Rx1-Tx1 O2Hb (T2A_54_POST_NIRS)
3	Rx1-Tx1 HHb (T2A_54_POST_NIRS)
4	Rx1-Tx1 tHb (T2A_54_POST_NIRS)
5	Rx1-Tx2 O2Hb (T2A_54_POST_NIRS)
6	Rx1-Tx2 HHb (T2A_54_POST_NIRS)
7	Rx1-Tx2 tHb (T2A_54_POST_NIRS)
8	Rx1-Tx3 O2Hb (T2A_54_POST_NIRS)
9	Rx1-Tx3 HHb (T2A_54_POST_NIRS)
10	Rx1-Tx3 tHb (T2A_54_POST_NIRS)
11	Rx1-Tx1,Tx2,Tx3 TSI% (T2A_54_POST_NIRS)
12	Rx1-Tx1,Tx2,Tx3 TSI Fit Factor (T2A_54_POST_NIRS)
13	(Event)


1	2	3	4	5	6	7	8	9	10	11	12	13
     0	111.0122	57.7609	168.7731	86.2938	45.7606	132.0544	67.2289	40.2981	107.5271	11.5652	98.7634	
     1	-0.8396	-0.6435	-1.4832	-0.8865	-0.6554	-1.5420	-0.8420	-0.6462	-1.4881	63.6598	99.9925	
     2	-0.7396	-0.5820	-1.3215	-0.8058	-0.5936	-1.3994	-0.7723	-0.5918	-1.3639	63.6255	99.9924	
     3	-0.7300	-0.5479	-1.2779	-0.7850	-0.5686	-1.3536	-0.7428	-0.5626	-1.3053	63.6615	99.9925	
     4	-0.6607	-0.5053	-1.1660	-0.7352	-0.4893	-1.2246	-0.6399	-0.5086	-1.1484	63.7002	99.9916	
     5	-0.4847	-0.4110	-0.8957	-0.5052	-0.3962	-0.9014	-0.4296	-0.4190	-0.8485	63.8086	99.9918	
     6	-0.3250	-0.3408	-0.6658	-0.3543	-0.3398	-0.6941	-0.3317	-0.3575	-0.6891	63.7393	99.9922	
     7	-0.2933	-0.3072	-0.6005	-0.3210	-0.3192	-0.6403	-0.2813	-0.3471	-0.6283	63.8427	99.9921	
     8	-0.2856	-0.3025	-0.5880	-0.3077	-0.3110	-0.6187	-0.2698	-0.3399	-0.6095	63.8432	99.9921	
     9	-0.2846	-0.2878	-0.5724	-0.3061	-0.2858	-0.5919	-0.2837	-0.2954	-0.5790	63.7073	99.9923	
    10	-0.2615	-0.2736	-0.5351	-0.3038	-0.2478	-0.5516	-0.2702	-0.2550	-0.5250	63.6062	99.9920	
    11	-0.2596	-0.2443	-0.5039	-0.2838	-0.2355	-0.5193	-0.2841	-0.2105	-0.4945	63.5040	99.9928	
    12	-0.1818	-0.1823	-0.3640	-0.1521	-0.1787	-0.3308	-0.1358	-0.1386	-0.2742	63.6136	99.9931	
    13	-0.0596	-0.1211	-0.1807	-0.0146	-0.1304	-0.1450	 0.0106	-0.0998	-0.0892	63.7526	99.9931	
    14	 0.0164	-0.0884	-0.0720	 0.0011	-0.0843	-0.0832	 0.0068	-0.0703	-0.0634	63.6130	99.9927	
    15	 0.0414	-0.0449	-0.0035	 0.0360	-0.0385	-0.0025	 0.0254	-0.0373	-0.0118	63.6130	99.9925	
    16	 0.0501	-0.0255	 0.0246	 0.0235	-0.0341	-0.0106	 0.0031	-0.0407	-0.0375	63.6102	99.9926	
    17	 0.0048	-0.0392	-0.0344	-0.0282	-0.0417	-0.0699	-0.0691	-0.0435	-0.1124	63.5058	99.9926	
    18	-0.0625	-0.0526	-0.1151	-0.0992	-0.0489	-0.1480	-0.1087	-0.0577	-0.1663	63.5404	99.9924	
    19	-0.0683	-0.0280	-0.0963	-0.0408	-0.0372	-0.0780	-0.0403	-0.0254	-0.0656	63.6481	99.9929	
    20	-0.0000	-0.0000	-0.0000	-0.0000	 0.0000	 0.0000	-0.0000	-0.0000	 0.0000	63.6136	99.9926	
    21	-0.0010	-0.0147	-0.0156	-0.0141	-0.0208	-0.0349	-0.0288	-0.0181	-0.0468	63.5774	99.9927	
    22	-0.0462	-0.0284	-0.0746	-0.0666	-0.0410	-0.1076	-0.0793	-0.0286	-0.1077	63.5422	99.9929	
    23	-0.0991	-0.0470	-0.1461	-0.1258	-0.0653	-0.1911	-0.1477	-0.0609	-0.2085	63.5392	99.9928	
    24	-0.1915	-0.1038	-0.2953	-0.2434	-0.1013	-0.3446	-0.2767	-0.0888	-0.3654	63.3651	99.9927	
    25	-0.3223	-0.1843	-0.5066	-0.3958	-0.1830	-0.5788	-0.4033	-0.1683	-0.5716	63.3619	99.9926	
    26	-0.4925	-0.3032	-0.7957	-0.5341	-0.2439	-0.7781	-0.3996	-0.1979	-0.5974	63.4433	99.9919	
    27	-0.5175	-0.3467	-0.8642	-0.4565	-0.2326	-0.6891	-0.2984	-0.0811	-0.3794	63.2239	99.9929	
    28	-0.5194	-0.3760	-0.8954	-0.3174	-0.1591	-0.4765	-0.2262	-0.0783	-0.3045	63.2984	99.9913	
    29	-0.6915	-0.5242	-1.2157	-0.5055	-0.2992	-0.8048	-0.4981	-0.2705	-0.7685	63.2489	99.9897	
    30	-0.8060	-0.5806	-1.3866	-0.7164	-0.3927	-1.1090	-0.7341	-0.4188	-1.1528	63.2648	99.9891	
    31	-0.9176	-0.5931	-1.5107	-0.8731	-0.4406	-1.3137	-0.9055	-0.5052	-1.4105	63.3219	99.9888	
    32	-0.9388	-0.5780	-1.5168	-0.9107	-0.4273	-1.3380	-0.9373	-0.4826	-1.4198	63.2527	99.9892	
    33	-0.8975	-0.5103	-1.4078	-0.8409	-0.3357	-1.1767	-0.8496	-0.4062	-1.2557	63.2929	99.9884	
    34	-0.7821	-0.4393	-1.2213	-0.7159	-0.2830	-0.9990	-0.7518	-0.3447	-1.0964	63.2943	99.9888	
    35	-0.7350	-0.3962	-1.1311	-0.6802	-0.2246	-0.9048	-0.6962	-0.3417	-1.0379	63.4309	99.9871	
    36	-0.7524	-0.3225	-1.0748	-0.7578	-0.2360	-0.9938	-0.8164	-0.4066	-1.2230	63.5882	99.9873	
    37	-0.9699	-0.2594	-1.2294	-0.9564	-0.2368	-1.1932	-1.0241	-0.4519	-1.4759	63.7876	99.9872	
    38	-0.7757	-0.1117	-0.8874	-0.7566	-0.1137	-0.8703	-0.9757	-0.2938	-1.2695	63.4375	99.9876	
    39	-0.5756	 0.0115	-0.5641	-0.5794	 0.0562	-0.5232	-0.9644	-0.1057	-1.0700	62.8427	99.9855	
    40	-0.6806	 0.1016	-0.5790	-0.7251	 0.1852	-0.5399	-1.0187	 0.0943	-0.9243	62.4744	99.9883	
    41	-0.3008	 0.4902	 0.1894	-0.2180	 0.5097	 0.2918	-0.4830	 0.3458	-0.1371	63.1493	99.9870	
    42	 0.2004	 0.7003	 0.9007	 0.2844	 0.7584	 1.0429	 0.0379	 0.5347	 0.5727	63.3677	99.9843	
    43	 0.4796	 0.6751	 1.1547	 0.5100	 0.6787	 1.1888	 0.1724	 0.4702	 0.6427	63.3593	99.9857	
    44	 0.3864	 0.4911	 0.8776	 0.4139	 0.4737	 0.8877	 0.1431	 0.2602	 0.4034	63.6665	99.9867	
    45	 0.0614	 0.1504	 0.2118	 0.0055	 0.0885	 0.0940	-0.3248	-0.1509	-0.4756	63.6784	99.9867	
    46	-0.4253	-0.1774	-0.6026	-0.4835	-0.1520	-0.6356	-0.7226	-0.4115	-1.1340	63.6409	99.9847	
    47	-0.5368	-0.3023	-0.8391	-0.6567	-0.2587	-0.9155	-0.9156	-0.4903	-1.4058	63.3559	99.9854	
    48	-0.5049	-0.3812	-0.8862	-0.7148	-0.3674	-1.0822	-1.0341	-0.6179	-1.6519	63.2706	99.9854	
    49	-0.6011	-0.4967	-1.0978	-0.9178	-0.5411	-1.4589	-1.2447	-0.8035	-2.0480	63.2883	99.9869	
    50	-0.7463	-0.5720	-1.3184	-1.0977	-0.6519	-1.7496	-1.4671	-0.9113	-2.3784	63.2049	99.9876	
    51	-0.7531	-0.5621	-1.3152	-1.1494	-0.6594	-1.8088	-1.5776	-0.9062	-2.4837	62.9821	99.9881	
    52	-0.8685	-0.6332	-1.5017	-1.3344	-0.7491	-2.0835	-1.7689	-1.0477	-2.8165	63.0377	99.9872	
    53	-1.0177	-0.6547	-1.6723	-1.4778	-0.7888	-2.2666	-1.9304	-1.0641	-2.9944	62.9255	99.9881	
    54	-1.0398	-0.6542	-1.6940	-1.5503	-0.8213	-2.3716	-2.0493	-1.1068	-3.1560	62.8404	99.9884	
    55	-1.1235	-0.6917	-1.8152	-1.6953	-0.8864	-2.5816	-2.1837	-1.2232	-3.4068	62.9714	99.9878	
    56	-1.2419	-0.6942	-1.9361	-1.8038	-0.8803	-2.6841	-2.2992	-1.2107	-3.5098	62.8613	99.9877	
    57	-1.2554	-0.6744	-1.9297	-1.8504	-0.9090	-2.7594	-2.4028	-1.2758	-3.6785	62.9187	99.9874	
    58	-1.4083	-0.7545	-2.1628	-2.0679	-1.0066	-3.0744	-2.6789	-1.3534	-4.0322	62.6082	99.9882	
    59	-1.5277	-0.7716	-2.2993	-2.2297	-1.0333	-3.2630	-2.8150	-1.4070	-4.2219	62.6365	99.9879	
    60	-1.6682	-0.7737	-2.4419	-2.3774	-1.0393	-3.4167	-2.9688	-1.3866	-4.3553	62.4491	99.9887	
    61	-1.6327	-0.6815	-2.3142	-2.3135	-0.9392	-3.2526	-2.8774	-1.3398	-4.2171	62.6750	99.9871	
    62	-1.5634	-0.6389	-2.2023	-2.2719	-0.8893	-3.1612	-2.8612	-1.2551	-4.1162	62.4183	99.9879	
    63	-1.4971	-0.5277	-2.0248	-2.1822	-0.7854	-2.9675	-2.7945	-1.1600	-3.9544	62.4213	99.9876	
    64	-1.4586	-0.5040	-1.9626	-2.2022	-0.7977	-2.9998	-2.8428	-1.3181	-4.1608	62.8401	99.9837	
    65	-2.0501	-0.9666	-3.0167	-3.0373	-1.3486	-4.3859	-3.8025	-1.8040	-5.6064	62.0944	99.9879	
    66	-2.4514	-1.0026	-3.4540	-3.3394	-1.3646	-4.7039	-4.1050	-1.7706	-5.8755	61.8740	99.9885	
    67	-2.5996	-1.0094	-3.6091	-3.5129	-1.3743	-4.8872	-4.2923	-1.8457	-6.1379	61.9317	99.9865	
    68	-3.0451	-1.1571	-4.2022	-3.8064	-1.4579	-5.2643	-4.4833	-1.8912	-6.3744	62.0338	99.9861	
    69	-3.1088	-0.9993	-4.1080	-3.7178	-1.2696	-4.9874	-4.3422	-1.6642	-6.0063	62.1072	99.9863	
    70	-2.8761	-0.7153	-3.5915	-3.5151	-0.9990	-4.5140	-4.3051	-1.4174	-5.7224	61.6806	99.9841	
    71	-2.7080	-0.4008	-3.1088	-3.3844	-0.6512	-4.0356	-4.2640	-1.1042	-5.3681	61.2268	99.9808	
    72	-2.6630	-0.1620	-2.8250	-3.3087	-0.3615	-3.6702	-4.2340	-0.8831	-5.1170	61.0816	99.9743	
    73	-2.6611	-0.1327	-2.7938	-3.3588	-0.3438	-3.7026	-4.2903	-0.8971	-5.1873	61.0673	99.9738	
    74	-2.6938	-0.1810	-2.8748	-3.3510	-0.4241	-3.7751	-4.1581	-0.9099	-5.0679	61.3578	99.9802	
    75	-2.5697	-0.0905	-2.6602	-3.0869	-0.2978	-3.3847	-3.7650	-0.7267	-4.4916	61.6755	99.9822	
    76	-2.4178	 0.0874	-2.3304	-2.8101	 0.0306	-2.7795	-3.2453	-0.2831	-3.5283	61.5852	99.9848	
    77	-2.2496	 0.2895	-1.9601	-2.5491	 0.3130	-2.2361	-2.8689	 0.0812	-2.7876	61.4655	99.9863	
    78	-2.1506	 0.4489	-1.7017	-2.3636	 0.5122	-1.8514	-2.5802	 0.3691	-2.2110	61.4091	99.9885	
    79	-1.9574	 0.6945	-1.2629	-2.1802	 0.7832	-1.3969	-2.3603	 0.7095	-1.6506	61.0882	99.9901	
    80	-1.7862	 0.8280	-0.9582	-2.1488	 0.8755	-1.2733	-2.3562	 0.7759	-1.5802	60.9246	99.9903	
    81	-1.8825	 0.8250	-1.0574	-2.2005	 0.8679	-1.3326	-2.3779	 0.7836	-1.5942	61.0039	99.9906	
    82	-1.9382	 0.7626	-1.1756	-2.2789	 0.8439	-1.4349	-2.4328	 0.7917	-1.6410	60.7989	99.9907	
    83	-2.0729	 0.7359	-1.3370	-2.3572	 0.8199	-1.5373	-2.5375	 0.8004	-1.7370	60.6972	99.9913	
    84	-2.2471	 0.6709	-1.5761	-2.4473	 0.8130	-1.6343	-2.6638	 0.8168	-1.8469	60.4972	99.9908	
    85	-2.3231	 0.6382	-1.6849	-2.4426	 0.8889	-1.5537	-2.7245	 0.8213	-1.9031	60.3960	99.9857	
    86	-2.3067	 0.6623	-1.6444	-2.5194	 0.8902	-1.6292	-2.9009	 0.7423	-2.1585	60.2787	99.9829	
    87	-2.3961	 0.5370	-1.8592	-2.8255	 0.6044	-2.2211	-3.1919	 0.3253	-2.8665	60.7984	99.9841	
    88	-2.7713	 0.3341	-2.4372	-3.1665	 0.2728	-2.8937	-3.5978	-0.0681	-3.6658	61.2875	99.9840	
    89	-2.7944	 0.3199	-2.4745	-3.2222	 0.2021	-3.0201	-3.7671	-0.1213	-3.8883	61.0774	99.9850	
    90	-2.8329	 0.2962	-2.5366	-3.3017	 0.2624	-3.0392	-3.9948	-0.0409	-4.0356	60.2912	99.9817	
    91	-2.6908	 0.6651	-2.0256	-3.0989	 0.7397	-2.3592	-3.6334	 0.4417	-3.1916	60.2244	99.9808	
    92	-2.1416	 1.0454	-1.0961	-2.5894	 1.1022	-1.4872	-3.2269	 0.8462	-2.3806	59.8456	99.9823	
    93	-1.7818	 1.2388	-0.5430	-2.2112	 1.3108	-0.9004	-2.8751	 1.0779	-1.7971	59.7680	99.9824	
    94	-1.6135	 1.3283	-0.2851	-1.9894	 1.3746	-0.6149	-2.6515	 1.1119	-1.5395	60.1028	99.9814	
    95	-1.6287	 1.2064	-0.4224	-1.9973	 1.2482	-0.7492	-2.5969	 1.0079	-1.5889	60.2913	99.9833	
    96	-1.6719	 1.1094	-0.5625	-1.9711	 1.1550	-0.8162	-2.4976	 0.9106	-1.5869	60.6660	99.9833	
    97	-2.0605	 0.8139	-1.2466	-2.3799	 0.8667	-1.5132	-2.8361	 0.6234	-2.2126	60.7561	99.9841	
    98	-2.4559	 0.6409	-1.8150	-2.7710	 0.7595	-2.0115	-3.1250	 0.5164	-2.6085	60.6896	99.9834	
    99	-2.6242	 0.5513	-2.0729	-3.0351	 0.6332	-2.4019	-3.4064	 0.3502	-3.0561	60.6501	99.9834	
   100	-2.7455	 0.5048	-2.2407	-3.2502	 0.5736	-2.6766	-3.6574	 0.3202	-3.3370	60.2634	99.9850	
   101	-2.8109	 0.5208	-2.2901	-3.3595	 0.5670	-2.7925	-3.8030	 0.2926	-3.5103	60.1673	99.9847	
   102	-2.8850	 0.5174	-2.3677	-3.5354	 0.5194	-3.0160	-4.0018	 0.2102	-3.7915	60.0915	99.9850	
   103	-2.9899	 0.4950	-2.4949	-3.6679	 0.4499	-3.2179	-4.1935	 0.1536	-4.0397	59.9536	99.9861	
   104	-3.1295	 0.5076	-2.6219	-3.8755	 0.4071	-3.4685	-4.5129	 0.0913	-4.4215	59.6773	99.9862	
   105	-3.4143	 0.4448	-2.9695	-4.2583	 0.3292	-3.9291	-4.9569	-0.0174	-4.9742	59.3195	99.9855	
   106	-3.7089	 0.4605	-3.2484	-4.6140	 0.3774	-4.2366	-5.3041	 0.0092	-5.2948	58.9566	99.9844	
   107	-3.9640	 0.5145	-3.4495	-4.8412	 0.4318	-4.4094	-5.5325	 0.0786	-5.4538	58.7660	99.9847	
   108	-4.1787	 0.6215	-3.5572	-4.9743	 0.5563	-4.4180	-5.6610	 0.2427	-5.4182	58.5664	99.9851	
   109	-4.1683	 0.7827	-3.3856	-4.9116	 0.7408	-4.1707	-5.6605	 0.4346	-5.2257	58.3177	99.9837	
   110	-4.0366	 0.9904	-3.0463	-4.8139	 0.9711	-3.8428	-5.6000	 0.6110	-4.9888	58.1625	99.9807	
   111	-3.9310	 1.2524	-2.6786	-4.7781	 1.2361	-3.5420	-5.6987	 0.9002	-4.7984	57.4222	99.9804	
   112	-3.8274	 1.5976	-2.2298	-4.7411	 1.6234	-3.1176	-5.7329	 1.2513	-4.4815	56.8475	99.9771	
   113	-3.7776	 1.9096	-1.8680	-4.7781	 1.9530	-2.8251	-5.8438	 1.5222	-4.3216	56.3572	99.9734	
   114	-3.9145	 2.0786	-1.8359	-4.9630	 2.0700	-2.8930	-6.1189	 1.5516	-4.5673	56.2350	99.9691	
   115	-3.9799	 2.0946	-1.8853	-5.1048	 2.0555	-3.0493	-6.2090	 1.5269	-4.6820	56.2492	99.9723	
   116	-4.0300	 2.1201	-1.9100	-5.0766	 2.0972	-2.9794	-6.0780	 1.5880	-4.4899	56.5451	99.9738	
   117	-4.0811	 2.2434	-1.8378	-5.0181	 2.3155	-2.7026	-5.9295	 1.9367	-3.9927	56.1862	99.9774	
   118	-4.1709	 2.4555	-1.7154	-4.9176	 2.6933	-2.2243	-5.6420	 2.4793	-3.1626	55.8557	99.9806	
   119	-4.2028	 2.6469	-1.5560	-4.7192	 2.9977	-1.7215	-5.2653	 2.9395	-2.3257	55.8587	99.9840	
   120	-4.1549	 2.8171	-1.3378	-4.5655	 3.2017	-1.3638	-4.9599	 3.2272	-1.7326	56.0239	99.9869	
   121	-4.0598	 3.0304	-1.0294	-4.3993	 3.4013	-0.9980	-4.7576	 3.4608	-1.2966	56.1195	99.9882	
   122	-4.0357	 3.0593	-0.9765	-4.4161	 3.4396	-0.9765	-4.6756	 3.5336	-1.1419	56.1177	99.9897	
   123	-3.9541	 3.1799	-0.7742	-4.2656	 3.5930	-0.6725	-4.4983	 3.7196	-0.7786	56.1086	99.9899	
   124	-3.8521	 3.2708	-0.5813	-4.2150	 3.6850	-0.5300	-4.4431	 3.8074	-0.6356	56.0026	99.9899	
   125	-3.8397	 3.3488	-0.4909	-4.2020	 3.7902	-0.4119	-4.4161	 3.8883	-0.5277	55.9792	99.9890	
   126	-3.8638	 3.4324	-0.4314	-4.2047	 3.8492	-0.3555	-4.4853	 4.0258	-0.4594	55.6356	99.9909	
   127	-3.9370	 3.4437	-0.4933	-4.2717	 3.9052	-0.3665	-4.5700	 4.0896	-0.4803	55.3981	99.9903	
   128	-3.9698	 3.5079	-0.4619	-4.2587	 4.0104	-0.2483	-4.5881	 4.2486	-0.3394	55.0849	99.9906	
   129	-3.8919	 3.5699	-0.3219	-4.1752	 4.2198	 0.0447	-4.5517	 4.4843	-0.0672	54.4762	99.9882	
   130	-3.6398	 3.6970	 0.0571	-3.9623	 4.4481	 0.4858	-4.3916	 4.6594	 0.2680	54.1794	99.9839	
   131	-3.3975	 3.9024	 0.5049	-3.9113	 4.6497	 0.7384	-4.5373	 4.8127	 0.2754	53.3952	99.9814	
   132	-3.5669	 3.9107	 0.3438	-4.2514	 4.5373	 0.2860	-4.8881	 4.5071	-0.3808	53.7659	99.9786	
   133	-4.0950	 3.6278	-0.4672	-4.8327	 3.9484	-0.8843	-5.4888	 3.8209	-1.6678	54.6809	99.9832	
   134	-4.4548	 3.4345	-1.0203	-5.2442	 3.7192	-1.5249	-5.9571	 3.4947	-2.4622	54.7334	99.9798	
   135	-4.5097	 3.4991	-1.0106	-5.4181	 3.8065	-1.6116	-6.1828	 3.6084	-2.5743	54.0620	99.9807	
   136	-4.4974	 3.6896	-0.8077	-5.3298	 4.0917	-1.2380	-6.0828	 3.9799	-2.1028	53.5915	99.9811	
   137	-4.2264	 4.1098	-0.1166	-4.9558	 4.5408	-0.4150	-5.6488	 4.3803	-1.2683	53.9286	99.9782	
   138	-3.7618	 4.4380	 0.6761	-4.5881	 4.8888	 0.3007	-5.3523	 4.7050	-0.6471	53.5736	99.9769	
   139	-3.7205	 4.5056	 0.7851	-4.5015	 4.9422	 0.4407	-5.3076	 4.7119	-0.5956	53.7441	99.9737	
   140	-3.9042	 4.4066	 0.5023	-4.7249	 4.8532	 0.1283	-5.4935	 4.6589	-0.8345	53.5523	99.9763	
   141	-4.0688	 4.3756	 0.3068	-4.8440	 4.7919	-0.0521	-5.6148	 4.6678	-0.9469	53.4565	99.9797	
   142	-4.3921	 4.2891	-0.1030	-5.0815	 4.6821	-0.3994	-5.7638	 4.5848	-1.1788	53.7401	99.9818	
   143	-4.6884	 4.1630	-0.5254	-5.2981	 4.5972	-0.7009	-5.8450	 4.5231	-1.3218	53.9857	99.9825	
   144	-4.9259	 3.9183	-1.0076	-5.4867	 4.3474	-1.1393	-6.0020	 4.3074	-1.6946	54.1266	99.9837	
   145	-5.1761	 3.8206	-1.3555	-5.8229	 4.2982	-1.5246	-6.2730	 4.2223	-2.0506	53.9481	99.9825	
   146	-5.3531	 3.8241	-1.5290	-6.0705	 4.2307	-1.8398	-6.5510	 4.1114	-2.4395	53.9261	99.9829	
   147	-5.5004	 3.8320	-1.6685	-6.3400	 4.2227	-2.1174	-6.8237	 4.0891	-2.7345	53.5986	99.9835	
   148	-5.6199	 3.9273	-1.6926	-6.5163	 4.2720	-2.2443	-7.0466	 4.0661	-2.9803	53.5482	99.9820	
   149	-5.8229	 3.8726	-1.9502	-6.8799	 4.1938	-2.6861	-7.4554	 3.9902	-3.4651	52.9866	99.9831	
   150	-6.0453	 3.9749	-2.0704	-7.1063	 4.2609	-2.8454	-7.7203	 4.0047	-3.7155	52.9213	99.9818	
   151	-6.1734	 4.0508	-2.1226	-7.3159	 4.2897	-3.0262	-8.0018	 4.0194	-3.9823	52.5618	99.9823	
   152	-6.4429	 4.1100	-2.3329	-7.6465	 4.3291	-3.3175	-8.4294	 4.0913	-4.3379	51.8666	99.9835	
   153	-6.7001	 4.2472	-2.4528	-7.9626	 4.4989	-3.4637	-8.7719	 4.1954	-4.5764	51.4538	99.9803	
   154	-7.0505	 4.3129	-2.7376	-8.3892	 4.5398	-3.8494	-9.2820	 4.1835	-5.0984	50.9590	99.9784	
   155	-7.7924	 4.1517	-3.6407	-9.0921	 4.3619	-4.7302	-10.0160	 4.0417	-5.9743	50.5111	99.9793	
   156	-8.2439	 4.2536	-3.9903	-9.4639	 4.4610	-5.0029	-10.4758	 4.2211	-6.2547	49.8365	99.9806	
   157	-8.3722	 4.5545	-3.8176	-9.6094	 4.7965	-4.8129	-10.7071	 4.6079	-6.0991	48.9478	99.9806	
   158	-8.1831	 5.0790	-3.1041	-9.4512	 5.3800	-4.0712	-10.6737	 5.1612	-5.5124	48.1512	99.9756	
   159	-8.1748	 5.4359	-2.7389	-9.5987	 5.7873	-3.8114	-10.9351	 5.5078	-5.4272	47.1288	99.9706	
   160	-8.0877	 5.9819	-2.1058	-9.5866	 6.3901	-3.1966	-10.9975	 6.0328	-4.9646	46.4059	99.9635	
   161	-8.0014	 6.2883	-1.7131	-9.6613	 6.7329	-2.9284	-11.0854	 6.3181	-4.7672	45.7836	99.9615	
   162	-7.9284	 6.5021	-1.4264	-9.6478	 6.9477	-2.7001	-11.0328	 6.6386	-4.3941	45.2936	99.9701	
   163	-7.9710	 6.7573	-1.2138	-9.5689	 7.2879	-2.2810	-10.9034	 7.0393	-3.8640	45.1528	99.9695	
   164	-7.9637	 7.0995	-0.8642	-9.3003	 7.7936	-1.5067	-10.4340	 7.7493	-2.6846	45.1905	99.9749	
   165	-7.8830	 7.3180	-0.5651	-8.9499	 8.0702	-0.8797	-9.9482	 8.1823	-1.7658	45.6415	99.9794	
   166	-7.9322	 7.3581	-0.5741	-8.7798	 8.1264	-0.6535	-9.5507	 8.3470	-1.2036	46.4728	99.9844	
   167	-7.8588	 7.1218	-0.7369	-8.5688	 7.9162	-0.6526	-9.2495	 8.2914	-0.9580	46.7991	99.9886	
   168	-7.9338	 7.1038	-0.8301	-8.6711	 7.8167	-0.8544	-9.2606	 8.1993	-1.0612	47.1413	99.9911	
   169	-7.9942	 6.8555	-1.1387	-8.7362	 7.5943	-1.1419	-9.2852	 8.0667	-1.2184	47.0400	99.9926	
   170	-7.9951	 6.7284	-1.2667	-8.7688	 7.5864	-1.1823	-9.1741	 8.0727	-1.1014	47.0542	99.9915	
   171	-7.9498	 6.7422	-1.2077	-8.6837	 7.6145	-1.0692	-9.0844	 8.1822	-0.9021	46.9281	99.9927	
   172	-7.8912	 6.8486	-1.0426	-8.6257	 7.7232	-0.9025	-8.9961	 8.2697	-0.7263	47.0287	99.9923	
   173	-7.8961	 6.8878	-1.0083	-8.6484	 7.7699	-0.8784	-9.0202	 8.3291	-0.6910	46.8917	99.9924	
   174	-7.9154	 6.9322	-0.9832	-8.6711	 7.8167	-0.8544	-9.0538	 8.4144	-0.6393	46.6970	99.9929	
   175	-7.9482	 6.9965	-0.9517	-8.7290	 7.9147	-0.8143	-9.0779	 8.4738	-0.6040	46.6682	99.9919	
   176	-7.9954	 7.0659	-0.9295	-8.7693	 7.9870	-0.7823	-9.1223	 8.5629	-0.5593	46.5423	99.9922	
   177	-7.9445	 7.1676	-0.7769	-8.6846	 8.1121	-0.5725	-8.9944	 8.6646	-0.3296	46.7151	99.9916	
   178	-7.7983	 7.2576	-0.5407	-8.5197	 8.1894	-0.3302	-8.8498	 8.7661	-0.0836	46.7187	99.9922	
   179	-7.7570	 7.3252	-0.4317	-8.5384	 8.2994	-0.2390	-8.8305	 8.8102	-0.0202	46.7079	99.9906	
   180	-7.7907	 7.3748	-0.4159	-8.5510	 8.3038	-0.2471	-8.9197	 8.8925	-0.0270	46.4140	99.9924	
   181	-7.8524	 7.4494	-0.4030	-8.6238	 8.3683	-0.2555	-9.0101	 8.9528	-0.0573	46.2844	99.9924	
   182	-7.9073	 7.5141	-0.3932	-8.7142	 8.4584	-0.2559	-9.0993	 9.0351	-0.0641	46.0632	99.9920	
   183	-7.9141	 7.6365	-0.2776	-8.6930	 8.5930	-0.1001	-9.0140	 9.1632	 0.1493	46.2089	99.9917	
   184	-7.7497	 7.7800	 0.0302	-8.4857	 8.7328	 0.2471	-8.8495	 9.3198	 0.4704	46.1907	99.9922	
   185	-7.6093	 7.8945	 0.2852	-8.3751	 8.8617	 0.4865	-8.7476	 9.4477	 0.7001	46.0718	99.9921	
   186	-7.5315	 8.0691	 0.5375	-8.3057	 9.0503	 0.7446	-8.6712	 9.6128	 0.9417	46.0319	99.9916	
   187	-7.3528	 8.4323	 1.0795	-8.1284	 9.4268	 1.2983	-8.5228	 9.9616	 1.4389	45.8738	99.9910	
   188	-6.9848	 8.9825	 1.9978	-7.7505	 9.9390	 2.1885	-8.2647	10.4750	 2.2104	45.5709	99.9915	
   189	-6.7012	 9.3682	 2.6670	-7.5199	10.3484	 2.8285	-8.0633	10.7825	 2.7192	45.5037	99.9891	
   190	-6.3579	 9.6499	 3.2920	-7.2103	10.5877	 3.3774	-7.8114	10.9195	 3.1082	45.6998	99.9870	
   191	-6.3413	 9.4490	 3.1077	-7.3056	10.3953	 3.0898	-7.9024	10.7878	 2.8854	45.3675	99.9889	
   192	-6.4558	 9.3926	 2.9368	-7.3808	10.4219	 3.0411	-7.9506	10.9065	 2.9560	45.0333	99.9896	
   193	-5.9013	 9.2837	 3.3824	-6.5569	10.3827	 3.8258	-6.9231	10.7752	 3.8521	46.7837	99.9863	
   194	-5.2415	 8.7472	 3.5057	-5.8344	 9.9530	 4.1187	-6.6366	10.4762	 3.8396	45.9652	99.9824	
   195	-5.5757	 8.9495	 3.3738	-6.2401	10.2255	 3.9855	-7.0592	10.7215	 3.6624	45.2625	99.9799	
   196	-5.9734	 9.1971	 3.2237	-6.5319	10.3738	 3.8420	-7.1813	10.9003	 3.7191	45.7443	99.9851	
   197	-5.5684	 9.4042	 3.8358	-6.0393	10.5679	 4.5286	-6.6419	11.1222	 4.4804	46.1918	99.9863	
   198	-5.1623	 9.4010	 4.2387	-5.5605	10.6442	 5.0836	-6.1934	11.2124	 5.0191	46.3243	99.9839	
   199	-5.0775	 9.3406	 4.2631	-5.5970	10.5731	 4.9761	-6.4695	11.1347	 4.6654	45.5304	99.9813	
   200	-5.6100	 9.5616	 3.9516	-6.6206	10.6958	 4.0752	-7.2492	11.0599	 3.8108	45.1581	99.9847	
   201	-6.2672	 9.4524	 3.1852	-7.2022	10.4105	 3.2083	-7.9566	10.8069	 2.8504	45.0274	99.9877	
   202	-6.6867	 9.2505	 2.5638	-7.5995	10.2021	 2.6026	-8.3044	10.6416	 2.3373	44.9643	99.9891	
   203	-6.9916	 9.1050	 2.1133	-7.8993	10.0174	 2.1181	-8.5918	10.3759	 1.7841	45.2216	99.9876	
   204	-7.1272	 8.9512	 1.8240	-8.0996	 9.7847	 1.6851	-8.7976	10.0869	 1.2894	45.4072	99.9878	
   205	-7.4897	 8.6013	 1.1117	-8.5335	 9.5053	 0.9718	-9.1599	 9.9550	 0.7952	44.7880	99.9905	
   206	-8.0794	 8.2805	 0.2012	-8.9802	 9.3273	 0.3471	-9.5420	 9.8639	 0.3221	44.5313	99.9901	
   207	-8.6065	 8.0123	-0.5942	-9.4896	 9.1715	-0.3181	-10.0385	 9.7116	-0.3267	44.1066	99.9882	
   208	-8.6443	 8.2282	-0.4160	-9.4063	 9.4779	 0.0715	-9.9936	 9.9953	 0.0017	43.9850	99.9846	
   209	-8.3577	 8.4328	 0.0752	-9.2708	 9.3912	 0.1204	-9.8027	 9.7640	-0.0387	44.9705	99.9878	
   210	-8.0314	 8.4508	 0.4194	-8.9155	 9.4401	 0.5246	-9.3472	 9.8799	 0.5328	45.2732	99.9892	
   211	-7.3935	 8.7168	 1.3233	-8.2124	 9.8245	 1.6121	-8.7094	10.3552	 1.6460	44.9752	99.9892	
   212	-7.0732	 8.8718	 1.7986	-7.8990	 9.9205	 2.0215	-8.4709	10.4518	 1.9810	45.0310	99.9899	
   213	-7.1983	 8.8792	 1.6809	-8.0388	10.0409	 2.0021	-8.5612	10.6080	 2.0469	44.6364	99.9892	
   214	-7.1667	 9.0253	 1.8586	-7.9533	10.1786	 2.2253	-8.4630	10.7655	 2.3025	44.7128	99.9897	
   215	-6.7203	 9.1876	 2.4673	-7.2821	10.3612	 3.0791	-7.7315	10.9591	 3.2277	45.5849	99.9892	
   216	-5.9775	 9.4760	 3.4984	-6.8055	10.8128	 4.0073	-7.3586	11.4489	 4.0904	44.3993	99.9879	
   217	-5.9855	 9.6962	 3.7108	-6.6781	10.9034	 4.2253	-7.0598	11.4450	 4.3853	45.6459	99.9883	
   218	-5.3693	 9.5127	 4.1434	-5.9851	10.8200	 4.8349	-6.3680	11.3475	 4.9796	46.1397	99.9858	
   219	-4.9602	 9.4410	 4.4808	-5.5961	10.7924	 5.1962	-6.2053	11.2901	 5.0848	45.7823	99.9815	
   220	-5.5001	 9.4322	 3.9321	-6.3287	10.7541	 4.4254	-7.0559	11.2346	 4.1788	44.7331	99.9817	
   221	-5.8488	 9.7522	 3.9034	-6.5852	11.0578	 4.4727	-7.2483	11.6246	 4.3765	44.5250	99.9851	
   222	-5.7883	 9.8879	 4.0996	-6.5754	11.1125	 4.5371	-7.2669	11.5916	 4.3249	44.7116	99.9842	
   223	-5.6064	 9.8452	 4.2388	-6.2620	11.0018	 4.7398	-6.7809	11.3861	 4.6052	46.0899	99.9836	
   224	-5.1518	 9.5622	 4.4104	-5.7980	10.5343	 4.7363	-6.3994	10.8275	 4.4281	47.1213	99.9838	
   225	-5.2353	 9.2997	 4.0644	-5.4790	10.0018	 4.5228	-6.0693	10.6091	 4.5399	48.1758	99.9947	
   226	-4.7439	 9.7008	 4.9569	-5.2965	11.2806	 5.9841	-4.9487	10.9195	 5.9710	50.0187	99.9476	
   227	-4.9476	10.3211	 5.3736	-5.3841	11.7249	 6.3408	-5.8586	12.4446	 6.5861	45.3884	99.9878	
   228	-5.0625	10.7147	 5.6522	-5.5335	12.2039	 6.6704	-6.1720	12.9396	 6.7677	44.3062	99.9849	
   229	-4.9866	10.8599	 5.8733	-5.5619	12.4658	 6.9039	-6.0527	12.8975	 6.8448	44.8531	99.9734	
   230	-4.5219	11.0756	 6.5537	-5.1098	13.2425	 8.1327	-5.1130	12.8706	 7.7577	46.8354	99.9112	
   231	-3.7750	 9.0309	 5.2559	-4.1222	 9.5741	 5.4520	-4.7012	 9.2442	 4.5432	52.0935	99.9658	
   232	-4.1498	 8.4906	 4.3408	-4.7520	 9.0282	 4.2761	-5.6132	 9.8207	 4.2077	47.7549	99.9982	
   233	-4.4095	 9.2735	 4.8640	-5.2335	10.4447	 5.2112	-6.5384	12.2836	 5.7453	40.9558	99.9978	
   234	-4.9057	 9.8263	 4.9206	-5.9537	11.6291	 5.6753	-6.5650	12.5755	 6.0106	42.1948	99.9882	
   235	-4.7456	 9.4465	 4.7009	-5.4708	10.7481	 5.2773	-5.8810	11.0681	 5.1872	46.8008	99.9797	
   236	-4.3102	 9.0954	 4.7852	-5.0178	10.1037	 5.0859	-5.6119	10.4814	 4.8696	47.5160	99.9864	
   237	-4.4591	 8.8489	 4.3898	-5.2249	 9.6602	 4.4353	-5.9059	 9.9241	 4.0183	48.0527	99.9865	
   238	-5.8970	 7.8652	 1.9682	-6.7510	 8.6107	 1.8597	-7.4889	 9.1103	 1.6215	46.8949	99.9931	
   239	-6.7435	 8.3712	 1.6277	-6.6363	 9.2160	 2.5797	-6.9614	 9.4099	 2.4486	50.0999	99.9782	
   240	-5.4502	 8.6046	 3.1544	-5.9788	10.2043	 4.2255	-6.4980	11.2126	 4.7148	44.5349	99.9912	
   241	-5.2804	 9.1735	 3.8931	-5.9730	10.7060	 4.7329	-6.4851	11.2420	 4.7570	45.2721	99.9799	
   242	-4.8629	 9.3461	 4.4832	-5.0906	11.0916	 6.0011	-5.4014	12.0401	 6.6388	45.5372	99.9873	
   243	-3.4008	10.2462	 6.8454	-3.6399	11.7544	 8.1145	-4.0170	12.1330	 8.1161	47.7583	99.9721	
   244	-3.2957	 9.0164	 5.7208	-3.4839	 9.6392	 6.1553	-4.4333	 9.8277	 5.3945	50.2058	99.9774	
   245	-3.5153	 8.2480	 4.7327	-4.0875	 9.2067	 5.1192	-4.6787	 9.5245	 4.8459	49.2357	99.9845	
   246	-3.9144	 7.9039	 3.9895	-4.5614	 8.6960	 4.1346	-5.1638	 9.1025	 3.9388	49.2049	99.9906	
   247	-4.2885	 7.6032	 3.3147	-4.9859	 8.3617	 3.3758	-5.6290	 8.7357	 3.1069	49.1153	99.9902	
   248	-5.1841	 7.1222	 1.9381	-5.7190	 8.0072	 2.2881	-6.0652	 8.6638	 2.5987	48.8930	99.9939	
   249	-5.3680	 7.2482	 1.8801	-5.9412	 8.0405	 2.0993	-6.2063	 8.4368	 2.2306	49.7708	99.9910	
   250	-5.5917	 6.6461	 1.0544	-6.8181	 7.0264	 0.2083	-7.6496	 7.3702	-0.2793	48.1654	99.9940	
   251	-6.7669	 6.6403	-0.1266	-7.2247	 7.7965	 0.5718	-7.5331	 8.3800	 0.8470	47.9317	99.9889	
   252	-5.8446	 7.4191	 1.5745	-6.3671	 8.6043	 2.2372	-6.9188	 9.1067	 2.1879	47.3747	99.9845	
   253	-5.5938	 7.7564	 2.1627	-6.0336	 8.7125	 2.6788	-6.7516	 9.3075	 2.5560	47.4726	99.9899	
   254	-3.9714	 9.0788	 5.1075	-3.6709	 9.4147	 5.7438	-4.5052	 9.4632	 4.9581	52.4058	99.9738	
   255	-3.3121	 7.1631	 3.8509	-4.1034	 8.0305	 3.9271	-4.6022	 8.3164	 3.7143	50.1145	99.9872	
   256	-3.4710	 7.2200	 3.7490	-4.0553	 7.8779	 3.8226	-4.8117	 8.0571	 3.2454	50.7356	99.9845	
   257	-3.6210	 7.0714	 3.4504	-4.3045	 7.7851	 3.4806	-4.9669	 8.0554	 3.0886	50.3127	99.9880	
   258	-3.8182	 6.9922	 3.1740	-4.4554	 7.7286	 3.2733	-5.1017	 8.0239	 2.9223	50.2624	99.9881	
   259	-4.0366	 6.9281	 2.8915	-4.5921	 7.6930	 3.1009	-5.2276	 7.9554	 2.7278	50.4103	99.9859	
   260	-4.0308	 6.9035	 2.8727	-4.5619	 7.6630	 3.1010	-5.1305	 8.0058	 2.8754	50.4491	99.9889	
   261	-3.7806	 6.8887	 3.1082	-4.2658	 7.6875	 3.4217	-4.8334	 8.0647	 3.2314	50.5294	99.9889	
   262	-3.6564	 6.8667	 3.2103	-4.1530	 7.6476	 3.4947	-4.7033	 8.0188	 3.3156	50.7048	99.9893	
   263	-3.6362	 6.8369	 3.2008	-4.1044	 7.6046	 3.5002	-4.6816	 8.0111	 3.3296	50.6797	99.9901	
   264	-3.5342	 6.9278	 3.3936	-4.0828	 7.6422	 3.5594	-4.7538	 8.0083	 3.2547	50.5121	99.9898	
   265	-3.7999	 6.9331	 3.1333	-4.4542	 7.6443	 3.1900	-5.0979	 7.9943	 2.8965	50.1948	99.9902	
   266	-4.1271	 6.9006	 2.7735	-4.7955	 7.6163	 2.8208	-5.4058	 7.9392	 2.5335	50.1174	99.9896	
   267	-4.2213	 6.8144	 2.5931	-4.9652	 7.4631	 2.4980	-5.6705	 7.5920	 1.9216	50.4240	99.9848	
   268	-4.5463	 6.4736	 1.9273	-5.3360	 7.0646	 1.7286	-6.0181	 7.2458	 1.2278	50.4056	99.9881	
   269	-5.0037	 6.7126	 1.7089	-5.5264	 7.8100	 2.2836	-5.9969	 8.4193	 2.4225	48.5470	99.9901	
   270	-4.7222	 7.1815	 2.4593	-5.0847	 8.2157	 3.1311	-5.5676	 8.7423	 3.1748	49.1878	99.9883	
   271	-4.4210	 7.2684	 2.8474	-4.8159	 8.2112	 3.3953	-5.3433	 8.6065	 3.2633	49.7409	99.9861	
   272	-3.9555	 7.6112	 3.6557	-4.1763	 8.6052	 4.4289	-4.6180	 9.0623	 4.4443	50.1396	99.9867	
   273	-3.6544	 7.8106	 4.1562	-3.7743	 8.6827	 4.9084	-4.3144	 8.9550	 4.6407	51.0396	99.9807	
   274	-3.3662	 7.3549	 3.9887	-3.5118	 8.0669	 4.5551	-3.9125	 8.1858	 4.2734	52.6692	99.9816	
   275	-2.6331	 6.6946	 4.0615	-2.9253	 7.4076	 4.4823	-3.4050	 7.6957	 4.2908	52.5522	99.9878	
   276	-2.8098	 6.2482	 3.4384	-3.1148	 6.9385	 3.8238	-3.6073	 7.2812	 3.6740	52.5977	99.9896	
   277	-3.0127	 6.0810	 3.0683	-3.3319	 6.7440	 3.4121	-3.7514	 7.0948	 3.3434	52.7827	99.9909	
   278	-3.0454	 6.0328	 2.9874	-3.4283	 6.6360	 3.2077	-3.8069	 6.9109	 3.1042	53.1265	99.9905	
   279	-3.0905	 5.9065	 2.8160	-3.4735	 6.4259	 2.9524	-3.7454	 6.7367	 2.9913	53.5777	99.9926	
   280	-3.4358	 5.7080	 2.2722	-3.8604	 6.0783	 2.2179	-4.0873	 6.3941	 2.3069	53.9275	99.9937	
   281	-3.5542	 5.7055	 2.1513	-4.1183	 5.8465	 1.7282	-4.4932	 6.0007	 1.5076	54.3089	99.9939	
   282	-3.8020	 5.1871	 1.3851	-4.4873	 5.8865	 1.3992	-4.9241	 6.4750	 1.5510	51.1911	99.9941	
   283	-3.8616	 6.0931	 2.2315	-4.1944	 7.0875	 2.8931	-4.5926	 7.6519	 3.0594	50.7449	99.9904	
   284	-3.5772	 6.6059	 3.0287	-3.9308	 7.6143	 3.6835	-4.3992	 8.1034	 3.7044	50.5268	99.9879	
   285	-2.8983	 7.1646	 4.2663	-3.2100	 8.3865	 5.1765	-3.6287	 9.2156	 5.5871	49.3149	99.9928	
   286	-2.3771	 7.6824	 5.3053	-2.7744	 8.1809	 5.4065	-3.1452	 7.6886	 4.5436	54.8764	99.9641	
   287	-2.4687	 5.8110	 3.3423	-2.5862	 6.3772	 3.7910	-3.1662	 6.3342	 3.1681	54.8056	99.9748	
   288	-2.4779	 5.4394	 2.9615	-3.0910	 5.8840	 2.7929	-3.7232	 6.0055	 2.2824	53.6288	99.9888	
   289	-2.7271	 5.3564	 2.6292	-3.1662	 5.9105	 2.7443	-3.6322	 6.1372	 2.5052	53.7294	99.9898	
   290	-2.6299	 5.3740	 2.7441	-3.0887	 5.9219	 2.8332	-3.7202	 6.1457	 2.4256	53.3572	99.9886	
   291	-3.0668	 5.2458	 2.1790	-3.3969	 6.0114	 2.6145	-4.0225	 6.2751	 2.2527	52.7592	99.9835	
   292	-3.3150	 5.1774	 1.8623	-3.4118	 5.9779	 2.5661	-3.7617	 6.3751	 2.6135	53.3927	99.9885	
   293	-2.8897	 5.2422	 2.3526	-3.0585	 5.8918	 2.8333	-3.4557	 6.2162	 2.7605	53.9603	99.9896	
   294	-2.6743	 5.4874	 2.8131	-2.8366	 6.1622	 3.3255	-3.1347	 6.3966	 3.2619	54.3522	99.9875	
   295	-2.2703	 5.6798	 3.4096	-2.5259	 6.3172	 3.7913	-2.9479	 6.5566	 3.6088	54.0460	99.9880	
   296	-1.9690	 5.6542	 3.6853	-2.3756	 6.0574	 3.6818	-2.9192	 6.2978	 3.3787	54.2736	99.9922	
   297	-1.8757	 5.7257	 3.8500	-2.0621	 6.1533	 4.0912	-2.5083	 6.2261	 3.7179	55.4392	99.9867	
   298	-2.0072	 5.4056	 3.3983	-2.2746	 5.8280	 3.5534	-2.6341	 5.9767	 3.3427	55.3945	99.9902	
   299	-2.2755	 5.1419	 2.8664	-2.6270	 5.4165	 2.7894	-2.9302	 5.5671	 2.6370	55.7836	99.9927	
   300	-2.6555	 4.9783	 2.3228	-3.1396	 5.2101	 2.0705	-3.4784	 5.2014	 1.7231	55.8779	99.9902	
   301	-3.1412	 4.5527	 1.4116	-4.1146	 4.5730	 0.4584	-4.8450	 4.3958	-0.4490	54.9058	99.9894	
   302	-4.2555	 4.3451	 0.0896	-4.8974	 5.2693	 0.3719	-5.1365	 6.0754	 0.9390	50.8302	99.9931	
   303	-3.6787	 6.0650	 2.3863	-3.7757	 6.9202	 3.1445	-4.1070	 7.3504	 3.2435	52.3644	99.9887	
   304	-3.1766	 6.4022	 3.2256	-3.1769	 7.2769	 4.1000	-3.7090	 7.8878	 4.1789	51.6429	99.9907	
   305	-2.4979	 7.1859	 4.6880	-2.4965	 7.7082	 5.2116	-2.8671	 7.3418	 4.4747	55.6477	99.9630	
   306	-2.4364	 5.2821	 2.8457	-2.6347	 5.7034	 3.0686	-3.1268	 5.7948	 2.6681	55.2470	99.9868	
   307	-2.6458	 4.8999	 2.2540	-3.0964	 5.2853	 2.1888	-3.6925	 5.3222	 1.6298	54.8147	99.9865	
   308	-3.2691	 4.5161	 1.2470	-3.6733	 4.8691	 1.1958	-3.9802	 4.9605	 0.9804	55.4445	99.9903	
   309	-3.4480	 4.3779	 0.9299	-3.4810	 4.7689	 1.2879	-3.4026	 4.8977	 1.4952	56.9655	99.9909	
   310	-3.1946	 4.0696	 0.8750	-4.0452	 4.0447	-0.0005	-4.6383	 3.8764	-0.7618	55.9948	99.9903	
   311	-5.0394	 3.8766	-1.1629	-5.8545	 4.5096	-1.3449	-6.0354	 4.9464	-1.0889	52.2581	99.9905	
   312	-4.5180	 5.0840	 0.5660	-4.8187	 5.9131	 1.0944	-5.1977	 6.3456	 1.1481	51.9748	99.9897	
   313	-4.4559	 5.5865	 1.1306	-4.9481	 6.4045	 1.4564	-5.5638	 6.7010	 1.1373	51.0250	99.9849	
   314	-3.2049	 6.7647	 3.5598	-3.4367	 7.8337	 4.3970	-3.2575	 7.4797	 4.2223	54.6506	99.9585	
   315	-2.7157	 5.5322	 2.8165	-3.0434	 5.6217	 2.5783	-3.8561	 5.7304	 1.8744	54.7559	99.9917	
   316	-2.8556	 4.8551	 1.9996	-3.1540	 5.2862	 2.1322	-3.6948	 5.1931	 1.4984	55.4643	99.9795	
   317	-3.2037	 4.5002	 1.2965	-3.4484	 4.9834	 1.5350	-3.9169	 5.0003	 1.0835	55.3254	99.9828	
   318	-3.4008	 4.3085	 0.9077	-3.4152	 4.7973	 1.3821	-3.5622	 4.9145	 1.3525	56.3185	99.9878	
   319	-3.4190	 4.2550	 0.8360	-3.9287	 4.3717	 0.4430	-4.2744	 4.3073	 0.0329	56.3815	99.9906	
   320	-4.8066	 3.9355	-0.8711	-5.6089	 4.4422	-1.1667	-5.9909	 4.8572	-1.1336	52.3276	99.9928	
   321	-5.0347	 4.9769	-0.0578	-5.4080	 5.7080	 0.3000	-5.6988	 6.1159	 0.4171	52.1116	99.9914	
   322	-4.1587	 5.7273	 1.5687	-4.4207	 6.6443	 2.2237	-4.9647	 6.9923	 2.0276	51.4402	99.9830	
   323	-3.8333	 6.6452	 2.8120	-3.8407	 7.6213	 3.7805	-4.1928	 7.9457	 3.7531	52.0007	99.9812	
   324	-2.4080	 6.7488	 4.3408	-2.7256	 7.1175	 4.3918	-3.3804	 6.9128	 3.5325	54.5756	99.9756	
   325	-2.6329	 5.4425	 2.8096	-2.9335	 5.9445	 3.0110	-3.3247	 5.8195	 2.4949	55.4092	99.9790	
   326	-2.8817	 5.0220	 2.1402	-3.1411	 5.3914	 2.2504	-3.7549	 5.3895	 1.6347	55.1593	99.9833	
   327	-3.3030	 4.6782	 1.3753	-3.5016	 5.1572	 1.6556	-3.9516	 5.1595	 1.2080	55.3457	99.9822	
   328	-3.6019	 4.2831	 0.6812	-3.5437	 4.7910	 1.2473	-3.6520	 4.9858	 1.3339	56.1902	99.9895	
   329	-3.3006	 4.2575	 0.9569	-3.7418	 4.3896	 0.6478	-4.0276	 4.4517	 0.4242	56.3255	99.9927	
   330	-4.5152	 4.2133	-0.3019	-5.0006	 4.9506	-0.0500	-5.2614	 5.4753	 0.2140	52.4160	99.9931	
   331	-4.2006	 5.3075	 1.1069	-4.3712	 6.1038	 1.7326	-4.7368	 6.5501	 1.8134	52.4211	99.9902	
   332	-3.9624	 5.7919	 1.8295	-4.4529	 6.5395	 2.0866	-5.1515	 6.6514	 1.5000	51.7264	99.9784	
   333	-3.6154	 6.2447	 2.6293	-3.6253	 6.8670	 3.2418	-4.0129	 6.9837	 2.9710	53.8937	99.9821	
   334	-2.7939	 5.6952	 2.9013	-3.1320	 6.1503	 3.0183	-3.4616	 5.9357	 2.4742	55.5897	99.9780	
   335	-2.5921	 5.0455	 2.4535	-2.8523	 5.3992	 2.5469	-3.5385	 5.3978	 1.8594	55.1905	99.9827	
   336	-3.1180	 4.4544	 1.3365	-3.2753	 4.8835	 1.6082	-3.7027	 4.8794	 1.1768	55.9357	99.9831	
   337	-3.6276	 4.0000	 0.3723	-3.6304	 4.5311	 0.9006	-3.7351	 4.7101	 0.9750	56.2231	99.9889	
   338	-3.4767	 4.1632	 0.6866	-3.6845	 4.4856	 0.8011	-3.6588	 4.5983	 0.9396	56.8349	99.9912	
   339	-3.6978	 3.9427	 0.2449	-4.3549	 4.3156	-0.0393	-4.6893	 4.5895	-0.0997	54.3195	99.9927	
   340	-4.4436	 4.7499	 0.3064	-4.6987	 5.4768	 0.7781	-4.9927	 5.8890	 0.8964	52.9187	99.9912	
   341	-3.6628	 5.5120	 1.8492	-3.7736	 6.3382	 2.5646	-4.1505	 6.6311	 2.4808	53.0765	99.9843	
   342	-3.3792	 5.8976	 2.5184	-3.4988	 6.7384	 3.2396	-3.6430	 7.0565	 3.4136	53.4010	99.9876	
   343	-1.4288	 6.3526	 4.9239	-1.4221	 6.6569	 5.2348	-2.0586	 6.5193	 4.4608	56.2388	99.9765	
   344	-2.0301	 5.1664	 3.1363	-2.2882	 5.4066	 3.1184	-2.8568	 5.3152	 2.4584	56.3311	99.9844	
   345	-2.5168	 4.8386	 2.3218	-2.7831	 5.1746	 2.3915	-3.2832	 5.1324	 1.8493	55.9847	99.9846	
   346	-2.9257	 4.6854	 1.7597	-3.1158	 5.0790	 1.9632	-3.4559	 5.0239	 1.5681	56.2685	99.9839	
   347	-2.9785	 4.5544	 1.5759	-2.9176	 4.9702	 2.0526	-3.1540	 4.9794	 1.8255	56.8911	99.9846	
   348	-3.0552	 4.2820	 1.2268	-2.9507	 4.6461	 1.6954	-3.0386	 4.6900	 1.6515	57.5266	99.9881	
   349	-3.1955	 4.0549	 0.8594	-3.5255	 4.3648	 0.8393	-3.6217	 4.3875	 0.7658	56.8236	99.9898	
   350	-3.6032	 4.6060	 1.0028	-4.0983	 5.1420	 1.0437	-4.5076	 5.3955	 0.8880	53.6935	99.9909	
   351	-3.2816	 5.4653	 2.1837	-3.3272	 6.1030	 2.7758	-3.5435	 6.3206	 2.7772	54.6202	99.9876	
   352	-2.8680	 5.6918	 2.8238	-3.0748	 6.2463	 3.1715	-3.6194	 6.3475	 2.7281	54.1359	99.9831	
   353	-2.6536	 5.9223	 3.2687	-2.3570	 6.4577	 4.1007	-2.6069	 6.3344	 3.7276	56.6483	99.9727	
   354	-1.7829	 5.3326	 3.5497	-1.6347	 5.4082	 3.7735	-2.4135	 4.9551	 2.5417	58.3954	99.9596	
   355	-2.2384	 4.5738	 2.3354	-2.5003	 4.9842	 2.4839	-2.7610	 4.8858	 2.1248	56.8539	99.9836	
   356	-2.2048	 4.6367	 2.4320	-2.6498	 4.5398	 1.8900	-3.2255	 4.5300	 1.3046	56.9315	99.9941	
   357	-2.5496	 4.9028	 2.3533	-2.9050	 4.9658	 2.0607	-3.2551	 4.6817	 1.4267	57.6123	99.9853	
   358	-2.8593	 4.6840	 1.8248	-3.2609	 4.8073	 1.5465	-3.5258	 4.6926	 1.1669	56.9815	99.9895	
   359	-3.1516	 4.3915	 1.2399	-3.6190	 4.6110	 0.9920	-3.6917	 4.6947	 1.0031	56.4282	99.9913	
   360	-3.0912	 4.6398	 1.5486	-3.4113	 4.8605	 1.4492	-3.2918	 4.3500	 1.0583	58.8526	99.9771	
   361	-3.4016	 4.1813	 0.7797	-3.8918	 4.3457	 0.4539	-4.7562	 5.3138	 0.5577	52.0140	99.9969	
   362	-3.4081	 3.9662	 0.5581	-4.0163	 3.8924	-0.1238	-4.3258	 3.7321	-0.5936	57.3379	99.9912	
   363	-4.0938	 3.4175	-0.6764	-4.7295	 3.5503	-1.1792	-5.1543	 3.5841	-1.5701	55.7431	99.9920	
   364	-4.7189	 3.8066	-0.9123	-5.1059	 4.2904	-0.8156	-5.2678	 4.5452	-0.7225	54.5809	99.9917	
   365	-4.1980	 4.6619	 0.4638	-4.1597	 5.2864	 1.1267	-4.3336	 5.5261	 1.1926	54.9020	99.9880	
   366	-2.9215	 5.3211	 2.3996	-2.9830	 5.7683	 2.7853	-3.2990	 5.8782	 2.5793	55.5283	99.9876	
   367	-2.2595	 5.5035	 3.2440	-2.2236	 6.0295	 3.8059	-2.4408	 6.1514	 3.7107	55.9766	99.9868	
   368	-1.4569	 5.5755	 4.1187	-1.4679	 5.9240	 4.4561	-1.8857	 5.8084	 3.9228	57.0394	99.9805	
   369	-1.4569	 5.5755	 4.1187	-1.4679	 5.9240	 4.4561	-1.8857	 5.8084	 3.9228	57.0394	99.9805	
   370	-1.5199	 5.0583	 3.5385	-1.7743	 5.2250	 3.4507	-2.2270	 5.2000	 2.9731	57.0109	99.9896	
   371	-1.9402	 4.7293	 2.7891	-2.0557	 5.0273	 2.9717	-2.3865	 5.0360	 2.6496	57.1070	99.9880	
   372	-2.1190	 4.5910	 2.4719	-2.2140	 4.9541	 2.7401	-2.4958	 4.9672	 2.4715	57.0540	99.9870	
   373	-1.9786	 4.7056	 2.7269	-1.9800	 5.1104	 3.1304	-2.2067	 5.1702	 2.9636	57.1296	99.9875	
   374	-1.8804	 4.6253	 2.7450	-1.9178	 4.9786	 3.0608	-2.2916	 4.9572	 2.6658	57.2219	99.9845	
   375	-2.2006	 4.3578	 2.1572	-2.2101	 4.8107	 2.6005	-2.5550	 4.8130	 2.2581	56.9917	99.9827	
   376	-2.1353	 4.4544	 2.3191	-2.1901	 4.8230	 2.6328	-2.5428	 4.8313	 2.2886	57.0709	99.9855	
   377	-1.9545	 4.6219	 2.6674	-2.1564	 4.9531	 2.7967	-2.3593	 4.9359	 2.5768	57.2485	99.9881	
   378	-1.5880	 4.8054	 3.2174	-1.8347	 5.0784	 3.2437	-2.1426	 5.0402	 2.8977	57.2251	99.9882	
   379	-1.3724	 4.8255	 3.4531	-1.5636	 5.1118	 3.5482	-1.8150	 5.0544	 3.2395	57.6069	99.9876	
   380	-1.2646	 4.7793	 3.5148	-1.4841	 5.0514	 3.5673	-1.7351	 5.0940	 3.3590	57.3860	99.9905	
   381	-1.2415	 4.7936	 3.5521	-1.4484	 5.1098	 3.6615	-1.6521	 5.0929	 3.4409	57.5689	99.9885	
   382	-1.1818	 4.8021	 3.6203	-1.3884	 5.1468	 3.7584	-1.6521	 5.0929	 3.4409	57.4886	99.9865	
   383	-1.2346	 4.6711	 3.4365	-1.3733	 4.8767	 3.5034	-1.7694	 4.7106	 2.9413	58.1567	99.9839	
   384	-1.2094	 4.4897	 3.2802	-1.6493	 5.2777	 3.6284	-1.8134	 5.1725	 3.3592	56.2417	99.9761	
   385	-1.1472	 4.8797	 3.7325	-0.9982	 5.2414	 4.2432	-1.3461	 4.9340	 3.5880	58.7579	99.9697	
   386	-1.1814	 4.3522	 3.1708	-1.1320	 4.1262	 2.9943	-1.9336	 4.1922	 2.2587	58.5345	99.9936	
   387	-1.1116	 4.8594	 3.7478	-1.0575	 5.0105	 3.9530	-1.6667	 5.5841	 3.9175	56.0282	99.9986	
   388	-1.0177	 5.2831	 4.2654	-0.9254	 5.8937	 4.9684	-1.2527	 5.9294	 4.6768	56.7322	99.9795	
   389	-0.8821	 5.4369	 4.5547	-0.7885	 6.1360	 5.3475	-0.9960	 6.1439	 5.1479	56.7968	99.9779	
   390	-0.6856	 5.2764	 4.5908	-0.6058	 5.6775	 5.0717	-1.0217	 5.6274	 4.6058	57.5580	99.9807	
   391	-0.3874	 5.4319	 5.0445	-2.0616	 8.6201	 6.5585	-1.0630	 6.8682	 5.8053	53.7689	99.7450	
   392	-0.7487	 4.7593	 4.0106	 0.0562	 3.9712	 4.0274	-2.1548	 4.1065	 1.9518	58.5055	99.9525	
   393	-0.5667	 4.7165	 4.1498	-0.6238	 4.8766	 4.2528	-1.1536	 4.3630	 3.2095	59.5804	99.9650	
   394	-0.6109	 3.6903	 3.0793	-1.2467	 2.8041	 1.5574	-3.0005	 3.0322	 0.0318	57.0680	99.9995	
   395	-1.0627	 5.0443	 3.9816	-1.2900	 6.1065	 4.8166	-1.7182	 7.0206	 5.3025	52.1913	99.9956	
   396	-0.2498	 6.4171	 6.1673	 0.0588	 7.4963	 7.5552	-0.0640	 7.7301	 7.6663	55.4528	99.9758	
   397	-0.3081	 5.9732	 5.6651	-0.0759	 6.8787	 6.8029	-0.3170	 7.2093	 6.8924	55.5017	99.9833	
   398	 0.2658	 5.7074	 5.9732	 0.5232	 6.2150	 6.7382	 0.5555	 5.5222	 6.0778	60.6954	99.9499	
   399	 0.5999	 1.6216	 2.2215	-2.4102	 1.4070	-1.0032	-2.8794	 1.3733	-1.5060	55.3853	99.9341	
   400	 3.8182	 9.6813	13.4996	 2.0964	13.3442	15.4406	 7.1695	 9.3165	16.4860	65.8894	99.5581	
   401	 0.4058	 5.2449	 5.6507	 0.6204	 5.6188	 6.2392	 0.0629	 5.6171	 5.6802	58.1213	99.9793	
   402	 0.3508	 5.4220	 5.7728	 0.4677	 5.8407	 6.3084	-0.0277	 5.8582	 5.8306	57.7020	99.9815	
   403	 0.1256	 5.3678	 5.4935	 0.1692	 5.7783	 5.9474	-0.3528	 5.7923	 5.4395	57.4264	99.9820	
   404	 0.0075	 5.1403	 5.1478	 0.0648	 5.5439	 5.6087	-0.3723	 5.4714	 5.0993	58.0104	99.9798	
   405	 0.0463	 4.8265	 4.8728	 0.0588	 5.1392	 5.1979	-0.5121	 4.9897	 4.4776	58.3577	99.9770	
   406	-0.3308	 4.5944	 4.2636	-0.3440	 5.0490	 4.7050	-0.8686	 5.1382	 4.2697	57.2332	99.9839	
   407	-0.1531	 4.9430	 4.7899	-0.0014	 5.4059	 5.4044	-0.5423	 5.4072	 4.8650	57.6502	99.9776	
   408	-0.3570	 4.8737	 4.5167	-0.3336	 5.4199	 5.0863	-0.8651	 5.4704	 4.6053	56.9329	99.9792	
   409	-0.3976	 5.0457	 4.6481	-0.1682	 5.6069	 5.4386	-0.5492	 5.6582	 5.1091	57.5320	99.9789	
   410	-0.1331	 5.1382	 5.0052	 0.0797	 5.5774	 5.6571	-0.3914	 5.7042	 5.3129	57.5167	99.9842	
   411	-0.0801	 5.1567	 5.0766	 0.1515	 5.5972	 5.7487	-0.3985	 5.6785	 5.2801	57.5297	99.9806	
   412	-0.1992	 4.9146	 4.7153	-0.0352	 5.2757	 5.2405	-0.5862	 5.2305	 4.6445	58.0826	99.9783	
   413	-0.1507	 4.5223	 4.3716	 0.0127	 4.7099	 4.7226	-0.4213	 4.3868	 3.9657	59.9898	99.9732	
   414	-0.4159	 4.0776	 3.6617	-0.1435	 4.2613	 4.1178	-0.2877	 3.7576	 3.4700	61.5796	99.9684	
   415	-0.6621	 3.8135	 3.1515	-0.4339	 4.0217	 3.5878	-0.6207	 3.8357	 3.2151	60.4211	99.9822	
   416	-0.7006	 3.7899	 3.0893	-0.5154	 3.9471	 3.4317	-0.6619	 3.7034	 3.0415	60.7388	99.9823	
   417	-0.9102	 3.6326	 2.7224	-0.6726	 3.7896	 3.1169	-0.8149	 3.5540	 2.7392	60.8362	99.9820	
   418	-1.2776	 3.3221	 2.0445	-1.1515	 3.5067	 2.3552	-1.2893	 3.3091	 2.0199	60.4334	99.9837	
   419	-1.6075	 3.1330	 1.5255	-1.5214	 3.3274	 1.8060	-1.6605	 3.2142	 1.5538	60.0132	99.9865	
   420	-2.0233	 3.1022	 1.0789	-1.7027	 3.6046	 1.9019	-1.7057	 3.7500	 2.0445	58.9153	99.9875	
   421	-1.3360	 4.0178	 2.6818	-1.3621	 4.5433	 3.1812	-1.8628	 4.6306	 2.7679	56.8842	99.9818	
   422	-1.4903	 4.3730	 2.8827	-1.4261	 4.9534	 3.5273	-1.8936	 5.0370	 3.1435	56.6713	99.9795	
   423	-1.3624	 4.4096	 3.0472	-1.2957	 4.8880	 3.5923	-1.7848	 4.9138	 3.1291	57.1442	99.9797	
   424	-1.1860	 4.1664	 2.9804	-1.0989	 4.4503	 3.3515	-1.4916	 4.2677	 2.7762	58.8781	99.9781	
   425	-1.1222	 3.8961	 2.7739	-1.0838	 4.1802	 3.0965	-1.4765	 3.9686	 2.4922	59.0915	99.9773	
   426	-1.4502	 3.6239	 2.1737	-1.6124	 3.8181	 2.2056	-2.2099	 3.5609	 1.3511	58.6054	99.9765	
   427	-1.6225	 3.7007	 2.0782	-1.7565	 3.9723	 2.2158	-2.2527	 3.7682	 1.5155	58.3434	99.9781	
   428	-1.3910	 4.1949	 2.8039	-1.6466	 4.5018	 2.8552	-2.3023	 4.3225	 2.0203	57.2899	99.9770	
   429	-1.6983	 4.4701	 2.7718	-1.8450	 4.9141	 3.0692	-2.3593	 4.9359	 2.5768	56.4739	99.9827	
   430	-1.3933	 4.5031	 3.1099	-1.2645	 4.5670	 3.3025	-1.7367	 4.0605	 2.3239	60.0799	99.9666	
   431	-1.5636	 3.4696	 1.9061	-1.6728	 3.6715	 1.9987	-1.9141	 3.4168	 1.5028	59.5430	99.9818	
   432	-1.6397	 3.5494	 1.9097	-1.5455	 3.7621	 2.2167	-1.8671	 3.5528	 1.6858	59.5415	99.9799	
   433	-1.9937	 3.3315	 1.3378	-2.0063	 3.5633	 1.5570	-2.2724	 3.3513	 1.0790	59.3370	99.9812	
   434	-2.1813	 3.2863	 1.1050	-2.1689	 3.5239	 1.3550	-2.3483	 3.3781	 1.0299	59.2922	99.9844	
   435	-1.9495	 3.4431	 1.4936	-1.8907	 3.6710	 1.7803	-2.0408	 3.5181	 1.4774	59.5265	99.9845	
   436	-1.6493	 3.5154	 1.8661	-1.6654	 3.6883	 2.0229	-1.8890	 3.4645	 1.5755	59.6992	99.9832	
   437	-1.9426	 3.3207	 1.3780	-1.9354	 3.5705	 1.6352	-2.2386	 3.3619	 1.1235	59.2707	99.9800	
   438	-1.6571	 3.6231	 1.9660	-1.8976	 3.9705	 2.0729	-2.4185	 3.8663	 1.4479	57.5482	99.9810	
   439	-1.7602	 3.7426	 1.9824	-1.9069	 4.0255	 2.1185	-2.3456	 3.8801	 1.5345	58.1211	99.9815	
   440	-1.6467	 3.7843	 2.1377	-1.8799	 3.9449	 2.0649	-2.2964	 3.6875	 1.3912	58.7245	99.9817	
   441	-1.9553	 3.4677	 1.5124	-2.0074	 3.6477	 1.6402	-2.3775	 3.4449	 1.0675	59.0674	99.9819	
   442	-1.8793	 3.5004	 1.6211	-1.8648	 3.6748	 1.8100	-2.2440	 3.4543	 1.2103	59.2869	99.9804	
   443	-2.1496	 3.3199	 1.1704	-2.2100	 3.5836	 1.3736	-2.5533	 3.3771	 0.8239	58.8622	99.9797	
   444	-2.5575	 3.1813	 0.6238	-2.5360	 3.4921	 0.9561	-2.8751	 3.3664	 0.4915	58.5325	99.9806	
   445	-2.8144	 3.0935	 0.2791	-2.7844	 3.4120	 0.6276	-3.1301	 3.2701	 0.1401	58.4782	99.9793	
   446	-2.9501	 3.0522	 0.1022	-2.9596	 3.3770	 0.4174	-3.2967	 3.2611	-0.0355	58.2604	99.9808	
   447	-3.1262	 3.0704	-0.0558	-3.0982	 3.4131	 0.3149	-3.3425	 3.3282	-0.0142	58.2917	99.9826	
   448	-3.0801	 3.0989	 0.0188	-3.0857	 3.4087	 0.3230	-3.4160	 3.3033	-0.1126	58.1877	99.9817	
   449	-3.1369	 3.1342	-0.0026	-3.2326	 3.4154	 0.1828	-3.6057	 3.2799	-0.3257	58.0030	99.9817	
   450	-3.2081	 3.1748	-0.0334	-3.3321	 3.4634	 0.1313	-3.6565	 3.3544	-0.3021	57.8739	99.9835	
   451	-3.1967	 3.2381	 0.0415	-3.2639	 3.5297	 0.2659	-3.5713	 3.4825	-0.0887	57.8063	99.9854	
   452	-3.2246	 3.2631	 0.0386	-3.2901	 3.6229	 0.3329	-3.6093	 3.5863	-0.0229	57.5094	99.9839	
   453	-3.3353	 3.2654	-0.0699	-3.3778	 3.6539	 0.2761	-3.6449	 3.6384	-0.0064	57.4641	99.9844	
   454	-3.3507	 3.2559	-0.0948	-3.3610	 3.6157	 0.2547	-3.6168	 3.6455	 0.0288	57.5120	99.9865	
   455	-3.3949	 3.2568	-0.1382	-3.3974	 3.7513	 0.3539	-3.7274	 3.8314	 0.1042	56.7779	99.9839	
   456	-3.1924	 3.7614	 0.5690	-3.1949	 4.3255	 1.1306	-3.3647	 4.5170	 1.1524	56.3674	99.9881	
   457	-2.4962	 4.4714	 1.9751	-2.6457	 5.0162	 2.3706	-3.1175	 5.0343	 1.9169	55.8036	99.9802	
   458	-2.6157	 4.5667	 1.9510	-2.7378	 4.8744	 2.1366	-3.1362	 4.7245	 1.5884	57.1009	99.9810	
   459	-2.6630	 3.7215	 1.0585	-2.9922	 3.8794	 0.8871	-3.6602	 3.6608	 0.0007	57.2509	99.9799	
   460	-4.1939	 3.3559	-0.8380	-4.6843	 3.7604	-0.9239	-5.4673	 3.9941	-1.4731	53.7635	99.9896	
   461	-4.0065	 1.6843	-2.3222	-6.0475	 2.6533	-3.3941	-4.8024	 2.2618	-2.5405	56.4679	99.9308	
   462	-3.5746	 3.9060	 0.3314	-3.7449	 4.3390	 0.5941	-4.1794	 4.0477	-0.1316	56.8652	99.9692	
   463	-2.6865	 4.1572	 1.4708	-2.9295	 4.5740	 1.6445	-3.2982	 4.3353	 1.0372	57.0868	99.9755	
   464	-2.1672	 4.6458	 2.4785	-2.4948	 5.0727	 2.5779	-2.9453	 4.9509	 2.0056	56.2735	99.9804	
   465	-2.3811	 4.8799	 2.4988	-2.8156	 5.1667	 2.3511	-3.4203	 4.9718	 1.5516	55.9986	99.9802	
   466	-2.7548	 5.1564	 2.4016	-2.9780	 5.5405	 2.5625	-3.4342	 5.4739	 2.0399	55.7454	99.9826	
   467	-2.6110	 5.6671	 3.0561	-1.9618	 4.6842	 2.7224	-3.1257	 3.7093	 0.5837	62.9280	99.9420	
   468	-2.5667	 3.7244	 1.1577	-3.4553	 5.2829	 1.8276	-1.9336	 4.1922	 2.2587	59.3772	99.9150	
   469	-1.8720	 5.8969	 4.0248	-1.3076	 6.1321	 4.8245	-1.6615	 5.3957	 3.7344	60.1644	99.9369	
   470	-2.0165	 4.0069	 1.9904	-1.9075	 2.9924	 1.0849	-3.8596	 4.0251	 0.1656	55.1474	99.9917	
   471	-2.7640	 3.7577	 0.9937	-3.0595	 4.0323	 0.9728	-3.1202	 4.0746	 0.9546	57.5032	99.9905	
   472	-2.6534	 3.7555	 1.1021	-2.8103	 4.1251	 1.3148	-2.8255	 4.1853	 1.3598	57.6496	99.9896	
   473	-2.2667	 4.0217	 1.7550	-2.3687	 4.3242	 1.9556	-2.5143	 4.2957	 1.7815	57.9753	99.9880	
   474	-2.2119	 4.0695	 1.8576	-2.3679	 4.3369	 1.9690	-2.5749	 4.3001	 1.7253	57.8417	99.9883	
   475	-2.2321	 4.0993	 1.8671	-2.4639	 4.3385	 1.8746	-2.6708	 4.2719	 1.6012	57.8110	99.9884	
   476	-2.4149	 4.0149	 1.5999	-2.7154	 4.2078	 1.4924	-3.0101	 4.1544	 1.1444	57.5071	99.9893	
   477	-2.5765	 3.9154	 1.3389	-2.9427	 4.0556	 1.1129	-3.2227	 3.9357	 0.7131	57.7294	99.9888	
   478	-2.6533	 3.6430	 0.9898	-3.1381	 3.5951	 0.4570	-3.5279	 3.4671	-0.0607	57.9601	99.9915	
   479	-2.7255	 3.6689	 0.9435	-3.3429	 3.6997	 0.3568	-3.6438	 3.5646	-0.0791	57.5730	99.9903	
   480	-2.4843	 4.0847	 1.6004	-3.0653	 4.2474	 1.1822	-3.3928	 4.0523	 0.6596	57.2094	99.9869	
   481	-2.3786	 4.2342	 1.8557	-2.9504	 4.3425	 1.3921	-3.3293	 4.1881	 0.8589	57.1052	99.9887	
   482	-2.4431	 4.2649	 1.8218	-2.8921	 4.3541	 1.4621	-3.3306	 4.1659	 0.8354	57.3531	99.9874	
   483	-2.7066	 4.0745	 1.3679	-3.1530	 4.2784	 1.1254	-3.4674	 4.1012	 0.6340	57.2480	99.9861	
   484	-2.6816	 4.1180	 1.4364	-2.9994	 4.2758	 1.2764	-3.3587	 4.1589	 0.8003	57.3825	99.9879	
   485	-2.5489	 4.2279	 1.6789	-2.9014	 4.4091	 1.5077	-3.3106	 4.2210	 0.9105	57.3291	99.9849	
   486	-2.7156	 4.3926	 1.6770	-3.1814	 4.7470	 1.5656	-3.4979	 4.6036	 1.1058	56.3997	99.9840	
   487	-2.7973	 4.2719	 1.4747	-3.2262	 4.4399	 1.2137	-3.5833	 4.1987	 0.6155	57.2933	99.9844	
   488	-2.6597	 4.3426	 1.6829	-3.0268	 4.4534	 1.4266	-3.4994	 4.3047	 0.8054	57.0901	99.9873	
   489	-2.6789	 4.2745	 1.5956	-3.1216	 4.3707	 1.2491	-3.5399	 4.1834	 0.6435	57.2417	99.9873	
   490	-2.7759	 4.0319	 1.2560	-3.1985	 4.1654	 0.9668	-3.5436	 4.0321	 0.4886	57.3029	99.9884	
   491	-2.9951	 3.8406	 0.8455	-3.4309	 4.0343	 0.6034	-3.6895	 3.9085	 0.2191	57.2778	99.9879	
   492	-3.1616	 3.7803	 0.6188	-3.5935	 3.9949	 0.4014	-3.8077	 3.8768	 0.0692	57.2480	99.9879	
   493	-3.2270	 3.7963	 0.5693	-3.6436	 4.0126	 0.3690	-3.9097	 3.9298	 0.0202	56.9986	99.9885	
   494	-3.3069	 3.8175	 0.5105	-3.7063	 4.0348	 0.3285	-4.0059	 3.9864	-0.0194	56.7885	99.9891	
   495	-3.3551	 3.8722	 0.5171	-3.7525	 4.1157	 0.3632	-3.9809	 4.0340	 0.0533	56.9123	99.9882	
   496	-3.2262	 3.9235	 0.6973	-3.5942	 4.1889	 0.5947	-3.8255	 4.1317	 0.3063	56.8733	99.9883	
   497	-3.1502	 3.9562	 0.8060	-3.5158	 4.2129	 0.6971	-3.7788	 4.1717	 0.3930	56.8045	99.9887	
   498	-3.1868	 3.9618	 0.7750	-3.5660	 4.2306	 0.6646	-3.8265	 4.2055	 0.3791	56.6669	99.9890	
   499	-3.2138	 4.0015	 0.7877	-3.6078	 4.2777	 0.6698	-3.8686	 4.2430	 0.3745	56.5929	99.9887	
   500	-3.2301	 3.9774	 0.7473	-3.6819	 4.2199	 0.5380	-3.9600	 4.1962	 0.2363	56.4928	99.9896	
   501	-3.2859	 3.9149	 0.6290	-3.7317	 4.1406	 0.4089	-3.9678	 4.1594	 0.1917	56.5404	99.9907	
   502	-3.2386	 3.8455	 0.6068	-3.7322	 4.0310	 0.2988	-3.9463	 4.0557	 0.1095	56.6629	99.9912	
   503	-3.3415	 3.7399	 0.3984	-3.8862	 3.9240	 0.0378	-4.1133	 3.9508	-0.1623	56.5254	99.9912	
   504	-3.4483	 3.6882	 0.2400	-4.0504	 3.8593	-0.1911	-4.3399	 3.9575	-0.3823	56.0363	99.9923	
   505	-3.5532	 3.6659	 0.1127	-4.1930	 3.8322	-0.3608	-4.4876	 3.8966	-0.5908	56.0029	99.9918	
   506	-3.7408	 3.6207	-0.1201	-4.3857	 3.8228	-0.5630	-4.6969	 3.9141	-0.7827	55.6773	99.9919	
   507	-3.7582	 3.6944	-0.0638	-4.3559	 3.8897	-0.4662	-4.6252	 4.0017	-0.6233	55.7843	99.9922	
   508	-3.6841	 3.6979	 0.0137	-4.2717	 3.9052	-0.3665	-4.5242	 4.0226	-0.5015	55.8388	99.9921	
   509	-3.6948	 3.7616	 0.0669	-4.2795	 3.9854	-0.2941	-4.5331	 4.0596	-0.4734	55.8708	99.9914	
   510	-3.6910	 3.8203	 0.1293	-4.2881	 4.0530	-0.2350	-4.5687	 4.1117	-0.4568	55.7551	99.9912	
   511	-3.7256	 3.8552	 0.1295	-4.3123	 4.0745	-0.2378	-4.6337	 4.1347	-0.4989	55.6712	99.9915	
   512	-3.7699	 3.8561	 0.0862	-4.3883	 4.0885	-0.2999	-4.7205	 4.1654	-0.5550	55.4505	99.9915	
   513	-3.7738	 3.9100	 0.1361	-4.3409	 4.1298	-0.2111	-4.5806	 4.1894	-0.3911	55.8445	99.9913	
   514	-3.5862	 3.9551	 0.3689	-4.1783	 4.1693	-0.0091	-4.4451	 4.2320	-0.2131	55.8098	99.9914	
   515	-3.5958	 3.9211	 0.3253	-4.2492	 4.1620	-0.0872	-4.5166	 4.2403	-0.2762	55.5523	99.9912	
   516	-3.6535	 3.9418	 0.2882	-4.3252	 4.1760	-0.1493	-4.6111	 4.2341	-0.3769	55.4942	99.9910	
   517	-3.7190	 3.9578	 0.2388	-4.4004	 4.2025	-0.1979	-4.7151	 4.2539	-0.4611	55.3370	99.9909	
   518	-3.7835	 3.9884	 0.2049	-4.4498	 4.2329	-0.2169	-4.7737	 4.2916	-0.4821	55.2672	99.9910	
   519	-3.7807	 4.0324	 0.2517	-4.4258	 4.3084	-0.1175	-4.6976	 4.3607	-0.3368	55.3378	99.9905	
   520	-3.6912	 4.0453	 0.3541	-4.3416	 4.3238	-0.0178	-4.6834	 4.4122	-0.2711	55.0854	99.9912	
   521	-3.7711	 4.0664	 0.2953	-4.4293	 4.3548	-0.0745	-4.7735	 4.3875	-0.3858	55.1338	99.9901	
   522	-3.8529	 4.0583	 0.2054	-4.5261	 4.3438	-0.1823	-4.8897	 4.3890	-0.5005	54.9759	99.9904	
   523	-3.9636	 4.0605	 0.0969	-4.6338	 4.3625	-0.2713	-4.9828	 4.4050	-0.5777	54.9060	99.9901	
   524	-4.0579	 4.0868	 0.0289	-4.7216	 4.3935	-0.3281	-5.0760	 4.4210	-0.6549	54.8618	99.9897	
   525	-4.1484	 4.0593	-0.0891	-4.7424	 4.3685	-0.3738	-5.0977	 4.4286	-0.6690	54.8867	99.9903	
   526	-4.1080	 4.1123	 0.0043	-4.6933	 4.4352	-0.2582	-5.0479	 4.4280	-0.6198	55.0579	99.9886	
   527	-4.1033	 4.1855	 0.0823	-4.7427	 4.4655	-0.2772	-5.1488	 4.4071	-0.7416	55.0346	99.9880	
   528	-4.1639	 4.1623	-0.0016	-4.8352	 4.4207	-0.4145	-5.2108	 4.3895	-0.8212	54.9933	99.9892	
   529	-4.2581	 4.0761	-0.1820	-4.9351	 4.3591	-0.5760	-5.3104	 4.3908	-0.9195	54.7190	99.9901	
   530	-4.3476	 4.0633	-0.2843	-4.9935	 4.3475	-0.6460	-5.3321	 4.3984	-0.9336	54.7762	99.9905	
   531	-4.2100	 4.1339	-0.0762	-4.7811	 4.4662	-0.3149	-5.0629	 4.5463	-0.5165	54.8984	99.9905	
   532	-4.0128	 4.2131	 0.2003	-4.5804	 4.6019	 0.0215	-4.8767	 4.6952	-0.1814	54.7279	99.9900	
   533	-3.9388	 4.3290	 0.3902	-4.4523	 4.7052	 0.2529	-4.7972	 4.8197	 0.0226	54.6776	99.9905	
   534	-3.7984	 4.4436	 0.6452	-4.3343	 4.8508	 0.5165	-4.6393	 4.8657	 0.2264	54.9284	99.9879	
   535	-3.7522	 4.4720	 0.7198	-4.2500	 4.8662	 0.6162	-4.5696	 4.9201	 0.3506	54.9154	99.9889	
   536	-3.7359	 4.4961	 0.7602	-4.1442	 4.9193	 0.7750	-4.4460	 5.0403	 0.5944	54.8796	99.9899	
   537	-3.4357	 4.5684	 1.1327	-3.8531	 4.9649	 1.1118	-4.1581	 5.0403	 0.8823	55.1965	99.9893	
   538	-3.4173	 4.5093	 1.0920	-3.8238	 4.9223	 1.0985	-4.1225	 4.9882	 0.8658	55.2707	99.9888	
   539	-3.3385	 4.5860	 1.2475	-3.7265	 5.0429	 1.3164	-3.9945	 5.0899	 1.0955	55.3058	99.9876	
   540	-3.0278	 4.8195	 1.7916	-3.3676	 5.2519	 1.8843	-3.6505	 5.2848	 1.6344	55.5190	99.9875	
   541	-2.8585	 4.9237	 2.0651	-3.2069	 5.3630	 2.1562	-3.4477	 5.4335	 1.9859	55.4940	99.9887	
   542	-2.6354	 5.0611	 2.4257	-2.9577	 5.4558	 2.4981	-3.1446	 5.5920	 2.4475	55.6540	99.9910	
   543	-2.4544	 5.0036	 2.5493	-2.6768	 5.3372	 2.6604	-2.8500	 5.2449	 2.3950	56.9170	99.9862	
   544	-2.1587	 4.7776	 2.6189	-2.3059	 5.2255	 2.9196	-2.8093	 5.1854	 2.3761	56.1752	99.9803	
   545	-2.3843	 5.1734	 2.7891	-2.6073	 5.7324	 3.1251	-3.1879	 5.8842	 2.6964	54.5123	99.9845	
   546	-2.4569	 5.6493	 3.1924	-2.5471	 6.1826	 3.6355	-2.9409	 6.3055	 3.3647	55.0403	99.9856	
   547	-2.0779	 5.7983	 3.7204	-2.3093	 6.1954	 3.8861	-2.7951	 6.1523	 3.3572	55.4971	99.9833	
   548	-2.2952	 5.6363	 3.3411	-2.4708	 6.0717	 3.6009	-2.9279	 6.1540	 3.2262	55.2013	99.9865	
   549	-2.1693	 5.7561	 3.5868	-2.3544	 6.1920	 3.8376	-2.8070	 6.2299	 3.4230	55.3076	99.9852	
   550	-2.1295	 5.4569	 3.3274	-2.6219	 5.6019	 2.9801	-3.3121	 5.2952	 1.9832	56.1543	99.9792	
   551	-2.4476	 4.9937	 2.5461	-2.9340	 5.1181	 2.1841	-3.4303	 4.8058	 1.3756	56.8570	99.9822	
   552	-2.3994	 4.8265	 2.4271	-2.8925	 4.9614	 2.0688	-3.4685	 4.6328	 1.1644	56.8241	99.9801	
   553	-2.5282	 4.6627	 2.1346	-3.0089	 4.8410	 1.8321	-3.6002	 4.5607	 0.9606	56.5800	99.9804	
   554	-2.1376	 4.8750	 2.7374	-2.5575	 5.0948	 2.5374	-3.2355	 4.8217	 1.5863	56.4508	99.9773	
   555	-1.8905	 5.1538	 3.2633	-2.4033	 5.4085	 3.0051	-3.1789	 5.2086	 2.0298	55.6159	99.9792	
   556	-1.7985	 5.5481	 3.7496	-2.3370	 5.7531	 3.4162	-3.2472	 5.4531	 2.2060	55.4505	99.9738	
   557	-2.1766	 5.4138	 3.2372	-2.8679	 5.5597	 2.6918	-3.7264	 5.3116	 1.5853	55.0894	99.9811	
   558	-2.4701	 5.3317	 2.8615	-3.2213	 5.4392	 2.2178	-4.1337	 5.0769	 0.9433	55.1520	99.9768	
   559	-2.6970	 5.0232	 2.3262	-3.4021	 5.1091	 1.7070	-4.2428	 4.6465	 0.4037	55.9078	99.9732	
   560	-2.6560	 4.5137	 1.8576	-3.4443	 4.5364	 1.0920	-4.3129	 4.0383	-0.2744	56.3575	99.9739	
   561	-2.7184	 4.3486	 1.6302	-3.4185	 4.5401	 1.1217	-4.1763	 4.4647	 0.2885	55.0969	99.9873	
   562	-3.0510	 4.9177	 1.8667	-3.2719	 5.3473	 2.0753	-3.8249	 5.2390	 1.4142	55.5043	99.9775	
   563	-3.0251	 4.9759	 1.9508	-3.2343	 5.3340	 2.0997	-3.8263	 5.2169	 1.3907	55.6527	99.9785	
   564	-2.2544	 5.2393	 2.9849	-2.4135	 5.4508	 3.0373	-3.0551	 4.9671	 1.9121	57.4742	99.9627	
   565	-2.1296	 4.5423	 2.4127	-2.8632	 4.9187	 2.0555	-3.2005	 4.5777	 1.3773	56.4960	99.9780	
   566	-2.5722	 4.4386	 1.8664	-3.0330	 4.5589	 1.5260	-3.5644	 4.3277	 0.7633	56.9362	99.9844	
   567	-3.0203	 4.0221	 1.0017	-3.1832	 4.3085	 1.1253	-3.5616	 4.1910	 0.6295	57.1775	99.9833	
   568	-3.6561	 3.5603	-0.0957	-3.7561	 3.9555	 0.1994	-3.9236	 3.9742	 0.0507	57.0328	99.9869	
   569	-3.8302	 3.4953	-0.3349	-4.0496	 3.8719	-0.1777	-4.1817	 3.9185	-0.2631	56.7544	99.9888	
   570	-3.7930	 3.8419	 0.0489	-4.2155	 4.2922	 0.0767	-4.8235	 4.2922	-0.5312	54.8264	99.9823	
   571	-4.0852	 4.4640	 0.3787	-4.5924	 4.9226	 0.3302	-5.0468	 4.8118	-0.2349	54.6649	99.9810	
   572	-3.8556	 4.8164	 0.9609	-4.1240	 5.3448	 1.2208	-4.6573	 5.3014	 0.6443	54.5309	99.9780	
   573	-2.9150	 5.5362	 2.6212	-2.9965	 6.0637	 3.0671	-3.4397	 6.0240	 2.5844	55.2394	99.9782	
   574	-1.9470	 5.7663	 3.8193	-2.2628	 6.0175	 3.7548	-2.9357	 5.6595	 2.7239	56.3309	99.9711	
   575	-1.9124	 4.9292	 3.0168	-2.3796	 5.0708	 2.6911	-3.1732	 4.7545	 1.5814	56.5320	99.9763	
   576	-2.1298	 4.7673	 2.6375	-2.4789	 4.8152	 2.3363	-2.9420	 4.5485	 1.6066	57.7091	99.9851	
   577	-2.3029	 4.6044	 2.3016	-2.5498	 4.8080	 2.2582	-2.9085	 4.6440	 1.7356	57.4184	99.9851	
   578	-2.5001	 4.5252	 2.0251	-2.8096	 4.6479	 1.8383	-3.1492	 4.4183	 1.2692	57.7040	99.9854	
   579	-3.3041	 3.8614	 0.5573	-3.7487	 3.9722	 0.2236	-4.0038	 3.8387	-0.1650	57.3412	99.9892	
   580	-3.9477	 3.6200	-0.3278	-4.4955	 3.7066	-0.7889	-4.6614	 3.5851	-1.0762	57.1360	99.9897	
   581	-4.1400	 3.3890	-0.7510	-5.0078	 3.1966	-1.8112	-5.5891	 2.8957	-2.6933	56.8540	99.9898	
   582	-5.3195	 2.8599	-2.4596	-5.9794	 3.2298	-2.7495	-6.2307	 3.3654	-2.8652	54.7129	99.9905	
   583	-4.6508	 4.0595	-0.5912	-4.9350	 4.5658	-0.3692	-5.2286	 4.6444	-0.5841	54.8275	99.9864	
   584	-4.0605	 4.7325	 0.6720	-4.4524	 5.2154	 0.7630	-4.9508	 5.1170	 0.1662	54.5486	99.9791	
   585	-3.1188	 5.3544	 2.2356	-3.3017	 5.9971	 2.6954	-3.5253	 5.9808	 2.4556	55.1183	99.9805	
   586	-1.9743	 5.2288	 3.2545	-2.3035	 5.2634	 2.9599	-3.0630	 4.6534	 1.5905	57.9117	99.9626	
   587	-2.5635	 4.3455	 1.7821	-3.0675	 4.4161	 1.3486	-3.6567	 3.9929	 0.3364	57.5189	99.9775	
   588	-3.0291	 4.1152	 1.0861	-3.4907	 4.2040	 0.7133	-3.8880	 3.9221	 0.0342	57.4680	99.9846	
   589	-3.2176	 3.9429	 0.7253	-3.6279	 4.0588	 0.4308	-3.9845	 3.8827	-0.1017	57.2896	99.9874	
   590	-3.6417	 3.6677	 0.0259	-3.6405	 4.0632	 0.4227	-3.8433	 3.9289	 0.0857	57.5733	99.9801	
   591	-3.8264	 3.5540	-0.2725	-4.0500	 3.7623	-0.2877	-4.2371	 3.7347	-0.5023	57.3088	99.9897	
   592	-4.3247	 3.2753	-1.0494	-5.0124	 3.3274	-1.6851	-5.3763	 3.2104	-2.1657	56.4452	99.9902	
   593	-5.0750	 3.7843	-1.2906	-5.7078	 4.0897	-1.6181	-6.0172	 4.1489	-1.8682	54.5369	99.9903	
   594	-4.1288	 4.7045	 0.5757	-4.4493	 5.0593	 0.6100	-4.7834	 4.9561	 0.1728	55.4922	99.9840	
   595	-3.5034	 4.8925	 1.3892	-3.9258	 5.2360	 1.3102	-4.3676	 5.2387	 0.8712	54.9559	99.9875	
   596	-3.0425	 5.0496	 2.0071	-3.1818	 5.3542	 2.1724	-3.4073	 4.8203	 1.4131	58.0207	99.9661	
   597	-2.6210	 4.1413	 1.5202	-3.0481	 4.1122	 1.0641	-3.7697	 3.7729	 0.0034	57.5563	99.9808	
   598	-3.0867	 4.0234	 0.9367	-3.4320	 4.1187	 0.6867	-3.9259	 3.8451	-0.0807	57.5030	99.9826	
   599	-3.0763	 4.1846	 1.1083	-3.5279	 4.3269	 0.7990	-3.9308	 4.1294	 0.1986	56.9736	99.9861	
   600	-2.9024	 4.4746	 1.5722	-3.3598	 4.4548	 1.0951	-3.8079	 4.2385	 0.4307	57.2980	99.9887	
   601	-3.1630	 4.2157	 1.0527	-3.7693	 4.1539	 0.3846	-4.0560	 3.8910	-0.1648	57.6385	99.9891	
   602	-3.9514	 3.4489	-0.5026	-4.6606	 3.4226	-1.2380	-5.0021	 3.4455	-1.5565	56.3575	99.9926	
   603	-4.6555	 3.9863	-0.6693	-4.8473	 4.5348	-0.3125	-5.1057	 4.7535	-0.3521	54.6434	99.9893	
   604	-3.4305	 5.2188	 1.7882	-3.5393	 5.6807	 2.1414	-3.9858	 5.6914	 1.7057	55.1268	99.9822	
   605	-3.0929	 5.4126	 2.3197	-3.3610	 5.7662	 2.4052	-3.9898	 5.6251	 1.6353	55.1519	99.9778	
   606	-2.2550	 5.8018	 3.5468	-2.2904	 6.2921	 4.0017	-2.7069	 6.4206	 3.7138	55.2354	99.9861	
   607	-1.3585	 5.3828	 4.0243	-1.8698	 5.3362	 3.4664	-2.7397	 4.9630	 2.2234	56.9984	99.9793	
   608	-2.3604	 4.4002	 2.0397	-2.8838	 4.3835	 1.4997	-3.5080	 3.9800	 0.4721	57.6834	99.9808	
   609	-2.8232	 4.2138	 1.3906	-3.3074	 4.2684	 0.9610	-3.7620	 3.9906	 0.2287	57.4235	99.9853	
   610	-3.0359	 4.2376	 1.2017	-3.5702	 4.2644	 0.6942	-3.9778	 3.9934	 0.0157	57.3342	99.9868	
   611	-3.4341	 3.9081	 0.4740	-3.9406	 3.9755	 0.0349	-4.1536	 3.9255	-0.2279	57.0581	99.9913	
   612	-3.4099	 3.8244	 0.4145	-4.0140	 3.7237	-0.2903	-4.4022	 3.3861	-1.0159	57.9068	99.9876	
   613	-4.0780	 2.9770	-1.1011	-5.2317	 2.7913	-2.4404	-5.9227	 2.7819	-3.1407	55.2655	99.9930	
   614	-5.0430	 3.5929	-1.4501	-5.4065	 4.0930	-1.3135	-5.3886	 4.2884	-1.1001	55.1504	99.9902	
   615	-3.7544	 4.6677	 0.9133	-4.1057	 5.1252	 1.0195	-4.5822	 4.9867	 0.4046	55.1324	99.9781	
   616	-3.5594	 5.0551	 1.4957	-3.7627	 5.5917	 1.8290	-4.1430	 5.6566	 1.5137	54.7205	99.9841	
   617	-1.4225	 5.8781	 4.4556	-1.3979	 5.7120	 4.3141	-2.2270	 5.2000	 2.9731	58.7254	99.9681	
   618	-1.9668	 4.4314	 2.4646	-2.4156	 4.3925	 1.9768	-2.9823	 4.0655	 1.0833	58.0389	99.9846	
   619	-2.5515	 3.9589	 1.4074	-2.8715	 3.9659	 1.0944	-3.4302	 3.7095	 0.2794	58.0018	99.9845	
   620	-3.0797	 3.6760	 0.5963	-3.4851	 3.7823	 0.2972	-3.7642	 3.6806	-0.0835	57.5662	99.9898	
   621	-3.2981	 3.6119	 0.3138	-3.6524	 3.6670	 0.0146	-3.8813	 3.5750	-0.3062	57.8462	99.9908	
   622	-3.3978	 3.2128	-0.1850	-4.3165	 2.8813	-1.4352	-5.1583	 2.6023	-2.5560	57.0708	99.9919	
   623	-5.1981	 2.7939	-2.4042	-6.0488	 3.0413	-3.0075	-6.2192	 3.3726	-2.8465	54.3435	99.9896	
   624	-4.1147	 4.1222	 0.0074	-4.2298	 4.5749	 0.3451	-4.3699	 4.6518	 0.2820	56.0362	99.9878	
   625	-3.4318	 4.5145	 1.0827	-3.8112	 4.9178	 1.1066	-4.3189	 4.8541	 0.5354	55.2389	99.9826	
   626	-1.7447	 5.5813	 3.8366	-1.6724	 5.9317	 4.2592	-1.7754	 5.5264	 3.7511	58.6066	99.9718	
   627	-1.0975	 4.1646	 3.0672	-1.9801	 4.1869	 2.2068	-2.8677	 3.9459	 1.0783	56.5213	99.9860	
   628	-2.3695	 3.8036	 1.4342	-2.6216	 3.8647	 1.2431	-3.1408	 3.5507	 0.4101	58.4875	99.9806	
   629	-3.0024	 3.3859	 0.3835	-3.3238	 3.4928	 0.1690	-3.6935	 3.3844	-0.3090	57.8327	99.9888	
   630	-3.0630	 3.3626	 0.2996	-3.4637	 3.4066	-0.0571	-3.6185	 3.2505	-0.3679	58.4692	99.9897	
   631	-3.2368	 2.9601	-0.2767	-4.0902	 2.6076	-1.4826	-4.8853	 2.0820	-2.8032	58.5251	99.9851	
   632	-4.9751	 2.0167	-2.9584	-6.0964	 1.8698	-4.2266	-6.6636	 1.9757	-4.6878	55.3286	99.9918	
   633	-4.9231	 3.0476	-1.8755	-5.2236	 3.3309	-1.8927	-5.4326	 3.3773	-2.0553	56.3333	99.9901	
   634	-3.8573	 3.6475	-0.2098	-4.2803	 3.9728	-0.3075	-4.7901	 3.9300	-0.8599	55.6744	99.9853	
   635	-2.6353	 4.9486	 2.3133	-2.3634	 5.4331	 3.0697	-2.5507	 5.4330	 2.8824	57.2208	99.9811	
   636	-0.6957	 4.7778	 4.0820	-1.0608	 4.5467	 3.4859	-1.8297	 3.8956	 2.0659	59.8733	99.9718	
   637	-1.6217	 3.8278	 2.2062	-1.9902	 3.7191	 1.7289	-2.5791	 3.4992	 0.9202	58.7193	99.9888	
   638	-2.2710	 3.4984	 1.2274	-2.5446	 3.5598	 1.0152	-3.0271	 3.3241	 0.2971	58.5673	99.9844	
   639	-2.8194	 3.2453	 0.4259	-3.0356	 3.3909	 0.3554	-3.3208	 3.3205	-0.0002	58.2486	99.9892	
   640	-2.7665	 3.2638	 0.4973	-3.2754	 3.2432	-0.0322	-3.5155	 3.1237	-0.3917	58.3599	99.9911	
   641	-3.4098	 2.6848	-0.7250	-4.4397	 2.5502	-1.8895	-5.0438	 2.4827	-2.5610	56.4777	99.9924	
   642	-4.6584	 3.0277	-1.6308	-5.0042	 3.3567	-1.6475	-5.1101	 3.3989	-1.7111	56.5202	99.9896	
   643	-3.5580	 3.7051	 0.1471	-3.9406	 3.9755	 0.0349	-4.2965	 3.9421	-0.3543	56.4188	99.9881	
   644	-3.0253	 4.1738	 1.1485	-3.2931	 4.4959	 1.2027	-3.7041	 4.3996	 0.6956	56.5715	99.9837	
   645	-1.9440	 4.6706	 2.7267	-2.0111	 4.9212	 2.9101	-2.4231	 4.7042	 2.2812	57.8877	99.9792	
   646	-0.9266	 4.6356	 3.7090	-1.2163	 4.6210	 3.4047	-1.7249	 4.1637	 2.4389	59.3251	99.9782	
   647	-0.7115	 4.1911	 3.4796	-1.0312	 4.2004	 3.1692	-1.4655	 3.7839	 2.3184	59.6835	99.9807	
   648	-1.0809	 3.9638	 2.8829	-1.3452	 3.9949	 2.6497	-1.6840	 3.7424	 2.0585	59.4058	99.9865	
   649	-0.7933	 4.1830	 3.3897	-1.0618	 4.1208	 3.0590	-1.5197	 3.8030	 2.2834	59.6198	99.9855	
   650	-0.8972	 4.0628	 3.1656	-1.2625	 3.9851	 2.7226	-1.6873	 3.6870	 1.9998	59.4940	99.9874	
   651	-1.3281	 3.7975	 2.4694	-1.7124	 3.7565	 2.0442	-2.1465	 3.4198	 1.2735	59.3857	99.9852	
   652	-1.7215	 3.5413	 1.8198	-1.9679	 3.5627	 1.5948	-2.3709	 3.2787	 0.9079	59.3744	99.9846	
   653	-1.7341	 3.6882	 1.9541	-2.2442	 4.0607	 1.8165	-2.8134	 4.2036	 1.3903	55.8956	99.9903	
   654	-1.6532	 4.5964	 2.9431	-1.6397	 4.9191	 3.2794	-1.9406	 4.9010	 2.9605	57.7338	99.9859	
   655	-0.9556	 4.7585	 3.8029	-0.8999	 5.0711	 4.1711	-1.3580	 5.0116	 3.6537	57.9137	99.9821	
   656	-0.3734	 4.8496	 4.4762	-0.1543	 5.2145	 5.0601	-0.4957	 5.1703	 4.6747	58.5957	99.9815	
   657	-0.0721	 4.8240	 4.7519	-0.0856	 4.8802	 4.7946	-0.6544	 4.5596	 3.9053	59.5214	99.9777	
   658	-0.4159	 4.0776	 3.6617	-0.7666	 3.9261	 3.1595	-1.4145	 3.5285	 2.1141	59.8321	99.9831	
   659	-0.7016	 3.8877	 3.1861	-1.1090	 3.7758	 2.6668	-1.6069	 3.4608	 1.8541	59.6391	99.9873	
   660	-0.8065	 3.8653	 3.0588	-1.1216	 3.7803	 2.6587	-1.5294	 3.5521	 2.0229	59.6525	99.9894	
   661	-0.9555	 3.7314	 2.7758	-1.2737	 3.6015	 2.3279	-1.6539	 3.3249	 1.6711	60.0116	99.9891	
   662	-1.7894	 3.0633	 1.2739	-2.1547	 3.0345	 0.8798	-2.3244	 3.0419	 0.7176	59.2074	99.9929	
   663	-2.2953	 2.7799	 0.4846	-2.7205	 2.7953	 0.0748	-2.7994	 2.7860	-0.0134	59.1109	99.9916	
   664	-2.3972	 2.5765	 0.1794	-3.1497	 2.3851	-0.7646	-3.5674	 2.3566	-1.2107	58.3713	99.9930	
   665	-3.2741	 2.7261	-0.5480	-3.5638	 3.1384	-0.4254	-3.7683	 3.3374	-0.4309	56.7519	99.9914	
   666	-2.3858	 3.7795	 1.3937	-2.4824	 4.1448	 1.6624	-2.6802	 4.1169	 1.4369	57.7872	99.9861	
   667	-1.7847	 4.1637	 2.3790	-1.9435	 4.4646	 2.5211	-2.4523	 4.3133	 1.8611	57.5733	99.9798	
   668	-0.8680	 4.7421	 3.8741	-0.7146	 5.0637	 4.3491	-1.1209	 5.0861	 3.9653	58.0391	99.9847	
   669	 0.4939	 4.7784	 5.2723	 0.4012	 4.5726	 4.9738	-0.3111	 3.8280	 3.5170	61.5053	99.9623	
   670	-0.2634	 3.5806	 3.3172	-0.6222	 3.4682	 2.8460	-1.0944	 3.1442	 2.0498	60.3208	99.9869	
   671	-0.6712	 3.3295	 2.6583	-1.0705	 3.2650	 2.1944	-1.5330	 2.9431	 1.4103	60.0519	99.9861	
   672	-1.0253	 3.2241	 2.1988	-1.3256	 3.1807	 1.8551	-1.7572	 2.8980	 1.1409	60.0301	99.9864	
   673	-1.2320	 2.9983	 1.7663	-1.4350	 2.9675	 1.5325	-1.9186	 2.7008	 0.7823	60.0946	99.9851	
   674	-1.7735	 2.6228	 0.8493	-2.0554	 2.5732	 0.5178	-2.6782	 2.3193	-0.3588	59.5904	99.9845	
   675	-2.3625	 2.5416	 0.1791	-2.8115	 2.5691	-0.2424	-3.2374	 2.3191	-0.9182	59.1165	99.9863	
   676	-2.0098	 3.0824	 1.0726	-2.5467	 3.2182	 0.6715	-3.1374	 3.1484	 0.0110	57.4283	99.9889	
   677	-2.0574	 3.6018	 1.5443	-2.4081	 3.8990	 1.4909	-2.9374	 3.8914	 0.9541	56.9102	99.9868	
   678	-0.8307	 4.9761	 4.1454	-0.8833	 5.3364	 4.4531	-1.1306	 4.8352	 3.7047	59.2283	99.9651	
   679	-0.4965	 4.7738	 4.2773	-0.9596	 4.9371	 3.9776	-1.5881	 4.6861	 3.0981	57.6304	99.9819	
   680	-0.0350	 5.2830	 5.2480	-0.5064	 5.4228	 4.9164	-1.2727	 5.1397	 3.8671	57.3608	99.9795	
   681	 0.2439	 5.4829	 5.7268	-0.3324	 5.5422	 5.2098	-1.1857	 5.2050	 4.0194	57.3433	99.9795	
   682	 0.1140	 5.4170	 5.5310	-0.5491	 5.4573	 4.9082	-1.4516	 5.1125	 3.6610	57.0779	99.9799	
   683	 0.0418	 5.4429	 5.4847	-0.6419	 5.5095	 4.8675	-1.5383	 5.1432	 3.6049	56.9663	99.9785	
   684	 0.0148	 5.4825	 5.4974	-0.6595	 5.5351	 4.8755	-1.5804	 5.1806	 3.6004	56.8918	99.9789	
   685	 0.0389	 5.5114	 5.5503	-0.6321	 5.5641	 4.9320	-1.5343	 5.2095	 3.6753	56.9366	99.9792	
   686	 0.1284	 5.5243	 5.6527	-0.5295	 5.5666	 5.0371	-1.4788	 5.2125	 3.7339	56.9315	99.9785	
   687	 0.1188	 5.4902	 5.6090	-0.5694	 5.5420	 4.9725	-1.4923	 5.1721	 3.6799	56.9613	99.9784	
   688	 0.0447	 5.4868	 5.5315	-0.6145	 5.5385	 4.9240	-1.5790	 5.2027	 3.6238	56.7850	99.9787	
   689	-0.0285	 5.4981	 5.4696	-0.6772	 5.5606	 4.8835	-1.6197	 5.2623	 3.6427	56.6615	99.9803	
   690	-0.0805	 5.4942	 5.4138	-0.7398	 5.5828	 4.8430	-1.6536	 5.2517	 3.5982	56.6962	99.9787	
   691	-0.1613	 5.5007	 5.3394	-0.8025	 5.6049	 4.8024	-1.6943	 5.3113	 3.6171	56.5757	99.9800	
   692	-0.1662	 5.5400	 5.3738	-0.7159	 5.6583	 4.9424	-1.5731	 5.4832	 3.9102	56.4392	99.9840	
   693	-0.2084	 5.4577	 5.2492	-0.7375	 5.6207	 4.8833	-1.4945	 5.5006	 4.0062	56.4571	99.9860	
   694	-0.3460	 5.3870	 5.0410	-0.8025	 5.6049	 4.8024	-1.5271	 5.5121	 3.9852	56.4253	99.9853	
   695	-0.4124	 5.3884	 4.9760	-0.8475	 5.6015	 4.7539	-1.5935	 5.5130	 3.9196	56.3861	99.9850	
   696	-0.4134	 5.3737	 4.9604	-0.9102	 5.6236	 4.7134	-1.6273	 5.5023	 3.8751	56.3075	99.9839	
   697	-0.3884	 5.4172	 5.0289	-0.9177	 5.6069	 4.6892	-1.7469	 5.4485	 3.7017	56.2439	99.9828	
   698	-0.4047	 5.3931	 4.9884	-0.9165	 5.5225	 4.6060	-1.7742	 5.2717	 3.4976	56.6860	99.9799	
   699	-0.2430	 5.3801	 5.1371	-0.8163	 5.4871	 4.6708	-1.6806	 5.1708	 3.4903	56.8998	99.9785	
   700	-0.1852	 5.3594	 5.1741	-0.7987	 5.4615	 4.6628	-1.7134	 5.0863	 3.3730	56.9315	99.9754	
   701	-0.2256	 5.3064	 5.0808	-0.8735	 5.3911	 4.5176	-1.7947	 5.0246	 3.2301	56.8767	99.9767	
   702	-0.2939	 5.2784	 4.9845	-0.9734	 5.3295	 4.3561	-1.8918	 4.9742	 3.0825	56.8564	99.9788	
   703	-0.3440	 5.3039	 4.9599	-1.0036	 5.3595	 4.3559	-1.9542	 5.0415	 3.0873	56.6497	99.9794	
   704	-0.3691	 5.3728	 5.0037	-1.0365	 5.4487	 4.4122	-1.9750	 5.1562	 3.1813	56.4538	99.9803	
   705	-0.3210	 5.4306	 5.1095	-0.9365	 5.5102	 4.5737	-1.8216	 5.2206	 3.3992	56.6693	99.9806	
   706	-0.2469	 5.4340	 5.1871	-0.8789	 5.5092	 4.6303	-1.7999	 5.2130	 3.4132	56.6217	99.9801	
   707	-0.3152	 5.4060	 5.0908	-0.9714	 5.4644	 4.4930	-1.8882	 5.1255	 3.2374	56.7349	99.9791	
   708	-0.4211	 5.3690	 4.9479	-1.1215	 5.4206	 4.2991	-2.0084	 5.0606	 3.0523	56.7492	99.9794	
   709	-0.5029	 5.3608	 4.8580	-1.1916	 5.4260	 4.2344	-2.0748	 5.0615	 2.9867	56.7143	99.9787	
   710	-0.5471	 5.3617	 4.8146	-1.2567	 5.4102	 4.1536	-2.1507	 5.0883	 2.9377	56.5320	99.9811	
   711	-0.5597	 5.3962	 4.8365	-1.2468	 5.4649	 4.2180	-2.0983	 5.1319	 3.0337	56.6253	99.9805	
   712	-0.4538	 5.4332	 4.9794	-1.0968	 5.5087	 4.4119	-1.9882	 5.2117	 3.2236	56.5418	99.9806	
   713	-0.4144	 5.4716	 5.0571	-1.0419	 5.5668	 4.5249	-1.9287	 5.2811	 3.3525	56.4907	99.9804	
   714	-0.4433	 5.4819	 5.0386	-1.0669	 5.5757	 4.5087	-1.9422	 5.2406	 3.2986	56.6564	99.9785	
   715	-0.4741	 5.4630	 4.9889	-1.1269	 5.5387	 4.4118	-2.0170	 5.1936	 3.1767	56.6331	99.9787	
   716	-0.5049	 5.4440	 4.9392	-1.1794	 5.5185	 4.3391	-2.0427	 5.1349	 3.0923	56.7620	99.9777	
   717	-0.5578	 5.4255	 4.8677	-1.2445	 5.5028	 4.2583	-2.1511	 5.1732	 3.0222	56.4379	99.9794	
   718	-0.5174	 5.4785	 4.9611	-1.1445	 5.5643	 4.4198	-2.0411	 5.2530	 3.2120	56.5071	99.9794	
   719	-0.4337	 5.5160	 5.0823	-1.0579	 5.6177	 4.5598	-1.9612	 5.2926	 3.3315	56.5149	99.9781	
   720	-0.4232	 5.5647	 5.1415	-1.0481	 5.6723	 4.6242	-1.9680	 5.3628	 3.3949	56.3788	99.9784	
   721	-0.4434	 5.5944	 5.1510	-1.0908	 5.7068	 4.6160	-1.9884	 5.3926	 3.4043	56.3441	99.9788	
   722	-0.4925	 5.6345	 5.1420	-1.1335	 5.7412	 4.6078	-2.0291	 5.4522	 3.4232	56.2454	99.9800	
   723	-0.5214	 5.6449	 5.1235	-1.1711	 5.7545	 4.5835	-2.0833	 5.4713	 3.3881	56.1332	99.9800	
   724	-0.5426	 5.6600	 5.1174	-1.1887	 5.7801	 4.5914	-2.0494	 5.4819	 3.4326	56.2535	99.9799	
   725	-0.4666	 5.6927	 5.2261	-1.0845	 5.8079	 4.7234	-1.9420	 5.5175	 3.5755	56.3414	99.9801	
   726	-0.4464	 5.6629	 5.2166	-1.0684	 5.7570	 4.6886	-1.9301	 5.4398	 3.5098	56.5012	99.9796	
   727	-0.5070	 5.6397	 5.1327	-1.1460	 5.7457	 4.5997	-1.9965	 5.4407	 3.4442	56.3947	99.9801	
   728	-0.5368	 5.6354	 5.0986	-1.1911	 5.7422	 4.5512	-2.0846	 5.4492	 3.3647	56.2026	99.9800	
   729	-0.5888	 5.6316	 5.0428	-1.2436	 5.7220	 4.4785	-2.1307	 5.4202	 3.2897	56.2639	99.9802	
   730	-0.6331	 5.6324	 4.9994	-1.2937	 5.7397	 4.4460	-2.1835	 5.4615	 3.2781	56.0931	99.9808	
   731	-0.5705	 5.6850	 5.1144	-1.2137	 5.7890	 4.5752	-2.0169	 5.4704	 3.4537	56.4719	99.9805	
   732	-0.5051	 5.6690	 5.1639	-1.1436	 5.7836	 4.6400	-2.0084	 5.5183	 3.5100	56.1951	99.9813	
   733	-0.5561	 5.6798	 5.1237	-1.1812	 5.7969	 4.6156	-2.0301	 5.5260	 3.4960	56.2351	99.9811	
   734	-0.5859	 5.6755	 5.0896	-1.1812	 5.7969	 4.6156	-2.0288	 5.5481	 3.5194	56.2140	99.9816	
   735	-0.6225	 5.6811	 5.0586	-1.2063	 5.8057	 4.5994	-2.0491	 5.5779	 3.5289	56.1531	99.9823	
   736	-0.6831	 5.6579	 4.9748	-1.3164	 5.7865	 4.4701	-2.1507	 5.5460	 3.3954	56.0622	99.9823	
   737	-0.7120	 5.6683	 4.9562	-1.3089	 5.8032	 4.4943	-2.1359	 5.6086	 3.4728	55.9834	99.9836	
   738	-0.5369	 5.7479	 5.2110	-1.0672	 5.8793	 4.8121	-1.8873	 5.6903	 3.8031	56.1989	99.9834	
   739	-0.4782	 5.7418	 5.2636	-1.0347	 5.8872	 4.8525	-1.8534	 5.7009	 3.8476	56.1303	99.9835	
   740	-0.5013	 5.7276	 5.2263	-1.0821	 5.8458	 4.7637	-1.9418	 5.6134	 3.6718	56.1930	99.9820	
   741	-0.5542	 5.7091	 5.1549	-1.1397	 5.8468	 4.7071	-1.9946	 5.6547	 3.6602	55.9944	99.9832	
   742	-0.5533	 5.7238	 5.1705	-1.1271	 5.8423	 4.7152	-2.0285	 5.6441	 3.6157	55.9778	99.9825	
   743	-0.5773	 5.6949	 5.1176	-1.2098	 5.8522	 4.6424	-2.0695	 5.6077	 3.5383	55.9668	99.9809	
   744	-0.5571	 5.6652	 5.1081	-1.1511	 5.7668	 4.6158	-2.0098	 5.4962	 3.4865	56.3414	99.9810	
   745	-0.5637	 5.5626	 4.9989	-1.1582	 5.6531	 4.4949	-2.0032	 5.3300	 3.3269	56.6372	99.9793	
   746	-0.6666	 5.4570	 4.7905	-1.2922	 5.5584	 4.2662	-2.1051	 5.2021	 3.0971	56.7232	99.9784	
   747	-0.7483	 5.3364	 4.5881	-1.3993	 5.3831	 3.9838	-2.2238	 4.9785	 2.7548	56.9910	99.9779	
   748	-0.9002	 5.1585	 4.2583	-1.5287	 5.1576	 3.6289	-2.4231	 4.7042	 2.2812	57.2167	99.9753	
   749	-1.0299	 4.9801	 3.9502	-1.6866	 4.9874	 3.3007	-2.5846	 4.5070	 1.9225	57.2553	99.9738	
   750	-1.1290	 4.9331	 3.8041	-1.7274	 4.9501	 3.2227	-2.5846	 4.5070	 1.9225	57.3197	99.9753	
   751	-1.0299	 4.9801	 3.9502	-1.6091	 4.9987	 3.3896	-2.4579	 4.5866	 2.1287	57.3088	99.9767	
   752	-1.0069	 5.1068	 4.0998	-1.5788	 5.1753	 3.5965	-2.4330	 4.8151	 2.3821	56.9186	99.9774	
   753	-0.9359	 5.2912	 4.3553	-1.5446	 5.4151	 3.8705	-2.3811	 5.1245	 2.7435	56.3975	99.9798	
   754	-0.8167	 5.4209	 4.6042	-1.4298	 5.5101	 4.0804	-2.3056	 5.1826	 2.8771	56.4886	99.9786	
   755	-0.7464	 5.3657	 4.6193	-1.3518	 5.4245	 4.0726	-2.2090	 5.0411	 2.8322	56.8989	99.9773	
   756	-0.6385	 5.3195	 4.6810	-1.2038	 5.3334	 4.1296	-2.0612	 4.9210	 2.8600	57.3197	99.9768	
   757	-0.6201	 5.1480	 4.5279	-1.1957	 5.1562	 3.9605	-1.9902	 4.7208	 2.7307	57.6707	99.9773	
   758	-0.7489	 4.9842	 4.2354	-1.2910	 4.9638	 3.6728	-2.0220	 4.5625	 2.5406	57.9259	99.9803	
   759	-0.7929	 4.7601	 3.9672	-1.2911	 4.7572	 3.4661	-1.9453	 4.3659	 2.4207	58.2628	99.9808	
   760	-1.1208	 4.3754	 3.2546	-1.5601	 4.3485	 2.7885	-2.2539	 4.0229	 1.7690	58.2721	99.9826	
   761	-1.3526	 4.2186	 2.8661	-1.6843	 4.3084	 2.6242	-2.3363	 4.0350	 1.6988	58.0762	99.9807	
   762	-1.3930	 4.2781	 2.8851	-1.6936	 4.3634	 2.6698	-2.2960	 4.0603	 1.7644	58.2987	99.9800	
   763	-1.3787	 4.3854	 3.0067	-1.5564	 4.5087	 2.9522	-2.0841	 4.2680	 2.1840	58.3715	99.9814	
   764	-1.0700	 4.5896	 3.5196	-1.2817	 4.7022	 3.4205	-1.7540	 4.5074	 2.7535	58.3423	99.9849	
   765	-1.0624	 4.7068	 3.6445	-1.3714	 4.8049	 3.4336	-1.7070	 4.6433	 2.9364	58.2928	99.9883	
   766	-1.2654	 4.6522	 3.3868	-1.5348	 4.7529	 3.2181	-1.8168	 4.6595	 2.8428	58.2118	99.9902	
   767	-1.7954	 4.3400	 2.5446	-2.0038	 4.5247	 2.5208	-2.2316	 4.4840	 2.2525	57.9813	99.9899	
   768	-2.4870	 3.9283	 1.4412	-2.5819	 4.1929	 1.6110	-2.6894	 4.2389	 1.5496	57.9079	99.9907	
   769	-2.9198	 3.6337	 0.7138	-2.9675	 3.9675	 1.0000	-2.9125	 4.1199	 1.2075	57.8189	99.9918	
   770	-2.9342	 3.5264	 0.5922	-3.0247	 3.8715	 0.8467	-2.8847	 4.0310	 1.1464	57.9279	99.9915	
   771	-2.6926	 3.4922	 0.7996	-2.9249	 3.7264	 0.8015	-2.7779	 3.8746	 1.0968	58.1542	99.9913	
   772	-2.5299	 3.4938	 0.9639	-2.8995	 3.6206	 0.7211	-2.8977	 3.7248	 0.8272	58.0657	99.9918	
   773	-2.4453	 3.5459	 1.1007	-2.8842	 3.5571	 0.6728	-3.0748	 3.6348	 0.5601	57.9106	99.9932	
   774	-2.4308	 3.5408	 1.1099	-2.9544	 3.5625	 0.6081	-3.1062	 3.5724	 0.4663	57.9921	99.9918	
   775	-2.4049	 3.5989	 1.1940	-2.9128	 3.6124	 0.6995	-3.0724	 3.5831	 0.5108	58.1281	99.9917	
   776	-2.3790	 3.6571	 1.2781	-2.8505	 3.6872	 0.8367	-2.9911	 3.6448	 0.6538	58.2163	99.9915	
   777	-2.2298	 3.6786	 1.4488	-2.6953	 3.7099	 1.0145	-2.8468	 3.6503	 0.8036	58.3259	99.9914	
   778	-2.2692	 3.6402	 1.3710	-2.7577	 3.6350	 0.8774	-2.9467	 3.5556	 0.6090	58.3658	99.9915	
   779	-2.4626	 3.5071	 1.0446	-2.9591	 3.4866	 0.5275	-3.1583	 3.4439	 0.2857	58.2430	99.9921	
   780	-2.5934	 3.4266	 0.8332	-3.0767	 3.4507	 0.3740	-3.2115	 3.3892	 0.1779	58.3249	99.9912	
   781	-2.6780	 3.3745	 0.6965	-3.1742	 3.4270	 0.2528	-3.3436	 3.4020	 0.0585	58.0048	99.9915	
   782	-2.9243	 3.2229	 0.2987	-3.3917	 3.3295	-0.0622	-3.5711	 3.3016	-0.2694	57.8573	99.9911	
   783	-3.0984	 3.1579	 0.0595	-3.4293	 3.3428	-0.0865	-3.6003	 3.3684	-0.2318	57.7339	99.9913	
   784	-3.1744	 3.1252	-0.0492	-3.5018	 3.3103	-0.1915	-3.5939	 3.3831	-0.2107	57.7586	99.9919	
   785	-3.0675	 3.0644	-0.0031	-3.5520	 3.1214	-0.4307	-3.5524	 3.1537	-0.3986	58.2317	99.9908	
   786	-2.8654	 3.1043	 0.2389	-3.3793	 3.1185	-0.2608	-3.4515	 3.1746	-0.2768	58.1476	99.9914	
   787	-2.7817	 3.1418	 0.3601	-3.2860	 3.1759	-0.1101	-3.3651	 3.2288	-0.1362	58.1238	99.9915	
   788	-2.7596	 3.1414	 0.3818	-3.2719	 3.1968	-0.0751	-3.3791	 3.2733	-0.1057	57.9164	99.9918	
   789	-2.7134	 3.1698	 0.4564	-3.1501	 3.1989	 0.0489	-3.2277	 3.3046	 0.0770	58.1559	99.9923	
   790	-2.5797	 3.1818	 0.6021	-2.9992	 3.2554	 0.2562	-3.0488	 3.3318	 0.2831	58.2822	99.9919	
   791	-2.5344	 3.1956	 0.6611	-2.9534	 3.2715	 0.3181	-3.0021	 3.3718	 0.3698	58.2220	99.9920	
   792	-2.5113	 3.2098	 0.6984	-2.9392	 3.2923	 0.3531	-2.9740	 3.3788	 0.4049	58.2583	99.9917	
   793	-2.5037	 3.2145	 0.7109	-2.9142	 3.2835	 0.3693	-2.9957	 3.3865	 0.3909	58.1835	99.9924	
   794	-2.5421	 3.1908	 0.6487	-2.9267	 3.2879	 0.3612	-2.9957	 3.3865	 0.3909	58.1940	99.9923	
   795	-2.5720	 3.1865	 0.6146	-2.9067	 3.3002	 0.3935	-2.9554	 3.4118	 0.4565	58.2492	99.9925	
   796	-2.4449	 3.2084	 0.7635	-2.7249	 3.3393	 0.6144	-2.7688	 3.4758	 0.7071	58.3144	99.9928	
   797	-2.3333	 3.2209	 0.8876	-2.5874	 3.3876	 0.8002	-2.6550	 3.5260	 0.8711	58.2609	99.9929	
   798	-2.3179	 3.2304	 0.9124	-2.6042	 3.4258	 0.8216	-2.6083	 3.5660	 0.9578	58.2415	99.9922	
   799	-2.2939	 3.2592	 0.9653	-2.5450	 3.4501	 0.9051	-2.5616	 3.6060	 1.0446	58.2518	99.9926	
   800	-2.2034	 3.2868	 1.0833	-2.4608	 3.4656	 1.0048	-2.4996	 3.6237	 1.1242	58.2498	99.9928	
   801	-2.2092	 3.3113	 1.1021	-2.4859	 3.4744	 0.9886	-2.5027	 3.6643	 1.1618	58.1863	99.9928	
   802	-2.1034	 3.3483	 1.2450	-2.2993	 3.5893	 1.2900	-2.2714	 3.7352	 1.4639	58.3999	99.9922	
   803	-1.9351	 3.4379	 1.5029	-2.1183	 3.6158	 1.4975	-2.1162	 3.7369	 1.6208	58.6649	99.9926	
   804	-1.9177	 3.3642	 1.4465	-2.2363	 3.4702	 1.2339	-2.2871	 3.5656	 1.2785	58.6023	99.9924	
   805	-2.0196	 3.2733	 1.2537	-2.3535	 3.3373	 0.9837	-2.4209	 3.4603	 1.0395	58.5825	99.9928	
   806	-2.0504	 3.2544	 1.2040	-2.3951	 3.2874	 0.8923	-2.4740	 3.4056	 0.9317	58.6368	99.9929	
   807	-2.1023	 3.2505	 1.1482	-2.4378	 3.3218	 0.8840	-2.4893	 3.4279	 0.9387	58.6126	99.9926	
   808	-1.9715	 3.3310	 1.3595	-2.2493	 3.3650	 1.1157	-2.3220	 3.4479	 1.1261	58.8946	99.9931	
   809	-1.8743	 3.3487	 1.4743	-2.1850	 3.3681	 1.1831	-2.2894	 3.4364	 1.1471	58.8813	99.9931	
   810	-1.8916	 3.3099	 1.4183	-2.2317	 3.3394	 1.1077	-2.3470	 3.4002	 1.0534	58.8016	99.9929	
   811	-1.9599	 3.2819	 1.3220	-2.3108	 3.3028	 0.9920	-2.4371	 3.3756	 0.9386	58.7235	99.9930	
   812	-2.0427	 3.2591	 1.2164	-2.3751	 3.2997	 0.9246	-2.4977	 3.3800	 0.8824	58.6591	99.9931	
   813	-2.0658	 3.2449	 1.1791	-2.4159	 3.2624	 0.8466	-2.5661	 3.3477	 0.7817	58.6091	99.9933	
   814	-2.0523	 3.2251	 1.1728	-2.4159	 3.2624	 0.8466	-2.5163	 3.3471	 0.8308	58.6552	99.9928	
   815	-1.9926	 3.2336	 1.2410	-2.3614	 3.2109	 0.8495	-2.5075	 3.3100	 0.8027	58.7079	99.9934	
   816	-2.0388	 3.2052	 1.1664	-2.4672	 3.1579	 0.6906	-2.6226	 3.2377	 0.6152	58.6803	99.9931	
   817	-2.0705	 3.1716	 1.1011	-2.5730	 3.1048	 0.5318	-2.7428	 3.1728	 0.4301	58.5813	99.9926	
   818	-2.1253	 3.1238	 0.9985	-2.6914	 3.0562	 0.3649	-2.8772	 3.0564	 0.1793	58.6143	99.9921	
   819	-2.2272	 3.0329	 0.8057	-2.8521	 2.9451	 0.0930	-3.0882	 2.9558	-0.1323	58.4011	99.9922	
   820	-2.3436	 2.9472	 0.6036	-2.9853	 2.8630	-0.1223	-3.1894	 2.8390	-0.3503	58.5284	99.9916	
   821	-2.4071	 2.8800	 0.4729	-3.0751	 2.7591	-0.3160	-3.3512	 2.7266	-0.6245	58.4539	99.9922	
   822	-2.4927	 2.8132	 0.3205	-3.2001	 2.7064	-0.4937	-3.4894	 2.6398	-0.8494	58.3934	99.9917	
   823	-2.5591	 2.8145	 0.2555	-3.2592	 2.6821	-0.5771	-3.5872	 2.5783	-1.0088	58.4762	99.9919	
   824	-2.6130	 2.7814	 0.1684	-3.3459	 2.6287	-0.7171	-3.7189	 2.5062	-1.2126	58.4090	99.9920	
   825	-2.6659	 2.7629	 0.0970	-3.3917	 2.6127	-0.7790	-3.7904	 2.5145	-1.2758	58.2625	99.9924	
   826	-2.6966	 2.7439	 0.0473	-3.4418	 2.6304	-0.8115	-3.7559	 2.5362	-1.2196	58.2841	99.9915	
   827	-2.6456	 2.7331	 0.0875	-3.3666	 2.6038	-0.7628	-3.7061	 2.5356	-1.1704	58.2885	99.9921	
   828	-2.6832	 2.7241	 0.0409	-3.4309	 2.6007	-0.8302	-3.7623	 2.5215	-1.2407	58.2443	99.9918	
   829	-2.7274	 2.7250	-0.0024	-3.4818	 2.6057	-0.8761	-3.8019	 2.5073	-1.2946	58.2755	99.9915	
   830	-2.7640	 2.7306	-0.0334	-3.5151	 2.5852	-0.9299	-3.8473	 2.4894	-1.3578	58.3023	99.9918	
   831	-2.8102	 2.7022	-0.1080	-3.5876	 2.5527	-1.0349	-3.8947	 2.4383	-1.4563	58.3649	99.9913	
   832	-2.8256	 2.6927	-0.1329	-3.6127	 2.5616	-1.0511	-3.8883	 2.4530	-1.4352	58.3379	99.9909	
   833	-2.7573	 2.7207	-0.0366	-3.5418	 2.5688	-0.9730	-3.8320	 2.4671	-1.3649	58.3735	99.9912	
   834	-2.7717	 2.7259	-0.0458	-3.5668	 2.5777	-0.9892	-3.8385	 2.4524	-1.3860	58.4424	99.9908	
   835	-2.8015	 2.7216	-0.0800	-3.5794	 2.5821	-0.9973	-3.8537	 2.4747	-1.3789	58.3777	99.9910	
   836	-2.6727	 2.8853	 0.2126	-3.3705	 2.7472	-0.6232	-3.6841	 2.6239	-1.0602	58.4720	99.9917	
   837	-2.5111	 2.9848	 0.4736	-3.2298	 2.8461	-0.3837	-3.5632	 2.6998	-0.8633	58.4720	99.9915	
   838	-2.5246	 3.0046	 0.4800	-3.2074	 2.8963	-0.3111	-3.4661	 2.7503	-0.7157	58.6113	99.9910	
   839	-2.4524	 2.9787	 0.5263	-3.1796	 2.8283	-0.3513	-3.4701	 2.6839	-0.7861	58.6240	99.9912	
   840	-2.5736	 2.9322	 0.3586	-3.2764	 2.8173	-0.4591	-3.5287	 2.7215	-0.8071	58.4682	99.9913	
   841	-2.5333	 2.9852	 0.4520	-3.2031	 2.8625	-0.3407	-3.5094	 2.7656	-0.7438	58.4308	99.9920	
   842	-2.5102	 2.9994	 0.4893	-3.1581	 2.8659	-0.2921	-3.5440	 2.7439	-0.8000	58.4118	99.9923	
   843	-2.4708	 3.0378	 0.5670	-3.1592	 2.9503	-0.2089	-3.5118	 2.8173	-0.6945	58.2790	99.9914	
   844	-2.5333	 2.9852	 0.4520	-3.1376	 2.9879	-0.1498	-3.3781	 2.9226	-0.4554	58.2465	99.9913	
   845	-2.2727	 3.2441	 0.9714	-2.6215	 3.3544	 0.7330	-2.8902	 3.2079	 0.3178	58.6484	99.9885	
   846	-1.7061	 3.5507	 1.8446	-2.1395	 3.4812	 1.3417	-2.7330	 3.2428	 0.5099	58.6542	99.9877	
   847	-2.1754	 3.1493	 0.9739	-2.7117	 3.1409	 0.4292	-3.0740	 3.0073	-0.0666	58.4585	99.9908	
   848	-2.3054	 3.1959	 0.8905	-2.7520	 3.2133	 0.4613	-3.1109	 3.0373	-0.0735	58.6126	99.9893	
   849	-2.1851	 3.2277	 1.0426	-2.6928	 3.2376	 0.5447	-3.1133	 3.0890	-0.0243	58.3144	99.9900	
   850	-2.2592	 3.2243	 0.9651	-2.6928	 3.2376	 0.5447	-3.0385	 3.1360	 0.0976	58.4609	99.9911	
   851	-2.2870	 3.1368	 0.8498	-2.7227	 3.1706	 0.4480	-3.0246	 3.0915	 0.0670	58.4733	99.9913	
   852	-2.3842	 3.1192	 0.7350	-2.8120	 3.1763	 0.3644	-3.0635	 3.0883	 0.0249	58.5183	99.9908	
   853	-2.3669	 3.1580	 0.7910	-2.7904	 3.2139	 0.4235	-3.0602	 3.1437	 0.0836	58.4163	99.9912	
   854	-2.3361	 3.1769	 0.8408	-2.7771	 3.2221	 0.4450	-3.0755	 3.1660	 0.0907	58.3039	99.9916	
   855	-2.3958	 3.1683	 0.7725	-2.8531	 3.2361	 0.3830	-3.1144	 3.1628	 0.0485	58.3060	99.9909	
   856	-2.3727	 3.1825	 0.8098	-2.8139	 3.2480	 0.4342	-3.0690	 3.1807	 0.1118	58.3491	99.9911	
   857	-2.3900	 3.1438	 0.7537	-2.8112	 3.1890	 0.3778	-3.0602	 3.1437	 0.0836	58.4225	99.9917	
   858	-2.4987	 3.0628	 0.5641	-2.9370	 3.1236	 0.1867	-3.1696	 3.0749	-0.0945	58.3796	99.9914	
   859	-2.6344	 3.0215	 0.3871	-3.1286	 3.0299	-0.0987	-3.3934	 2.9449	-0.4483	58.4011	99.9914	
   860	-2.7498	 2.9504	 0.2006	-3.2936	 2.9526	-0.3410	-3.5552	 2.8326	-0.7225	58.4068	99.9908	
   861	-2.9046	 2.8410	-0.0636	-3.4742	 2.8291	-0.6451	-3.7259	 2.7573	-0.9685	58.2537	99.9915	
   862	-2.9883	 2.8036	-0.1848	-3.5209	 2.8004	-0.7205	-3.7452	 2.7132	-1.0318	58.4025	99.9912	
   863	-2.9806	 2.8083	-0.1723	-3.5134	 2.8171	-0.6963	-3.7235	 2.7056	-1.0178	58.4748	99.9907	
   864	-3.0018	 2.8234	-0.1784	-3.5377	 2.8386	-0.6991	-3.7540	 2.7503	-1.0036	58.3367	99.9910	
   865	-2.9941	 2.8281	-0.1660	-3.5494	 2.8557	-0.6938	-3.7974	 2.7656	-1.0317	58.1857	99.9909	
   866	-3.0086	 2.8333	-0.1753	-3.5886	 2.8437	-0.7449	-3.8319	 2.7439	-1.0879	58.2100	99.9909	
   867	-3.0605	 2.8295	-0.2311	-3.5961	 2.8269	-0.7691	-3.8753	 2.7592	-1.1160	58.1419	99.9917	
   868	-2.9894	 2.9014	-0.0880	-3.5138	 2.9141	-0.5997	-3.7845	 2.7950	-0.9895	58.2888	99.9907	
   869	-2.9153	 2.9048	-0.0105	-3.4797	 2.9473	-0.5324	-3.7219	 2.8237	-0.8981	58.2251	99.9902	
   870	-2.9721	 2.9402	-0.0319	-3.5173	 2.9605	-0.5567	-3.7588	 2.8537	-0.9050	58.2272	99.9907	
   871	-2.9221	 3.0272	 0.1051	-3.4001	 3.0935	-0.3066	-3.6082	 3.0548	-0.5534	58.0718	99.9914	
   872	-2.5144	 3.3908	 0.8764	-2.9756	 3.4279	 0.4523	-3.2026	 3.3522	 0.1497	58.2409	99.9913	
   873	-2.2855	 3.5036	 1.2182	-2.8255	 3.4717	 0.6462	-3.1464	 3.3663	 0.2200	58.1982	99.9916	
   874	-2.3373	 3.3873	 1.0499	-2.9235	 3.3385	 0.4149	-3.2317	 3.2382	 0.0066	58.2137	99.9917	
   875	-2.5960	 3.1577	 0.5617	-3.2308	 3.1370	-0.0938	-3.4697	 3.0567	-0.4129	58.1308	99.9912	
   876	-2.8403	 3.0354	 0.1950	-3.4357	 3.0351	-0.4007	-3.6211	 3.0254	-0.5956	58.0106	99.9916	
   877	-2.9558	 2.9643	 0.0085	-3.5584	 3.0203	-0.5381	-3.6901	 2.9820	-0.7081	58.0172	99.9906	
   878	-3.0154	 2.9557	-0.0597	-3.5925	 2.9871	-0.6054	-3.7528	 2.9533	-0.7994	58.0433	99.9911	
   879	-3.0770	 2.9178	-0.1592	-3.6642	 2.9672	-0.6969	-3.8351	 2.9654	-0.8696	57.8315	99.9913	
   880	-3.0222	 2.9656	-0.0565	-3.5568	 3.0455	-0.5112	-3.7207	 3.0267	-0.6939	57.9259	99.9911	
   881	-2.9655	 3.0428	 0.0773	-3.4502	 3.1112	-0.3390	-3.6387	 3.0994	-0.5392	57.9740	99.9917	
   882	-2.9039	 3.0807	 0.1768	-3.4079	 3.1738	-0.2341	-3.6130	 3.1582	-0.4548	57.8349	99.9914	
   883	-2.9011	 3.1246	 0.2236	-3.4071	 3.1864	-0.2207	-3.6259	 3.1288	-0.4970	57.9934	99.9911	
   884	-2.9463	 3.1109	 0.1646	-3.4588	 3.1788	-0.2799	-3.6974	 3.1371	-0.5602	57.8473	99.9913	
   885	-2.9906	 3.1117	 0.1212	-3.5172	 3.1672	-0.3500	-3.7817	 3.1161	-0.6656	57.7943	99.9914	
   886	-3.0204	 3.1074	 0.0871	-3.5254	 3.1378	-0.3876	-3.8010	 3.0720	-0.7289	57.9274	99.9915	
   887	-3.0608	 3.0545	-0.0063	-3.5979	 3.1053	-0.4926	-3.8568	 2.9731	-0.8836	58.0497	99.9900	
   888	-3.1137	 3.0359	-0.0777	-3.6704	 3.0728	-0.5976	-3.9845	 2.9673	-1.0171	57.8166	99.9907	
   889	-3.1715	 3.0567	-0.1148	-3.7464	 3.0867	-0.6597	-4.0472	 2.9386	-1.1084	57.9086	99.9899	
   890	-3.1936	 3.0571	-0.1365	-3.8091	 3.1088	-0.7002	-4.0753	 2.9316	-1.1436	57.9041	99.9890	
   891	-3.2292	 3.0774	-0.1518	-3.8224	 3.1006	-0.7217	-4.1403	 2.9546	-1.1856	57.7892	99.9901	
   892	-3.2418	 3.1119	-0.1299	-3.8208	 3.1259	-0.6949	-4.1058	 2.9763	-1.1294	57.9063	99.9901	
   893	-3.1667	 3.1299	-0.0368	-3.7224	 3.1622	-0.5602	-4.0303	 3.0344	-0.9958	57.8144	99.9903	
   894	-3.1494	 3.1687	 0.0193	-3.6899	 3.1701	-0.5198	-4.0022	 3.0414	-0.9607	57.9199	99.9907	
   895	-3.1562	 3.1786	 0.0225	-3.7134	 3.2042	-0.5092	-4.0391	 3.0714	-0.9676	57.7746	99.9903	
   896	-3.1543	 3.2079	 0.0537	-3.7177	 3.2380	-0.4797	-4.0480	 3.1084	-0.9394	57.7042	99.9903	
   897	-3.1678	 3.2278	 0.0600	-3.7177	 3.2380	-0.4797	-4.0696	 3.1161	-0.9535	57.6996	99.9907	
   898	-3.1899	 3.2282	 0.0383	-3.7678	 3.2557	-0.5121	-4.0978	 3.1091	-0.9886	57.6950	99.9900	
   899	-3.1591	 3.2472	 0.0880	-3.7212	 3.2845	-0.4367	-4.0287	 3.1525	-0.8761	57.7135	99.9902	
   900	-3.1062	 3.2657	 0.1595	-3.6444	 3.2832	-0.3613	-3.9941	 3.1742	-0.8199	57.6783	99.9909	
   901	-3.1283	 3.2661	 0.1378	-3.6703	 3.2794	-0.3909	-4.0006	 3.1595	-0.8410	57.7486	99.9908	
   902	-3.1341	 3.2907	 0.1565	-3.6871	 3.3176	-0.3695	-4.0311	 3.2042	-0.8268	57.6057	99.9907	
   903	-3.1409	 3.3006	 0.1597	-3.6863	 3.3303	-0.3561	-4.0311	 3.2042	-0.8268	57.6409	99.9904	
   904	-3.1380	 3.3446	 0.2065	-3.6647	 3.3678	-0.2969	-4.0118	 3.2482	-0.7635	57.6478	99.9906	
   905	-3.0755	 3.3971	 0.3216	-3.6099	 3.4259	-0.1839	-3.9536	 3.2954	-0.6580	57.6525	99.9903	
   906	-3.0448	 3.4161	 0.3713	-3.5390	 3.4332	-0.1058	-3.8808	 3.3093	-0.5714	57.7715	99.9906	
   907	-3.0005	 3.4152	 0.4147	-3.5174	 3.4708	-0.0466	-3.8462	 3.3310	-0.5152	57.7060	99.9897	
   908	-2.9909	 3.4492	 0.4583	-3.5174	 3.4708	-0.0466	-3.8679	 3.3386	-0.5292	57.6945	99.9904	
   909	-3.0053	 3.4544	 0.4491	-3.5299	 3.4752	-0.0547	-3.8960	 3.3316	-0.5643	57.6876	99.9901	
   910	-3.0496	 3.4553	 0.4057	-3.5675	 3.4885	-0.0790	-3.9113	 3.3540	-0.5572	57.6618	99.9902	
   911	-3.0015	 3.5130	 0.5115	-3.5252	 3.5510	 0.0258	-3.8920	 3.3980	-0.4939	57.6220	99.9897	
   912	-2.9236	 3.5751	 0.6514	-3.4268	 3.5873	 0.1605	-3.7846	 3.4335	-0.3510	57.7738	99.9901	
   913	-2.8736	 3.5496	 0.6760	-3.3767	 3.5696	 0.1929	-3.7023	 3.4214	-0.2808	57.8574	99.9901	
   914	-2.8745	 3.5349	 0.6604	-3.3775	 3.5570	 0.1795	-3.7304	 3.4144	-0.3160	57.7806	99.9902	
   915	-2.9015	 3.5746	 0.6731	-3.3818	 3.5908	 0.2090	-3.7328	 3.4661	-0.2667	57.7548	99.9906	
   916	-2.8630	 3.5983	 0.7353	-3.3610	 3.6157	 0.2547	-3.7047	 3.4731	-0.2315	57.7875	99.9903	
   917	-2.8775	 3.6035	 0.7260	-3.3735	 3.6201	 0.2466	-3.7264	 3.4808	-0.2455	57.7502	99.9903	
   918	-2.8698	 3.6082	 0.7384	-3.3351	 3.6195	 0.2844	-3.6600	 3.4799	-0.1800	57.9058	99.9904	
   919	-2.8015	 3.6362	 0.8347	-3.2685	 3.6605	 0.3920	-3.5584	 3.5118	-0.0465	57.9912	99.9901	
   920	-2.7572	 3.6353	 0.8781	-3.1925	 3.6466	 0.4541	-3.5354	 3.5263	-0.0090	57.9215	99.9908	
   921	-2.7572	 3.6353	 0.8781	-3.2058	 3.6384	 0.4325	-3.5354	 3.5263	-0.0090	57.9215	99.9911	
   922	-2.7553	 3.6646	 0.9093	-3.1878	 3.7224	 0.5346	-3.4975	 3.6033	 0.1059	57.8372	99.9902	
   923	-2.6620	 3.7361	 1.0741	-3.1305	 3.8184	 0.6879	-3.4163	 3.6650	 0.2489	57.8417	99.9891	
   924	-2.6130	 3.8085	 1.1955	-3.0247	 3.8715	 0.8467	-3.3337	 3.7489	 0.4153	57.8596	99.9900	
   925	-2.5283	 3.8606	 1.3323	-2.8840	 3.9703	 1.0863	-3.1004	 3.8529	 0.7526	58.0548	99.9896	
   926	-2.3850	 3.9067	 1.5217	-2.6721	 3.9794	 1.3073	-2.8907	 3.9314	 1.0408	58.1577	99.9915	
   927	-2.3839	 3.8088	 1.4249	-2.6795	 3.9626	 1.2831	-2.8057	 3.9635	 1.1579	58.0274	99.9914	
   928	-2.3454	 3.8325	 1.4871	-2.5886	 3.9822	 1.3935	-2.6831	 3.9767	 1.2937	58.2547	99.9913	
   929	-2.2954	 3.8071	 1.5117	-2.5918	 3.9316	 1.3398	-2.7081	 3.9291	 1.2210	58.1998	99.9916	
   930	-2.4377	 3.6632	 1.2255	-2.7125	 3.8451	 1.1326	-2.8168	 3.8714	 1.0547	58.0381	99.9914	
   931	-2.5011	 3.5960	 1.0948	-2.6792	 3.8656	 1.1864	-2.8246	 3.8346	 1.0101	58.0849	99.9887	
   932	-2.2463	 3.7669	 1.5207	-2.3527	 4.0667	 1.7140	-2.5266	 4.0005	 1.4740	58.2201	99.9867	
   933	-1.7903	 4.0758	 2.2854	-2.0012	 4.2590	 2.2577	-2.1829	 4.0995	 1.9167	58.6383	99.9870	
   934	-1.6326	 4.2291	 2.5965	-2.0720	 4.4584	 2.3863	-2.5130	 4.3178	 1.8049	57.3100	99.9858	
   935	-1.4907	 4.7105	 3.2198	-1.7097	 5.1311	 3.4214	-2.1728	 5.1809	 3.0081	56.3623	99.9860	
   936	-1.1235	 5.2461	 4.1225	-1.2899	 5.5963	 4.3064	-1.7548	 5.5926	 3.8379	56.6762	99.9856	
   937	-0.8013	 5.4304	 4.6291	-1.0457	 5.7102	 4.6645	-1.5810	 5.6272	 4.0463	56.8355	99.9845	
   938	-0.7175	 5.3553	 4.6379	-0.9968	 5.5703	 4.5734	-1.5612	 5.4055	 3.8444	57.2283	99.9831	
   939	-0.9088	 5.1391	 4.2303	-1.2163	 5.3378	 4.1215	-1.8256	 5.1542	 3.3287	57.2102	99.9823	
   940	-1.1800	 4.9439	 3.7639	-1.4684	 5.0975	 3.6292	-2.0612	 4.9210	 2.8600	57.3889	99.9837	
   941	-1.4387	 4.7143	 3.2756	-1.7404	 4.8449	 3.1045	-2.3499	 4.6331	 2.2833	57.5114	99.9826	
   942	-1.6801	 4.5235	 2.8434	-1.9618	 4.6842	 2.7224	-2.5317	 4.4657	 1.9341	57.5755	99.9817	
   943	-1.7503	 4.4662	 2.7159	-2.0108	 4.6176	 2.6067	-2.6041	 4.3670	 1.7629	57.6972	99.9799	
   944	-1.8061	 4.4038	 2.5977	-2.0708	 4.5806	 2.5098	-2.6106	 4.3523	 1.7418	57.6787	99.9811	
   945	-1.7685	 4.4128	 2.6443	-1.9756	 4.5664	 2.5908	-2.5126	 4.2329	 1.7204	58.2247	99.9764	
   946	-1.7925	 4.2714	 2.4790	-1.8212	 3.8596	 2.0383	-3.5073	 4.4487	 0.9415	54.9208	99.9955	
   947	-1.7206	 4.5830	 2.8624	-1.8842	 4.6955	 2.8113	-2.4740	 4.3210	 1.8471	58.3562	99.9741	
   948	-1.7262	 4.3826	 2.6564	-1.9662	 4.5114	 2.5452	-2.5533	 4.2925	 1.7393	57.8073	99.9818	
   949	-1.6454	 4.4886	 2.8432	-1.8216	 4.6734	 2.8518	-2.4359	 4.4940	 2.0582	57.5710	99.9806	
   950	-1.3445	 4.8005	 3.4560	-1.3657	 5.1000	 3.7343	-1.8218	 5.1247	 3.3029	57.2810	99.9864	
   951	-0.2911	 5.3224	 5.0313	-0.2536	 5.6758	 5.4222	-0.7263	 5.5683	 4.8420	57.8383	99.9793	
   952	 0.1284	 5.5243	 5.6527	 0.1680	 5.8626	 6.0307	-0.4697	 5.7827	 5.3131	57.5359	99.9779	
   953	 0.2745	 5.7268	 6.0013	 0.2825	 6.0547	 6.3372	-0.3530	 5.9732	 5.6203	57.4455	99.9788	
   954	 0.1946	 5.7480	 5.9425	 0.0706	 6.0456	 6.1162	-0.5552	 6.0164	 5.4612	57.0464	99.9838	
   955	 0.2906	 5.9759	 6.2665	 0.1957	 6.3049	 6.5006	-0.3847	 6.2726	 5.8880	57.0249	99.9834	
   956	 0.4618	 6.1094	 6.5712	 0.3713	 6.4495	 6.8208	-0.2791	 6.3709	 6.0919	56.9848	99.9800	
   957	 0.5907	 6.1607	 6.7514	 0.4270	 6.5203	 6.9472	-0.2578	 6.4481	 6.1904	56.7057	99.9801	
   958	 0.5733	 6.2344	 6.8077	 0.4434	 6.5790	 7.0225	-0.2314	 6.5179	 6.2866	56.7534	99.9807	
   959	 0.6022	 6.2240	 6.8262	 0.3859	 6.5800	 6.9659	-0.3483	 6.5083	 6.1601	56.4464	99.9800	
   960	 0.4789	 6.2607	 6.7397	 0.3483	 6.5933	 6.9415	-0.3737	 6.5456	 6.1719	56.5684	99.9807	
   961	 0.4876	 6.2801	 6.7677	 0.3056	 6.6277	 6.9333	-0.3941	 6.5754	 6.1814	56.4640	99.9812	
   962	 0.5684	 6.2736	 6.8421	 0.3448	 6.6397	 6.9845	-0.3148	 6.6039	 6.2891	56.4104	99.9826	
   963	 0.6300	 6.3115	 6.9415	 0.4239	 6.6763	 7.1002	-0.2681	 6.6439	 6.3759	56.3799	99.9821	
   964	 0.7060	 6.3442	 7.0502	 0.5007	 6.6750	 7.1757	-0.2176	 6.6543	 6.4368	56.4079	99.9831	
   965	 0.7118	 6.3197	 7.0315	 0.4991	 6.6498	 7.1489	-0.1851	 6.6428	 6.4578	56.4510	99.9843	
   966	 0.7022	 6.2856	 6.9878	 0.4650	 6.6166	 7.0816	-0.2427	 6.6066	 6.3641	56.3672	99.9840	
   967	 0.6512	 6.2964	 6.9476	 0.4274	 6.6299	 7.0573	-0.2427	 6.6066	 6.3641	56.4766	99.9839	
   968	 0.6733	 6.2960	 6.9693	 0.4701	 6.5954	 7.0655	-0.2640	 6.5294	 6.2655	56.6148	99.9818	
   969	 0.6878	 6.2908	 6.9786	 0.5152	 6.5989	 7.1140	-0.1159	 6.5053	 6.3895	56.9824	99.9819	
   970	 0.8418	 6.2730	 7.1148	 0.6154	 6.5635	 7.1789	-0.0905	 6.4681	 6.3777	56.8520	99.9817	
   971	 0.7802	 6.2351	 7.0154	 0.5488	 6.5224	 7.0712	-0.1348	 6.3764	 6.2417	57.0393	99.9801	
   972	 0.7860	 6.2106	 6.9966	 0.5523	 6.4760	 7.0283	-0.1886	 6.3106	 6.1221	57.0465	99.9788	
   973	 0.6293	 6.0719	 6.7011	 0.3442	 6.3235	 6.6677	-0.4303	 6.1587	 5.7285	56.9008	99.9792	
   974	 0.4696	 6.0017	 6.4713	 0.2168	 6.2329	 6.4497	-0.5685	 6.0719	 5.5035	56.9557	99.9792	
   975	 0.4898	 5.9719	 6.4618	 0.2168	 6.2329	 6.4497	-0.5034	 6.0489	 5.5456	57.0707	99.9789	
   976	 0.6313	 5.9887	 6.6200	 0.4264	 6.2040	 6.6304	-0.3591	 6.0545	 5.6954	57.1806	99.9796	
   977	 0.6986	 6.0020	 6.7006	 0.4480	 6.2416	 6.6896	-0.3266	 6.0430	 5.7165	57.2047	99.9775	
   978	 0.6746	 5.9731	 6.6477	 0.4264	 6.2040	 6.6304	-0.3662	 6.0287	 5.6626	57.1330	99.9784	
   979	 0.6746	 5.9731	 6.6477	 0.4190	 6.1873	 6.6062	-0.3530	 5.9732	 5.6203	57.3272	99.9778	
   980	 0.6314	 5.8762	 6.5076	 0.3719	 6.0489	 6.4208	-0.4708	 5.8566	 5.3859	57.2611	99.9785	
   981	 0.5612	 5.8189	 6.3801	 0.2786	 5.9915	 6.2701	-0.5093	 5.7685	 5.2592	57.4250	99.9786	
   982	 0.6007	 5.7447	 6.3455	 0.3224	 5.8727	 6.1951	-0.4516	 5.6238	 5.1722	57.7534	99.9791	
   983	 0.5748	 5.6866	 6.2614	 0.3185	 5.8095	 6.1279	-0.4373	 5.4944	 5.0572	58.0848	99.9762	
   984	 0.5835	 5.5935	 6.1770	 0.2980	 5.6875	 5.9856	-0.5301	 5.4255	 4.8955	57.8559	99.9784	
   985	 0.4854	 5.5612	 6.0466	 0.1828	 5.6895	 5.8723	-0.5870	 5.4004	 4.8135	57.8942	99.9775	
   986	 0.5528	 5.5745	 6.1273	 0.2604	 5.7008	 5.9612	-0.5626	 5.4370	 4.8744	57.7564	99.9775	
   987	 0.5470	 5.5991	 6.1460	 0.2745	 5.7217	 5.9962	-0.4891	 5.4618	 4.9728	57.9137	99.9788	
   988	 0.6038	 5.5637	 6.1675	 0.2996	 5.7128	 6.0124	-0.4688	 5.4321	 4.9634	57.8733	99.9773	
   989	 0.6163	 5.5292	 6.1455	 0.3333	 5.6363	 5.9696	-0.4230	 5.3650	 4.9421	58.0785	99.9790	
   990	 0.6328	 5.4409	 6.0736	 0.3293	 5.5732	 5.9025	-0.3772	 5.2980	 4.9209	58.1546	99.9793	
   991	 0.6213	 5.3775	 5.9988	 0.3355	 5.4676	 5.8032	-0.4669	 5.1884	 4.7216	58.1570	99.9782	
   992	 0.4828	 5.2922	 5.7750	 0.2340	 5.3808	 5.6148	-0.5200	 5.1337	 4.6138	58.2394	99.9801	
   993	 0.4550	 5.2047	 5.6597	 0.1877	 5.2551	 5.4428	-0.5975	 5.0424	 4.4450	58.1868	99.9823	
   994	 0.3348	 5.0604	 5.3952	 0.0713	 5.1348	 5.2061	-0.6682	 4.8809	 4.2128	58.3865	99.9805	
   995	 0.2098	 4.9553	 5.1651	-0.0134	 5.0097	 4.9963	-0.7725	 4.8048	 4.0324	58.3505	99.9822	
   996	 0.1626	 4.9122	 5.0749	-0.0209	 4.9930	 4.9721	-0.7267	 4.7377	 4.0111	58.6363	99.9797	
   997	 0.1397	 4.7855	 4.9252	 0.0022	 4.8492	 4.8514	-0.7768	 4.6424	 3.8657	58.5605	99.9801	
   998	 0.0993	 4.7325	 4.8318	-0.0076	 4.7945	 4.7869	-0.7954	 4.6094	 3.8141	58.5644	99.9804	
   999	 0.0762	 4.7183	 4.7945	-0.1028	 4.8088	 4.7060	-0.8862	 4.5737	 3.6876	58.4744	99.9784	
  1000	 0.0263	 4.6313	 4.6575	-0.2902	 4.6813	 4.3911	-1.1536	 4.3630	 3.2095	58.3927	99.9761	
  1001	-0.0490	 4.8382	 4.7892	-0.3738	 4.9821	 4.6082	-1.1766	 4.8063	 3.6298	57.5961	99.9811	
  1002	 0.3788	 5.2845	 5.6634	-0.0156	 5.3850	 5.3695	-0.9011	 5.1497	 4.2487	57.4821	99.9796	
  1003	 0.3606	 5.2311	 5.5917	-0.1483	 5.4126	 5.2642	-1.0828	 5.2591	 4.1764	56.6417	99.9813	
  1004	 0.2538	 5.1794	 5.4332	-0.1107	 5.3993	 5.2885	-0.9836	 5.3427	 4.3592	56.6886	99.9833	
  1005	 0.2577	 5.1255	 5.3833	-0.1656	 5.3412	 5.1755	-1.0543	 5.1812	 4.1270	56.8793	99.9796	
  1006	 0.2241	 5.0626	 5.2867	-0.2895	 5.2041	 4.9146	-1.2580	 4.9255	 3.6675	57.0923	99.9760	
  1007	 0.1231	 4.9864	 5.1095	-0.4792	 5.0386	 4.5595	-1.4553	 4.6844	 3.2291	57.3665	99.9765	
  1008	 0.0895	 4.9235	 5.0130	-0.5588	 4.8924	 4.3336	-1.5592	 4.5233	 2.9642	57.5310	99.9787	
  1009	 0.0981	 4.9429	 5.0410	-0.5490	 4.9471	 4.3981	-1.5539	 4.6118	 3.0581	57.3004	99.9790	
  1010	 0.0644	 4.9924	 5.0568	-0.5717	 4.9938	 4.4222	-1.5759	 4.7044	 3.1285	57.1380	99.9810	
  1011	 0.0346	 4.9882	 5.0227	-0.6018	 5.0239	 4.4220	-1.5949	 4.7563	 3.1615	56.9761	99.9811	
  1012	-0.0260	 4.9649	 4.9389	-0.6367	 4.9781	 4.3413	-1.6098	 4.6937	 3.0840	57.1851	99.9811	
  1013	-0.0068	 4.9205	 4.9137	-0.6039	 4.8890	 4.2851	-1.5796	 4.5531	 2.9736	57.5521	99.9799	
  1014	-0.0432	 4.8136	 4.7704	-0.7219	 4.7434	 4.0215	-1.6664	 4.3069	 2.6406	57.9244	99.9783	
  1015	-0.2577	 4.6956	 4.4379	-0.9300	 4.5909	 3.6609	-1.9011	 4.1807	 2.2797	57.8620	99.9798	
  1016	-0.3818	 4.6052	 4.2234	-1.0515	 4.4917	 3.4402	-1.9985	 4.0343	 2.0359	58.0935	99.9783	
  1017	-0.5655	 4.5061	 3.9406	-1.1847	 4.4096	 3.2249	-2.1238	 3.9769	 1.8532	58.0648	99.9782	
  1018	-0.6550	 4.4933	 3.8382	-1.2599	 4.4362	 3.1763	-2.1594	 4.0290	 1.8697	57.9438	99.9786	
  1019	-0.6541	 4.5079	 3.8538	-1.2951	 4.4874	 3.1923	-2.1612	 4.0918	 1.9307	57.7769	99.9792	
  1020	-0.6089	 4.5217	 3.9128	-1.2450	 4.4697	 3.2247	-2.1005	 4.0873	 1.9869	57.8870	99.9809	
  1021	-0.5588	 4.4962	 3.9374	-1.1447	 4.4343	 3.2895	-1.9769	 4.0267	 2.0499	58.2186	99.9799	
  1022	-0.5838	 4.4527	 3.8689	-1.1553	 4.3670	 3.2116	-1.9815	 3.9492	 1.9678	58.3899	99.9800	
  1023	-0.6568	 4.3515	 3.6946	-1.2569	 4.2801	 3.0233	-2.0604	 3.8358	 1.7755	58.4476	99.9791	
  1024	-0.6828	 4.2933	 3.6105	-1.2416	 4.2166	 2.9750	-2.0790	 3.8028	 1.7239	58.4145	99.9794	
  1025	-0.6818	 4.3079	 3.6261	-1.2518	 4.2590	 3.0072	-2.0387	 3.8281	 1.7895	58.4623	99.9789	
  1026	-0.6972	 4.2985	 3.6013	-1.2542	 4.2211	 2.9669	-2.0929	 3.8473	 1.7545	58.2802	99.9812	
  1027	-0.6683	 4.2881	 3.6198	-1.2499	 4.1872	 2.9374	-2.0637	 3.7805	 1.7169	58.4828	99.9812	
  1028	-0.6269	 4.2433	 3.6164	-1.1696	 4.1395	 2.9699	-1.9661	 3.7460	 1.7800	58.6399	99.9817	
  1029	-0.5258	 4.2070	 3.6812	-1.1194	 4.1218	 3.0024	-1.8730	 3.7300	 1.8572	58.6460	99.9825	
  1030	-0.4748	 4.1962	 3.7214	-1.0618	 4.1208	 3.0590	-1.8188	 3.7109	 1.8922	58.7182	99.9814	
  1031	-0.4911	 4.1721	 3.6810	-1.0650	 4.0703	 3.0053	-1.8699	 3.6894	 1.8196	58.6379	99.9824	
  1032	-0.4825	 4.1915	 3.7090	-1.0618	 4.1208	 3.0590	-1.8327	 3.7554	 1.9228	58.5490	99.9827	
  1033	-0.4488	 4.2544	 3.8055	-0.9603	 4.2077	 3.2473	-1.7010	 3.8275	 2.1266	58.7193	99.9812	
  1034	-0.4729	 4.2255	 3.7526	-1.0336	 4.1625	 3.1289	-1.7599	 3.7692	 2.0094	58.7383	99.9819	
  1035	-0.4854	 4.2600	 3.7746	-0.9780	 4.2333	 3.2553	-1.6281	 3.8413	 2.2133	58.9191	99.9814	
  1036	-0.4074	 4.2095	 3.8021	-0.9259	 4.1438	 3.2179	-1.6437	 3.7677	 2.1241	58.8609	99.9824	
  1037	-0.3766	 4.2285	 3.8518	-0.8651	 4.1934	 3.3283	-1.5011	 3.8360	 2.3350	58.9673	99.9832	
  1038	-0.3584	 4.2819	 3.9235	-0.8220	 4.2686	 3.4466	-1.4626	 3.9241	 2.4616	58.8768	99.9828	
  1039	-0.3440	 4.2767	 3.9328	-0.8044	 4.2430	 3.4386	-1.4798	 3.9132	 2.4335	58.8344	99.9834	
  1040	-0.3950	 4.2875	 3.8926	-0.8471	 4.2774	 3.4303	-1.5029	 3.8988	 2.3960	58.9384	99.9809	
  1041	-0.4027	 4.2828	 3.8801	-0.8420	 4.2563	 3.4143	-1.4825	 3.8690	 2.3866	59.0790	99.9812	
  1042	-0.4036	 4.2681	 3.8645	-0.8671	 4.2651	 3.3980	-1.5029	 3.8988	 2.3960	58.9076	99.9817	
  1043	-0.2670	 4.3241	 4.0571	-0.7209	 4.2458	 3.5248	-1.4053	 3.8643	 2.4591	59.1372	99.9824	
  1044	-0.2794	 4.2461	 3.9667	-0.7950	 4.1880	 3.3930	-1.5197	 3.8030	 2.2834	58.9036	99.9817	
  1045	-0.3314	 4.2422	 3.9108	-0.8651	 4.1934	 3.3283	-1.6315	 3.7860	 2.1546	58.7792	99.9800	
  1046	-0.3757	 4.2431	 3.8674	-0.8851	 4.1811	 3.2960	-1.6437	 3.7677	 2.1241	58.8860	99.9799	
  1047	-0.3141	 4.2810	 3.9669	-0.8044	 4.2430	 3.4386	-1.5197	 3.8030	 2.2834	59.0449	99.9786	
  1048	-0.2631	 4.2702	 4.0071	-0.7742	 4.2129	 3.4387	-1.4828	 3.7730	 2.2903	59.1109	99.9796	
  1049	-0.3217	 4.1638	 3.8421	-0.8413	 4.0623	 3.2210	-1.5802	 3.6266	 2.0465	59.1931	99.9806	
  1050	-0.3418	 4.0810	 3.7392	-0.8343	 3.9694	 3.1351	-1.5632	 3.5415	 1.9784	59.3368	99.9810	
  1051	-0.2638	 4.0306	 3.7668	-0.7748	 3.8967	 3.1219	-1.5245	 3.4487	 1.9243	59.4642	99.9807	
  1052	-0.2802	 4.0065	 3.7263	-0.7697	 3.8755	 3.1058	-1.5601	 3.5008	 1.9408	59.1894	99.9827	
  1053	-0.3235	 4.0220	 3.6985	-0.8167	 3.9438	 3.1271	-1.5229	 3.5668	 2.0440	59.1788	99.9825	
  1054	-0.3140	 4.1685	 3.8545	-0.7304	 4.0941	 3.3637	-1.4332	 3.6764	 2.2432	59.3713	99.9799	
  1055	-0.2727	 4.2362	 3.9635	-0.7343	 4.2376	 3.5033	-1.3849	 3.8345	 2.4497	59.0790	99.9798	
  1056	-0.2189	 4.3818	 4.1629	-0.6347	 4.3961	 3.7614	-1.2370	 3.9913	 2.7544	59.1799	99.9797	
  1057	 0.0080	 4.5778	 4.5859	-0.2706	 4.5839	 4.3133	-0.9259	 4.2826	 3.3568	59.0618	99.9819	
  1058	 0.2649	 4.6656	 4.9305	-0.0347	 4.6685	 4.6338	-0.6959	 4.3313	 3.6355	59.2041	99.9808	
  1059	 0.2505	 4.6708	 4.9213	-0.0347	 4.6685	 4.6338	-0.7099	 4.3758	 3.6660	59.0729	99.9824	
  1060	 0.3034	 4.6893	 4.9927	 0.0127	 4.7099	 4.7226	-0.6394	 4.4413	 3.8020	58.9855	99.9832	
  1061	 0.2870	 4.6652	 4.9522	-0.0148	 4.6808	 4.6661	-0.6855	 4.4124	 3.7270	58.9420	99.9831	
  1062	 0.3409	 4.6984	 5.0393	 0.0628	 4.6922	 4.7550	-0.6191	 4.4115	 3.7925	59.0803	99.9828	
  1063	 0.3188	 4.6988	 5.0176	 0.0401	 4.7389	 4.7790	-0.6056	 4.4520	 3.8465	59.0252	99.9819	
  1064	 0.4150	 4.7018	 5.1168	 0.1302	 4.7458	 4.8761	-0.5283	 4.4473	 3.9190	59.0592	99.9812	
  1065	 0.4843	 4.7444	 5.2287	 0.2027	 4.7783	 4.9811	-0.4515	 4.5275	 4.0761	58.9702	99.9835	
  1066	 0.4698	 4.7496	 5.2194	 0.1749	 4.8463	 5.0212	-0.4597	 4.5756	 4.1160	58.8419	99.9814	
  1067	 0.4400	 4.7453	 5.1853	 0.1851	 4.8039	 4.9891	-0.4597	 4.5756	 4.1160	58.8815	99.9835	
  1068	 0.3612	 4.6686	 5.0298	 0.1079	 4.6956	 4.8035	-0.5731	 4.4405	 3.8675	58.9930	99.9826	
  1069	 0.3063	 4.6208	 4.9271	 0.0303	 4.6843	 4.7146	-0.5866	 4.4000	 3.8136	59.0666	99.9817	
  1070	 0.3121	 4.5962	 4.9084	 0.0706	 4.6119	 4.6825	-0.5702	 4.3039	 3.7337	59.3299	99.9813	
  1071	 0.2554	 4.5191	 4.7745	-0.0344	 4.5715	 4.5371	-0.6756	 4.3015	 3.6260	59.0177	99.9823	
  1072	 0.3690	 4.5608	 4.9298	 0.1783	 4.5932	 4.7716	-0.4334	 4.3685	 3.9352	59.2618	99.9841	
  1073	 0.5345	 4.6064	 5.1409	 0.3132	 4.7006	 5.0137	-0.3305	 4.4226	 4.0922	59.1583	99.9800	
  1074	 0.5181	 4.5823	 5.1004	 0.2685	 4.6001	 4.8686	-0.4253	 4.3204	 3.8953	59.2295	99.9816	
  1075	 0.4113	 4.5306	 4.9420	 0.1634	 4.5597	 4.7232	-0.4899	 4.2585	 3.7687	59.3317	99.9810	
  1076	 0.3901	 4.5457	 4.9359	 0.1458	 4.5853	 4.7312	-0.5038	 4.3030	 3.7992	59.2349	99.9815	
  1077	 0.4123	 4.5453	 4.9576	 0.1082	 4.5986	 4.7068	-0.5581	 4.3222	 3.7642	59.0177	99.9818	
  1078	 0.3785	 4.5949	 4.9734	 0.1282	 4.6109	 4.7391	-0.5459	 4.3404	 3.7947	59.1596	99.9824	
  1079	 0.4834	 4.6172	 5.1007	 0.2983	 4.6671	 4.9654	-0.3305	 4.4226	 4.0922	59.2672	99.9825	
  1080	 0.6528	 4.6090	 5.2618	 0.4060	 4.6484	 5.0544	-0.2438	 4.3919	 4.1483	59.2547	99.9828	
  1081	 0.6596	 4.5991	 5.2586	 0.4487	 4.6140	 5.0626	-0.2234	 4.3621	 4.1388	59.3565	99.9828	
  1082	 0.6202	 4.5607	 5.1809	 0.3962	 4.5938	 4.9899	-0.2898	 4.3630	 4.0733	59.1832	99.9831	
  1083	 0.5942	 4.5025	 5.0968	 0.3437	 4.5736	 4.9172	-0.2816	 4.3149	 4.0334	59.2565	99.9822	
  1084	 0.6982	 4.5102	 5.2084	 0.4565	 4.5337	 4.9902	-0.2491	 4.3034	 4.0544	59.2099	99.9832	
  1085	 0.6154	 4.4874	 5.1029	 0.4565	 4.5337	 4.9902	-0.1895	 4.3728	 4.1833	59.2156	99.9853	
  1086	 0.7790	 4.5037	 5.2828	 0.5716	 4.5318	 5.1034	-0.1041	 4.3200	 4.2160	59.3331	99.9839	
  1087	 0.6857	 4.4322	 5.1180	 0.5344	 4.4481	 4.9824	-0.1298	 4.2613	 4.1315	59.4434	99.9847	
  1088	 0.6963	 4.4809	 5.1772	 0.5540	 4.5574	 5.1114	-0.0798	 4.3566	 4.2769	59.3595	99.9829	
  1089	 0.8530	 4.6196	 5.4727	 0.7237	 4.7105	 5.4342	 0.0936	 4.4762	 4.5698	59.4408	99.9812	
  1090	 0.9069	 4.6528	 5.5597	 0.7762	 4.7307	 5.5069	 0.0732	 4.5060	 4.5793	59.2938	99.9806	
  1091	 0.9694	 4.7054	 5.6748	 0.8186	 4.7932	 5.6118	 0.1179	 4.5128	 4.6308	59.3897	99.9782	
  1092	 0.9405	 4.7157	 5.6562	 0.7861	 4.7854	 5.5714	 0.0854	 4.5243	 4.6098	59.3542	99.9797	
  1093	 1.0694	 4.7669	 5.8364	 0.8985	 4.8425	 5.7410	 0.1762	 4.5600	 4.7363	59.3525	99.9784	
  1094	 1.1156	 4.7954	 5.9110	 0.9334	 4.8883	 5.8217	 0.2127	 4.6149	 4.8277	59.2565	99.9785	
  1095	 1.1800	 4.8772	 6.0572	 0.9950	 4.9505	 5.9455	 0.2588	 4.6438	 4.9027	59.3525	99.9774	
  1096	 1.2435	 4.9444	 6.1879	 1.0624	 5.0042	 6.0666	 0.2780	 4.6879	 4.9660	59.3117	99.9763	
  1097	 1.2416	 4.9151	 6.1567	 1.0224	 4.9795	 6.0020	 0.2371	 4.6515	 4.8887	59.2672	99.9762	
  1098	 1.2973	 4.9776	 6.2749	 1.0839	 5.0418	 6.1257	 0.3024	 4.7245	 5.0270	59.2423	99.9767	
  1099	 1.3435	 5.0060	 6.3495	 1.1439	 5.0787	 6.2226	 0.3593	 4.7496	 5.1090	59.2814	99.9756	
  1100	 1.5118	 5.0956	 6.6074	 1.3657	 5.1424	 6.5081	 0.5970	 4.8351	 5.4322	59.4762	99.9772	
  1101	 1.5802	 5.1236	 6.7037	 1.4198	 5.1879	 6.6077	 0.6214	 4.8717	 5.4932	59.3717	99.9758	
  1102	 1.5744	 5.1481	 6.7225	 1.3987	 5.2599	 6.6586	 0.6528	 4.9341	 5.5870	59.3184	99.9752	
  1103	 1.5522	 5.1486	 6.7008	 1.4061	 5.2767	 6.6828	 0.6925	 4.9483	 5.6409	59.3995	99.9747	
  1104	 1.6003	 5.2063	 6.8066	 1.4727	 5.3177	 6.7904	 0.7047	 4.9666	 5.6714	59.4244	99.9726	
  1105	 1.5609	 5.1680	 6.7288	 1.3861	 5.2644	 6.6505	 0.6203	 4.9455	 5.5660	59.2795	99.9756	
  1106	 1.6099	 5.2404	 6.8502	 1.5178	 5.3212	 6.8389	 0.7879	 5.0615	 5.8495	59.3832	99.9784	
  1107	 1.7600	 5.2765	 7.0365	 1.6870	 5.3647	 7.0517	 0.9400	 5.1038	 6.0439	59.4270	99.9776	
  1108	 1.7763	 5.3006	 7.0769	 1.6710	 5.4156	 7.0866	 0.9400	 5.1038	 6.0439	59.4552	99.9751	
  1109	 1.7686	 5.2959	 7.0645	 1.6710	 5.4156	 7.0866	 0.9267	 5.1594	 6.0862	59.2619	99.9772	
  1110	 1.8321	 5.3631	 7.1952	 1.7341	 5.5030	 7.2372	 1.0087	 5.2321	 6.2409	59.2724	99.9763	
  1111	 1.8783	 5.3915	 7.2698	 1.7757	 5.5529	 7.3286	 1.0279	 5.2762	 6.3042	59.1725	99.9749	
  1112	 1.8792	 5.4062	 7.2854	 1.7831	 5.5697	 7.3528	 1.0977	 5.3307	 6.4284	59.1937	99.9780	
  1113	 1.9639	 5.4583	 7.4221	 1.9230	 5.6559	 7.5789	 1.2422	 5.4322	 6.6745	59.1870	99.9769	
  1114	 2.0668	 5.4513	 7.5182	 2.0132	 5.6628	 7.6759	 1.3252	 5.4311	 6.7564	59.1888	99.9762	
  1115	 2.0764	 5.4854	 7.5618	 2.0147	 5.6881	 7.7028	 1.3323	 5.4568	 6.7893	59.1888	99.9767	
  1116	 2.0755	 5.4707	 7.5462	 1.9897	 5.6969	 7.6866	 1.3120	 5.4866	 6.7987	59.0254	99.9774	
  1117	 2.1063	 5.4897	 7.5959	 2.0473	 5.6959	 7.7432	 1.3516	 5.5009	 6.8526	59.0620	99.9780	
  1118	 2.0485	 5.5104	 7.5589	 2.0147	 5.6881	 7.7028	 1.3191	 5.5124	 6.8315	59.0968	99.9794	
  1119	 2.1524	 5.5181	 7.6705	 2.0488	 5.7212	 7.7700	 1.4275	 5.4741	 6.9017	59.2948	99.9780	
  1120	 2.2237	 5.4775	 7.7012	 2.1475	 5.6605	 7.8080	 1.4600	 5.4626	 6.9227	59.1941	99.9791	
  1121	 2.1891	 5.4000	 7.5891	 2.1236	 5.5850	 7.7086	 1.4662	 5.3813	 6.8476	59.3296	99.9792	
  1122	 2.1035	 5.3332	 7.4367	 2.0229	 5.5108	 7.5337	 1.3531	 5.3421	 6.6953	59.1888	99.9808	
  1123	 2.0555	 5.2755	 7.3309	 1.9872	 5.4524	 7.4396	 1.3725	 5.2053	 6.5779	59.5837	99.9783	
  1124	 1.7795	 5.0071	 6.7866	 1.6881	 5.0737	 6.7618	 1.0204	 4.8776	 5.8982	59.6371	99.9828	
  1125	 1.5064	 4.7827	 6.2890	 1.4509	 4.8669	 6.3178	 0.9101	 4.7019	 5.6121	59.8546	99.9850	
  1126	 1.3650	 4.6534	 6.0185	 1.3423	 4.6663	 6.0086	 0.7589	 4.4897	 5.2487	60.0977	99.9853	
  1127	 1.1938	 4.5199	 5.7137	 1.2400	 4.5668	 5.8069	 0.7223	 4.4348	 5.1573	60.1537	99.9862	
  1128	 1.0170	 4.2985	 5.3154	 1.0056	 4.3009	 5.3065	 0.3824	 4.1255	 4.5080	60.1311	99.9846	
  1129	 0.7717	 4.1615	 4.9332	 0.8774	 4.1977	 5.0751	 0.3080	 3.9936	 4.3017	60.4492	99.9818	
  1130	 0.9786	 4.1623	 5.1409	 1.0980	 4.1391	 5.2371	 0.5605	 3.8648	 4.4254	61.0535	99.9811	
  1131	 0.6749	 3.6939	 4.3688	 0.4329	 3.6444	 4.0773	 0.0337	 3.3954	 3.4293	60.7569	99.9880	
  1132	 0.0727	 3.4076	 3.4803	-0.0135	 3.3694	 3.3559	-0.2853	 3.2482	 2.9630	60.8205	99.9911	
  1133	-0.2361	 3.2034	 2.9674	-0.3325	 3.1850	 2.8526	-0.4281	 3.0839	 2.6559	61.0357	99.9917	
  1134	-0.3765	 3.0889	 2.7124	-0.5696	 2.9782	 2.4086	-0.6349	 2.8688	 2.2340	61.2092	99.9924	
  1135	-0.4649	 2.9781	 2.5132	-0.7660	 2.8086	 2.0427	-0.8638	 2.7463	 1.8825	60.9761	99.9929	
  1136	-0.6130	 2.8588	 2.2458	-0.9216	 2.6763	 1.7548	-1.0460	 2.6637	 1.6178	60.7949	99.9934	
  1137	-0.6842	 2.7869	 2.1027	-1.0223	 2.6021	 1.5798	-1.1198	 2.5428	 1.4232	60.9550	99.9927	
  1138	-0.7092	 2.7433	 2.0342	-1.0604	 2.5058	 1.4454	-1.2159	 2.4186	 1.2028	61.0699	99.9932	
  1139	-0.7572	 2.6856	 1.9284	-1.1286	 2.4395	 1.3109	-1.2863	 2.3530	 1.0669	61.0621	99.9931	
  1140	-0.8860	 2.5219	 1.6359	-1.2881	 2.2440	 0.9559	-1.4670	 2.1118	 0.6449	61.2437	99.9929	
  1141	-1.1889	 2.1807	 0.9918	-1.6894	 1.9725	 0.2830	-1.9261	 1.8445	-0.0815	60.7527	99.9924	
  1142	-1.2019	 2.6652	 1.4633	-1.5417	 2.6953	 1.1535	-1.8231	 2.6331	 0.8102	59.6852	99.9916	
  1143	-0.9885	 2.9935	 2.0050	-1.2129	 2.9343	 1.7213	-1.6132	 2.8076	 1.1945	60.0293	99.9910	
  1144	-0.9989	 2.8323	 1.8333	-1.1750	 2.8240	 1.6490	-1.5185	 2.6329	 1.1145	60.4198	99.9884	
  1145	-0.5333	 3.0626	 2.5293	-0.7695	 2.8551	 2.0856	-1.2519	 2.5556	 1.3039	61.0319	99.9886	
  1146	-0.1674	 2.8939	 2.7265	-0.5150	 2.6231	 2.1081	-0.9718	 2.2420	 1.2702	61.6389	99.9884	
  1147	-0.6395	 2.3360	 1.6965	-0.9646	 2.0909	 1.1263	-1.3578	 1.9036	 0.5460	61.2943	99.9927	
  1148	-1.0291	 2.1384	 1.1093	-1.2573	 2.0200	 0.7627	-1.4489	 1.9528	 0.5040	61.1043	99.9931	
  1149	-1.3485	 1.9980	 0.6495	-1.6734	 1.9216	 0.2482	-1.7741	 1.8869	 0.1129	60.7852	99.9925	
  1150	-1.3687	 2.0278	 0.6591	-1.7326	 1.8973	 0.1647	-1.7781	 1.8205	 0.0425	61.0875	99.9918	
  1151	-1.3533	 2.0372	 0.6839	-1.7866	 1.8518	 0.0652	-1.8651	 1.7552	-0.1098	61.0986	99.9917	
  1152	-1.3850	 2.0036	 0.6186	-1.9081	 1.7527	-0.1555	-2.0781	 1.6213	-0.4566	61.0214	99.9919	
  1153	-1.4639	 1.9270	 0.4631	-2.0857	 1.6798	-0.4059	-2.2789	 1.5058	-0.7730	60.8860	99.9911	
  1154	-1.5294	 1.9429	 0.4136	-2.1840	 1.6435	-0.5405	-2.4712	 1.4381	-1.0330	60.8170	99.9918	
  1155	-1.6313	 1.8520	 0.2208	-2.3561	 1.4524	-0.9037	-2.7177	 1.2088	-1.5088	60.9473	99.9921	
  1156	-1.7554	 1.7616	 0.0062	-2.5219	 1.3625	-1.1594	-2.8961	 1.0966	-1.7994	60.8916	99.9918	
  1157	-1.7582	 1.7176	-0.0406	-2.5376	 1.3163	-1.2212	-2.8923	 1.0671	-1.8252	60.8930	99.9916	
  1158	-2.0157	 1.2777	-0.7380	-2.9444	 0.9564	-1.9880	-3.4578	 0.6905	-2.7672	60.1656	99.9913	
  1159	-2.6340	 1.6569	-0.9771	-2.9776	 1.8593	-1.1183	-3.2327	 1.9389	-1.2938	58.6877	99.9917	
  1160	-1.5556	 2.2222	 0.6666	-1.6917	 2.1412	 0.4495	-1.9759	 1.8452	-0.1307	61.3428	99.9867	
  1161	-1.1380	 2.2824	 1.1444	-1.3481	 2.2071	 0.8590	-1.7634	 2.0639	 0.3006	60.5827	99.9905	
  1162	-0.6650	 2.8550	 2.1900	-0.7981	 2.9104	 2.1123	-1.3279	 2.7633	 1.4355	59.9422	99.9860	
  1163	-0.2724	 3.8987	 3.6263	-0.3763	 4.0207	 3.6444	-0.7196	 3.8481	 3.1285	59.7389	99.9860	
  1164	 0.5728	 3.8280	 4.4008	 0.1332	 3.6663	 3.7995	-0.4621	 3.2542	 2.7922	60.5885	99.9846	
  1165	 0.0520	 2.8602	 2.9122	-0.6852	 2.1537	 1.4685	-1.7643	 1.4992	-0.2650	61.8271	99.9855	
  1166	-0.8491	 2.1788	 1.3297	-1.4129	 1.8877	 0.4748	-2.1315	 1.4707	-0.6607	60.9128	99.9863	
  1167	-0.6193	 2.4187	 1.7994	-1.2243	 2.1375	 0.9132	-1.9866	 1.6681	-0.3184	60.8025	99.9840	
  1168	-0.6001	 2.4868	 1.8867	-1.2505	 2.2307	 0.9802	-2.0406	 1.7832	-0.2572	60.4395	99.9843	
  1169	-0.4964	 2.7195	 2.2231	-1.1462	 2.4651	 1.3189	-1.9493	 2.0109	 0.0617	60.3056	99.9839	
  1170	-0.4351	 2.9824	 2.5473	-1.0414	 2.8091	 1.7677	-1.8670	 2.4565	 0.5896	59.5991	99.9850	
  1171	-0.3074	 3.3565	 3.0490	-0.9495	 3.2545	 2.3050	-1.6945	 2.9268	 1.2323	59.1851	99.9856	
  1172	-0.0884	 3.7727	 3.6843	-0.5880	 3.7080	 3.1200	-1.1977	 3.4519	 2.2543	59.2925	99.9877	
  1173	 0.1751	 3.9631	 4.1382	-0.1777	 4.0215	 3.8439	-0.6342	 3.7953	 3.1612	59.5038	99.9865	
  1174	 0.2119	 3.7325	 3.9444	-0.0666	 3.7498	 3.6832	-0.4633	 3.5089	 3.0457	60.1635	99.9870	
  1175	 0.1499	 3.2300	 3.3798	-0.2240	 3.1790	 2.9550	-0.5807	 2.8497	 2.2691	60.8691	99.9864	
  1176	-0.0203	 2.9986	 2.9783	-0.3432	 2.9111	 2.5679	-0.8075	 2.5794	 1.7721	60.9454	99.9857	
  1177	-0.0830	 3.1710	 3.0880	-0.4513	 3.0268	 2.5755	-1.0883	 2.6052	 1.5170	60.7556	99.9820	
  1178	 0.0335	 3.1443	 3.1777	-0.3592	 2.9620	 2.6028	-1.0222	 2.5084	 1.4863	60.9528	99.9817	
  1179	 0.0124	 3.0469	 3.0593	-0.3562	 2.8059	 2.4497	-1.0227	 2.3164	 1.2938	61.3629	99.9815	
  1180	 0.0499	 3.0559	 3.1058	-0.4444	 2.7273	 2.2829	-1.1256	 2.2624	 1.1368	61.2660	99.9859	
  1181	 0.0499	 3.0559	 3.1058	-0.4193	 2.7185	 2.2991	-1.1341	 2.2145	 1.0805	61.4010	99.9840	
  1182	 0.0538	 3.0020	 3.0558	-0.4057	 2.6297	 2.2240	-1.1337	 2.1296	 0.9960	61.5376	99.9848	
  1183	 0.0328	 2.9046	 2.9374	-0.4864	 2.5678	 2.0814	-1.1787	 2.0268	 0.8483	61.5658	99.9833	
  1184	-0.0057	 2.8809	 2.8752	-0.4605	 2.5716	 2.1110	-1.1401	 2.1149	 0.9749	61.3744	99.9853	
  1185	 0.1626	 2.9705	 3.1331	-0.2340	 2.7111	 2.4771	-0.9187	 2.2966	 1.3780	61.2251	99.9850	
  1186	 0.2857	 3.0463	 3.3320	-0.0302	 2.8974	 2.8672	-0.6417	 2.4813	 1.8397	61.2323	99.9823	
  1187	 0.3175	 3.0799	 3.3974	 0.0940	 2.9375	 3.0315	-0.5114	 2.5313	 2.0201	61.3897	99.9815	
  1188	 0.3002	 3.0411	 3.3413	 0.0866	 2.9207	 3.0073	-0.4910	 2.5015	 2.0106	61.4636	99.9807	
  1189	 0.2569	 3.0566	 3.3135	 0.0490	 2.9340	 2.9830	-0.5235	 2.5130	 1.9896	61.4636	99.9807	
  1190	 0.2760	 3.1247	 3.4008	 0.0654	 2.9928	 3.0582	-0.5202	 2.5683	 2.0483	61.4279	99.9806	
  1191	 0.4155	 3.2247	 3.6402	 0.1846	 3.0540	 3.2386	-0.4128	 2.6039	 2.1911	61.5626	99.9808	
  1192	 0.5127	 3.2423	 3.7550	 0.2437	 3.0783	 3.3221	-0.4281	 2.6262	 2.1982	61.3428	99.9797	
  1193	 0.4925	 3.2720	 3.7645	 0.2136	 3.1083	 3.3219	-0.4064	 2.6186	 2.2122	61.5186	99.9791	
  1194	 0.4636	 3.2824	 3.7460	 0.2261	 3.1039	 3.3300	-0.3942	 2.6369	 2.2427	61.5591	99.9800	
  1195	 0.4771	 3.2626	 3.7396	 0.2061	 3.0916	 3.2977	-0.4606	 2.6377	 2.1772	61.3415	99.9800	
  1196	 0.4405	 3.2682	 3.7087	 0.1427	 3.1011	 3.2438	-0.4843	 2.6122	 2.1280	61.4432	99.9793	
  1197	 0.5165	 3.3009	 3.8174	 0.2395	 3.1121	 3.3516	-0.3942	 2.6369	 2.2427	61.5174	99.9803	
  1198	 0.5473	 3.3198	 3.8671	 0.2751	 3.1706	 3.4457	-0.3302	 2.6877	 2.3576	61.4923	99.9792	
  1199	 0.5771	 3.3241	 3.9012	 0.3586	 3.1734	 3.5319	-0.2771	 2.7424	 2.4654	61.3982	99.9803	
  1200	 0.6578	 3.4301	 4.0880	 0.4182	 3.3073	 3.7255	-0.2128	 2.8892	 2.6765	61.1986	99.9805	
  1201	 0.8135	 3.6667	 4.4802	 0.6303	 3.5230	 4.1532	-0.0392	 3.1048	 3.0656	61.2113	99.9798	
  1202	 0.9857	 3.8149	 4.8005	 0.6840	 3.6654	 4.3494	-0.0454	 3.1860	 3.1408	61.0145	99.9778	
  1203	 0.9500	 3.8351	 4.7852	 0.5331	 3.6089	 4.1421	-0.2530	 3.1407	 2.8878	60.8045	99.9812	
  1204	 0.8375	 3.8080	 4.6455	 0.4266	 3.5433	 3.9698	-0.3383	 3.0126	 2.6745	61.1409	99.9799	
  1205	 0.6857	 3.5176	 4.2033	 0.3939	 3.3288	 3.7227	-0.2332	 2.9190	 2.6859	61.2230	99.9835	
  1206	 0.5608	 3.3000	 3.8608	 0.3543	 3.2072	 3.5615	-0.2162	 2.8339	 2.6178	61.2138	99.9820	
  1207	 0.5818	 3.3974	 3.9792	 0.3782	 3.2827	 3.6609	-0.2487	 2.8454	 2.5968	61.3033	99.9789	
  1208	 0.5799	 3.3681	 3.9480	 0.3532	 3.2915	 3.6447	-0.2040	 2.8522	 2.6483	61.3131	99.9792	
  1209	 0.6646	 3.4202	 4.0848	 0.4891	 3.3145	 3.8036	-0.1075	 2.8915	 2.7841	61.3867	99.9795	
  1210	 0.7128	 3.3654	 4.0782	 0.5236	 3.2507	 3.7742	-0.0566	 2.8171	 2.7605	61.5229	99.9798	
  1211	 0.6780	 3.5129	 4.1908	 0.6090	 3.3884	 3.9974	-0.0208	 2.8609	 2.8402	61.8686	99.9727	
  1212	 0.7233	 3.4141	 4.1375	 0.5299	 3.3518	 3.8817	-0.0378	 2.9460	 2.9084	61.2593	99.9797	
  1213	 0.7907	 3.4275	 4.2181	 0.5851	 3.3129	 3.8980	 0.0273	 2.9230	 2.9504	61.3952	99.9823	
  1214	 0.7993	 3.4469	 4.2462	 0.6184	 3.3334	 3.9518	 0.0645	 2.9890	 3.0536	61.3022	99.9839	
  1215	 0.9042	 3.4692	 4.3734	 0.7344	 3.3441	 4.0785	 0.1871	 3.0022	 3.1894	61.4107	99.9843	
  1216	 0.9523	 3.5270	 4.4792	 0.7775	 3.4193	 4.1968	 0.2057	 3.0352	 3.2410	61.4072	99.9818	
  1217	 0.9763	 3.5558	 4.5321	 0.7599	 3.4449	 4.2048	 0.1905	 3.0575	 3.2481	61.3339	99.9824	
  1218	 0.9637	 3.5903	 4.5541	 0.7732	 3.4531	 4.2263	 0.1484	 3.0950	 3.2435	61.2276	99.9831	
  1219	 0.9512	 3.6248	 4.5760	 0.7380	 3.5043	 4.2423	 0.1484	 3.0950	 3.2435	61.3291	99.9814	
  1220	 0.9454	 3.6494	 4.5948	 0.7638	 3.5081	 4.2719	 0.1498	 3.1171	 3.2670	61.3303	99.9820	
  1221	 1.0358	 3.6769	 4.7128	 0.8497	 3.5488	 4.3984	 0.2629	 3.1562	 3.4192	61.3730	99.9821	
  1222	 1.0657	 3.6812	 4.7469	 0.8696	 3.5611	 4.4307	 0.2629	 3.1562	 3.4192	61.3352	99.9811	
  1223	 1.0291	 3.6868	 4.7159	 0.8246	 3.5576	 4.3822	 0.2118	 3.1347	 3.3466	61.3633	99.9806	
