OxySoft export of:	C:\Users\TO3 TechSupport\Documents\Train2Adapt\T2A_40_2
Export date:	2022/09/17 04:36:09
Start of measurement:	2022-09-17 03:33:13.938

Datafile sample rate:	10.00	Hz
Datafile duration:	3703.800	s
Datafile total number of samples:	37038

Description:	

Optode-template:	PortaMon TSI Fit Factor
Optode distance (mm):	 35.00
Optode gradients (mm):	 5.00
DPF:	5.82

Device id:	334
# Receivers:	1
# Light sources:	6
# ADC:	2

Light source wavelengths:
device	index	wavelength
1	1	849	nm
1	2	759	nm
1	3	846	nm
1	4	757	nm
1	5	848	nm
1	6	757	nm

Export sample rate:	10.00	Hz
Selected time span:	0	3703.800
Selected time span (sample numbers):	0	37038


Legend:
Column	Trace (Measurement)
1	(Sample number)
2	Rx1-Tx1 O2Hb (T2A_40_2)
3	Rx1-Tx1 HHb (T2A_40_2)
4	Rx1-Tx1 tHb (T2A_40_2)
5	Rx1-Tx2 O2Hb (T2A_40_2)
6	Rx1-Tx2 HHb (T2A_40_2)
7	Rx1-Tx2 tHb (T2A_40_2)
8	Rx1-Tx3 O2Hb (T2A_40_2)
9	Rx1-Tx3 HHb (T2A_40_2)
10	Rx1-Tx3 tHb (T2A_40_2)
11	Rx1-Tx1,Tx2,Tx3 TSI% (T2A_40_2)
12	Rx1-Tx1,Tx2,Tx3 TSI Fit Factor (T2A_40_2)
13	(Event)


1	2	3	4	5	6	7	8	9	10	11	12	13
     0	142.9958	74.5124	217.5080	115.8480	61.6654	177.5134	94.8378	55.0254	149.8632	11.5652	98.7634	
     1	 0.4330	-0.0531	 0.3798	 0.5263	-0.0760	 0.4504	 0.5445	-0.0448	 0.4997	59.1753	99.9869	
     2	 0.4745	-0.0595	 0.4150	 0.5206	-0.0519	 0.4687	 0.5468	-0.0071	 0.5397	58.9597	99.9860	
     3	 0.6143	 0.0266	 0.6409	 0.6910	-0.0021	 0.6889	 0.7383	 0.0408	 0.7791	59.2370	99.9852	
     4	 0.6887	 0.0085	 0.6971	 0.7404	-0.0269	 0.7135	 0.7803	 0.0067	 0.7870	59.2731	99.9849	
     5	 0.6974	 0.0139	 0.7112	 0.7328	-0.0316	 0.7013	 0.7476	-0.0139	 0.7337	59.2592	99.9855	
     6	 0.6548	 0.0036	 0.6583	 0.7101	-0.0455	 0.6646	 0.7272	-0.0388	 0.6885	59.3456	99.9862	
     7	 0.6045	 0.0046	 0.6090	 0.6656	-0.0592	 0.6065	 0.6503	-0.0629	 0.5874	59.3318	99.9871	
     8	 0.4264	-0.0252	 0.4011	 0.4116	-0.0501	 0.3615	 0.3871	-0.0470	 0.3402	58.8724	99.9866	
     9	 0.2732	 0.0723	 0.3455	 0.2189	 0.0106	 0.2296	 0.2162	 0.0391	 0.2553	58.6861	99.9834	
    10	 0.1782	 0.0298	 0.2079	 0.0930	-0.0255	 0.0675	 0.1009	 0.0029	 0.1037	58.5863	99.9826	
    11	 0.0077	-0.0112	-0.0036	-0.0547	-0.0614	-0.1161	-0.0211	-0.0375	-0.0586	58.6299	99.9827	
    12	-0.0677	-0.0097	-0.0776	-0.0605	-0.0373	-0.0978	-0.0196	-0.0124	-0.0319	58.6937	99.9847	
    13	-0.0983	-0.0924	-0.1908	-0.1407	-0.1557	-0.2963	-0.1245	-0.1871	-0.3115	58.8688	99.9852	
    14	-0.3865	-0.3978	-0.7844	-0.3085	-0.3971	-0.7056	-0.2382	-0.4036	-0.6418	59.0726	99.9871	
    15	-0.4630	-0.4129	-0.8760	-0.3285	-0.3680	-0.6966	-0.2344	-0.3408	-0.5752	58.9713	99.9877	
    16	-0.4052	-0.2974	-0.7027	-0.2778	-0.2539	-0.5317	-0.1956	-0.2197	-0.4153	58.8463	99.9876	
    17	-0.1769	-0.1409	-0.3179	-0.0517	-0.1285	-0.1801	 0.0294	-0.1388	-0.1094	59.1132	99.9881	
    18	-0.2173	-0.2456	-0.4630	-0.1452	-0.2274	-0.3726	-0.0840	-0.2463	-0.3303	59.0001	99.9880	
    19	-0.2566	-0.2059	-0.4627	-0.1464	-0.1316	-0.2781	-0.0618	-0.0873	-0.1491	58.6909	99.9876	
    20	 0.0000	 0.0000	-0.0000	 0.0000	-0.0000	-0.0000	 0.0001	-0.0000	 0.0000	58.5992	99.9871	
    21	-0.2304	-0.1898	-0.4203	-0.2639	-0.1488	-0.4127	-0.2918	-0.1472	-0.4390	58.3037	99.9881	
    22	-0.4293	-0.2803	-0.7096	-0.3983	-0.2040	-0.6023	-0.4261	-0.1832	-0.6093	58.2273	99.9896	
    23	-0.5144	-0.4285	-0.9430	-0.4358	-0.3375	-0.7732	-0.3960	-0.3094	-0.7053	58.5123	99.9890	
    24	-0.3121	-0.5437	-0.8558	-0.1528	-0.4668	-0.6196	-0.0839	-0.4517	-0.5356	59.1085	99.9897	
    25	-0.0136	-0.5996	-0.6133	 0.1252	-0.5577	-0.4325	 0.1008	-0.5170	-0.4161	59.0941	99.9901	
    26	 0.0531	-0.6065	-0.5535	 0.0865	-0.5953	-0.5089	 0.0239	-0.5411	-0.5172	58.8401	99.9880	
    27	 0.0192	-0.6114	-0.5923	 0.0353	-0.5993	-0.5640	 0.0043	-0.5535	-0.5492	58.8837	99.9871	
    28	 0.0629	-0.5845	-0.5217	 0.1101	-0.5670	-0.4569	 0.1139	-0.5088	-0.3948	58.9953	99.9865	
    29	 0.1995	-0.5483	-0.3489	 0.2209	-0.5401	-0.3193	 0.2162	-0.4807	-0.2645	58.9953	99.9859	
    30	 0.2520	-0.5161	-0.2642	 0.2729	-0.5219	-0.2489	 0.2801	-0.4648	-0.1847	59.0870	99.9853	
    31	 0.3317	-0.4510	-0.1194	 0.3780	-0.4709	-0.0930	 0.4035	-0.3993	 0.0042	59.1927	99.9845	
    32	 0.5054	-0.3600	 0.1453	 0.5275	-0.4064	 0.1211	 0.5574	-0.3510	 0.2064	59.3249	99.9836	
    33	 0.6780	-0.2857	 0.3922	 0.6686	-0.3609	 0.3077	 0.6793	-0.3106	 0.3687	59.3636	99.9827	
    34	 0.7818	-0.2378	 0.5439	 0.7660	-0.3147	 0.4514	 0.8193	-0.2831	 0.5363	59.5503	99.9819	
    35	 0.9709	-0.1694	 0.8014	 0.9801	-0.2656	 0.7145	 0.9740	-0.2222	 0.7518	59.5547	99.9832	
    36	 1.0474	-0.1542	 0.8931	 1.0388	-0.2570	 0.7818	 1.0298	-0.2355	 0.7943	59.6367	99.9835	
    37	 1.0135	-0.1591	 0.8543	 1.0095	-0.2613	 0.7481	 1.0044	-0.2394	 0.7650	59.6367	99.9835	
    38	 1.0124	-0.1757	 0.8366	 0.9943	-0.2706	 0.7237	 0.9848	-0.2517	 0.7331	59.5891	99.9836	
    39	 0.9960	-0.1699	 0.8261	 0.9943	-0.2706	 0.7237	 0.9848	-0.2517	 0.7331	59.6345	99.9838	
    40	 1.0124	-0.1757	 0.8366	 1.0086	-0.2757	 0.7329	 1.0036	-0.2519	 0.7517	59.6367	99.9835	
    41	 1.0212	-0.1704	 0.8507	 1.0161	-0.2710	 0.7451	 1.0225	-0.2522	 0.7703	59.6822	99.9833	
    42	 1.0124	-0.1757	 0.8366	 1.0086	-0.2757	 0.7329	 1.0094	-0.2604	 0.7490	59.6800	99.9836	
    43	 0.9862	-0.1919	 0.7942	 0.9783	-0.2943	 0.6840	 0.9898	-0.2727	 0.7171	59.6800	99.9829	
    44	 0.9611	-0.1914	 0.7696	 0.9783	-0.2943	 0.6840	 0.9775	-0.2684	 0.7091	59.6822	99.9837	
    45	 0.9611	-0.1914	 0.7696	 0.9783	-0.2943	 0.6840	 0.9832	-0.2768	 0.7064	59.7254	99.9838	
    46	 0.9611	-0.1914	 0.7696	 0.9565	-0.2939	 0.6625	 0.9709	-0.2725	 0.6985	59.6800	99.9829	
    47	 0.9611	-0.1914	 0.7696	 0.9783	-0.2943	 0.6840	 0.9898	-0.2727	 0.7171	59.7275	99.9835	
    48	 0.9862	-0.1919	 0.7942	 0.9925	-0.2993	 0.6932	 1.0079	-0.2855	 0.7223	59.7686	99.9832	
    49	 0.9698	-0.1860	 0.7837	 0.9783	-0.2943	 0.6840	 0.9832	-0.2768	 0.7064	59.7232	99.9835	
    50	 0.9611	-0.1914	 0.7696	 0.9707	-0.2990	 0.6717	 0.9890	-0.2853	 0.7037	59.7686	99.9832	
    51	 0.9611	-0.1914	 0.7696	 0.9632	-0.3036	 0.6595	 0.9702	-0.2850	 0.6851	59.7211	99.9831	
    52	 0.9523	-0.1968	 0.7555	 0.9632	-0.3036	 0.6595	 0.9759	-0.2935	 0.6824	59.7665	99.9836	
    53	 0.9436	-0.2021	 0.7413	 0.9556	-0.3083	 0.6473	 0.9694	-0.2976	 0.6718	59.7665	99.9836	
    54	 0.9523	-0.1968	 0.7555	 0.9632	-0.3036	 0.6595	 0.9883	-0.2978	 0.6904	59.8118	99.9834	
    55	 0.9611	-0.1914	 0.7696	 0.9632	-0.3036	 0.6595	 0.9883	-0.2978	 0.6904	59.8097	99.9830	
    56	 0.9523	-0.1968	 0.7555	 0.9698	-0.3133	 0.6565	 0.9694	-0.2976	 0.6718	59.7643	99.9837	
    57	 0.9436	-0.2021	 0.7413	 0.9623	-0.3180	 0.6443	 0.9752	-0.3061	 0.6691	59.8097	99.9835	
    58	 0.9436	-0.2021	 0.7413	 0.9480	-0.3130	 0.6351	 0.9629	-0.3017	 0.6612	59.7643	99.9832	
    59	 0.9272	-0.1963	 0.7308	 0.9338	-0.3079	 0.6259	 0.9440	-0.3015	 0.6425	59.7622	99.9836	
    60	 0.9349	-0.2075	 0.7272	 0.9405	-0.3176	 0.6228	 0.9440	-0.3015	 0.6425	59.7189	99.9834	
    61	 0.9272	-0.1963	 0.7308	 0.9480	-0.3130	 0.6351	 0.9629	-0.3017	 0.6612	59.8097	99.9835	
    62	 0.9523	-0.1968	 0.7555	 0.9556	-0.3083	 0.6473	 0.9694	-0.2976	 0.6718	59.7643	99.9832	
    63	 0.9523	-0.1968	 0.7555	 0.9623	-0.3180	 0.6443	 0.9752	-0.3061	 0.6691	59.8076	99.9831	
    64	 0.9359	-0.1909	 0.7449	 0.9480	-0.3130	 0.6351	 0.9629	-0.3017	 0.6612	59.8076	99.9831	
    65	 0.9523	-0.1968	 0.7555	 0.9480	-0.3130	 0.6351	 0.9506	-0.2974	 0.6532	59.7167	99.9831	
    66	 0.9436	-0.2021	 0.7413	 0.9338	-0.3079	 0.6259	 0.9498	-0.3099	 0.6399	59.7600	99.9835	
    67	 0.9184	-0.2016	 0.7167	 0.9329	-0.3223	 0.6106	 0.9309	-0.3097	 0.6213	59.7600	99.9836	
    68	 0.9184	-0.2016	 0.7167	 0.9262	-0.3126	 0.6136	 0.9375	-0.3056	 0.6319	59.7622	99.9836	
    69	 0.9436	-0.2021	 0.7413	 0.9480	-0.3130	 0.6351	 0.9686	-0.3102	 0.6585	59.8076	99.9834	
    70	 0.9359	-0.1909	 0.7449	 0.9480	-0.3130	 0.6351	 0.9563	-0.3058	 0.6505	59.8054	99.9834	
    71	 0.9436	-0.2021	 0.7413	 0.9405	-0.3176	 0.6228	 0.9498	-0.3099	 0.6399	59.7600	99.9832	
    72	 0.9272	-0.1963	 0.7308	 0.9262	-0.3126	 0.6136	 0.9375	-0.3056	 0.6319	59.7600	99.9832	
    73	 0.9272	-0.1963	 0.7308	 0.9262	-0.3126	 0.6136	 0.9433	-0.3140	 0.6292	59.8033	99.9833	
    74	 0.9108	-0.1904	 0.7203	 0.9187	-0.3173	 0.6014	 0.9309	-0.3097	 0.6213	59.8033	99.9831	
    75	 0.9184	-0.2016	 0.7167	 0.9187	-0.3173	 0.6014	 0.9186	-0.3053	 0.6133	59.7146	99.9834	
    76	 0.9272	-0.1963	 0.7308	 0.9196	-0.3029	 0.6167	 0.9375	-0.3056	 0.6319	59.7600	99.9835	
    77	 0.9359	-0.1909	 0.7449	 0.9338	-0.3079	 0.6259	 0.9375	-0.3056	 0.6319	59.7579	99.9835	
    78	 0.9010	-0.2124	 0.6885	 0.8666	-0.3355	 0.5311	 0.8329	-0.3713	 0.4616	59.7319	99.9850	
    79	 0.6912	-0.3415	 0.3496	 0.6747	-0.4951	 0.1796	 0.6830	-0.5622	 0.1208	60.0676	99.9845	
    80	 0.7176	-0.4532	 0.2643	 0.8023	-0.6649	 0.1375	 0.8536	-0.7573	 0.0963	60.8232	99.9849	
    81	 0.9112	-0.5737	 0.3374	 0.9829	-0.8020	 0.1809	 1.0068	-0.9269	 0.0799	61.1193	99.9859	
    82	 0.9702	-0.5693	 0.4008	 1.0604	-0.7267	 0.3337	 1.1109	-0.7648	 0.3462	60.7165	99.9845	
    83	 0.8306	-0.9109	-0.0804	 0.5996	-1.2314	-0.6318	 0.1335	-1.5361	-1.4026	60.3305	99.9944	
    84	-0.3944	-1.2975	-1.6920	-0.8858	-1.4840	-2.3698	-1.3845	-1.6801	-3.0646	58.1856	99.9913	
    85	-1.1008	-1.0612	-2.1621	-1.5521	-1.2046	-2.7567	-2.0107	-1.3240	-3.3348	57.2721	99.9902	
    86	-1.4454	-0.8099	-2.2554	-1.7357	-0.7657	-2.5013	-2.0172	-0.8083	-2.8256	56.8008	99.9909	
    87	-1.2336	-0.5197	-1.7534	-1.2857	-0.4333	-1.7189	-1.4819	-0.4840	-1.9660	57.4471	99.9938	
    88	-1.0324	-0.5237	-1.5563	-1.1727	-0.4878	-1.6605	-1.4561	-0.5766	-2.0327	57.4305	99.9940	
    89	-0.9820	-0.6525	-1.6346	-1.1394	-0.7710	-1.9104	-1.4531	-1.0462	-2.4992	58.6478	99.9954	
    90	-0.9214	-1.1426	-2.0641	-0.9782	-1.3340	-2.3122	-1.1929	-1.6322	-2.8252	59.9785	99.9945	
    91	-0.5649	-1.3385	-1.9035	-0.6629	-1.5261	-2.1890	-0.8947	-1.7954	-2.6900	60.1186	99.9937	
    92	-0.6632	-1.4310	-2.0943	-0.7385	-1.5727	-2.3113	-0.9062	-1.7785	-2.6847	59.9660	99.9922	
    93	-0.7233	-1.4520	-2.1754	-0.7594	-1.5580	-2.3174	-0.8793	-1.7495	-2.6288	59.9897	99.9922	
    94	-0.7397	-1.4462	-2.1859	-0.7283	-1.5250	-2.2533	-0.7993	-1.6750	-2.4744	59.9772	99.9915	
    95	-0.6435	-1.3870	-2.0306	-0.6223	-1.4598	-2.0821	-0.6832	-1.6262	-2.3094	60.0770	99.9919	
    96	-0.5606	-1.2720	-1.8326	-0.5289	-1.3608	-1.8896	-0.5755	-1.5102	-2.0858	60.0916	99.9910	
    97	-0.2984	-1.1106	-1.4091	-0.2792	-1.2069	-1.4861	-0.3121	-1.4172	-1.7293	60.3681	99.9917	
    98	-0.2360	-1.1840	-1.4201	-0.3126	-1.3931	-1.7058	-0.4877	-1.7210	-2.2086	60.6884	99.9936	
    99	-0.6302	-1.5705	-2.2009	-0.7778	-1.7349	-2.5127	-1.1023	-1.9017	-3.0040	59.4569	99.9930	
   100	-1.5034	-1.8364	-3.3399	-1.6570	-1.8350	-3.4920	-1.8680	-1.8751	-3.7430	58.3360	99.9908	
   101	-1.7865	-1.8030	-3.5896	-1.6677	-1.7725	-3.4402	-1.5990	-1.8995	-3.4985	59.7587	99.9919	
   102	-1.1603	-1.7211	-2.8814	-1.0061	-1.7789	-2.7850	-0.9965	-1.9198	-2.9163	60.3986	99.9924	
   103	-0.9537	-1.6419	-2.5957	-0.8765	-1.6853	-2.5619	-0.8527	-1.8294	-2.6821	60.2673	99.9911	
   104	-0.8401	-1.5719	-2.4121	-0.7630	-1.6154	-2.3784	-0.7604	-1.7594	-2.5198	60.2269	99.9915	
   105	-0.7779	-1.5176	-2.2956	-0.6798	-1.5641	-2.2439	-0.7008	-1.7098	-2.4106	60.2310	99.9923	
   106	-0.7789	-1.5342	-2.3133	-0.6949	-1.5735	-2.2684	-0.7058	-1.6888	-2.3946	60.1021	99.9913	
   107	-0.7582	-1.4736	-2.2319	-0.6250	-1.5028	-2.1278	-0.6070	-1.6146	-2.2216	60.2132	99.9916	
   108	-0.6796	-1.4251	-2.1048	-0.5342	-1.4469	-1.9811	-0.5147	-1.5445	-2.0593	60.1814	99.9916	
   109	-0.5900	-1.3380	-1.9282	-0.4207	-1.3770	-1.7977	-0.3920	-1.4916	-1.8837	60.3675	99.9918	
   110	-0.5048	-1.3175	-1.8224	-0.3762	-1.3633	-1.7396	-0.3739	-1.5044	-1.8784	60.3537	99.9921	
   111	-0.5299	-1.3170	-1.8471	-0.3829	-1.3536	-1.7366	-0.3566	-1.5298	-1.8864	60.5339	99.9928	
   112	-0.5310	-1.3337	-1.8648	-0.3723	-1.4161	-1.7883	-0.3750	-1.6260	-2.0010	60.7838	99.9935	
   113	-0.4361	-1.1634	-1.5995	-0.3655	-1.1911	-1.5566	-0.5264	-1.3222	-1.8486	59.6100	99.9945	
   114	-0.5981	-0.9435	-1.5416	-0.5428	-0.8864	-1.4292	-0.7241	-0.9507	-1.6748	58.6973	99.9946	
   115	-0.7874	-0.7564	-1.5438	-0.6620	-0.6976	-1.3596	-0.7800	-0.7320	-1.5120	58.6479	99.9940	
   116	-0.5600	-0.7443	-1.3044	-0.4742	-0.7199	-1.1942	-0.5568	-0.7852	-1.3420	59.0020	99.9928	
   117	-0.1237	-0.8752	-0.9990	-0.0245	-0.8569	-0.8813	-0.0816	-0.9339	-1.0154	59.5568	99.9925	
   118	 0.3487	-1.0957	-0.7471	 0.5441	-1.0724	-0.5283	 0.5284	-1.1429	-0.6146	60.3488	99.9930	
   119	 0.4311	-1.5084	-1.0774	 0.5175	-1.6131	-1.0956	 0.2722	-1.7391	-1.4670	60.5493	99.9947	
   120	-0.0660	-1.7985	-1.8645	-0.1412	-1.9085	-2.0496	-0.4820	-2.0438	-2.5259	59.8715	99.9944	
   121	-0.4181	-1.6637	-2.0819	-0.6430	-1.7898	-2.4328	-1.0923	-1.9437	-3.0360	58.9670	99.9945	
   122	-0.9496	-1.4475	-2.3972	-1.2164	-1.5359	-2.7523	-1.6142	-1.6310	-3.2452	58.0946	99.9925	
   123	-1.2909	-1.1463	-2.4373	-1.4604	-1.1343	-2.5947	-1.8154	-1.2134	-3.0287	57.5634	99.9944	
   124	-1.6352	-1.1505	-2.7858	-1.6851	-1.1209	-2.8061	-2.0062	-1.2486	-3.2548	57.8498	99.9964	
   125	-1.6164	-1.3786	-2.9952	-1.5834	-1.4722	-3.0557	-1.7950	-1.7083	-3.5033	59.3877	99.9959	
   126	-1.1888	-1.6427	-2.8316	-1.1889	-1.7950	-2.9839	-1.3900	-2.0824	-3.4724	60.2397	99.9954	
   127	-1.0652	-1.6785	-2.7438	-1.0270	-1.7642	-2.7912	-1.2615	-2.0380	-3.2995	60.0776	99.9967	
   128	-0.9767	-1.6081	-2.5849	-0.9428	-1.6986	-2.6414	-1.1742	-1.9469	-3.1211	59.9980	99.9963	
   129	-0.9166	-1.5870	-2.5038	-0.9059	-1.6896	-2.5955	-1.1466	-1.9053	-3.0519	59.8627	99.9956	
   130	-0.9756	-1.5914	-2.5672	-0.9344	-1.6796	-2.6139	-1.1466	-1.9053	-3.0519	59.9638	99.9958	
   131	-1.0554	-1.6565	-2.7120	-1.0270	-1.7642	-2.7912	-1.2150	-1.9967	-3.2117	60.0904	99.9952	
   132	-1.2673	-1.8189	-3.0863	-1.1632	-1.8481	-3.0113	-1.2261	-2.0762	-3.3023	60.3098	99.9950	
   133	-1.1975	-1.6481	-2.8457	-1.0091	-1.7118	-2.7210	-1.1866	-1.9425	-3.1291	60.2629	99.9972	
   134	-1.1200	-1.4885	-2.6087	-1.0695	-1.5145	-2.5840	-1.3626	-1.6300	-2.9926	58.9809	99.9962	
   135	-1.4656	-1.3817	-2.8473	-1.4899	-1.3733	-2.8632	-1.6986	-1.4664	-3.1650	58.4812	99.9941	
   136	-1.4373	-1.2045	-2.6419	-1.3871	-1.2409	-2.6280	-1.5321	-1.3134	-2.8456	58.7951	99.9928	
   137	-0.8853	-1.2322	-2.1175	-0.8474	-1.3362	-2.1836	-0.9895	-1.4923	-2.4818	59.6939	99.9931	
   138	-0.4477	-1.6020	-2.0497	-0.3742	-1.6795	-2.0536	-0.5307	-1.8084	-2.3391	60.1639	99.9936	
   139	-0.0703	-1.8650	-1.9354	-0.0082	-1.9921	-2.0003	-0.2519	-2.1893	-2.4412	60.8065	99.9954	
   140	-0.4470	-2.2408	-2.6879	-0.5592	-2.4282	-2.9874	-0.9464	-2.6499	-3.5963	60.3784	99.9953	
   141	-0.8363	-2.1608	-2.9972	-1.0468	-2.3146	-3.3614	-1.4905	-2.4962	-3.9867	59.3701	99.9949	
   142	-1.2694	-1.8522	-3.1217	-1.5997	-1.9652	-3.5650	-2.0775	-2.1155	-4.1930	58.1248	99.9939	
   143	-1.8633	-1.5626	-3.4260	-2.1802	-1.5915	-3.7716	-2.6014	-1.7315	-4.3328	57.3053	99.9943	
   144	-2.3749	-1.5579	-3.9329	-2.4769	-1.5673	-4.0442	-2.7725	-1.7544	-4.5270	57.9681	99.9960	
   145	-2.1353	-1.7460	-3.8814	-2.1042	-1.8897	-3.9939	-2.2459	-2.1972	-4.4431	59.9736	99.9954	
   146	-1.6334	-1.9005	-3.5340	-1.5975	-2.0467	-3.6442	-1.8468	-2.3574	-4.2043	60.1998	99.9969	
   147	-1.5219	-1.8638	-3.3858	-1.5267	-1.9617	-3.4884	-1.7784	-2.2661	-4.0445	59.9324	99.9968	
   148	-1.5002	-1.7865	-3.2867	-1.5004	-1.8903	-3.3907	-1.7289	-2.1745	-3.9034	59.9001	99.9963	
   149	-1.5078	-1.7752	-3.2831	-1.4777	-1.8763	-3.3541	-1.6889	-2.1373	-3.8262	59.9156	99.9961	
   150	-1.4893	-1.7478	-3.2372	-1.4230	-1.8150	-3.2380	-1.5777	-2.0675	-3.6452	59.9915	99.9959	
   151	-1.4456	-1.7209	-3.1666	-1.3407	-1.7781	-3.1187	-1.4616	-2.0186	-3.4802	60.1053	99.9958	
   152	-1.3330	-1.6676	-3.0007	-1.1827	-1.6945	-2.8772	-1.2474	-1.9082	-3.1556	60.1899	99.9954	
   153	-0.9627	-1.3917	-2.3545	-0.8470	-1.4464	-2.2934	-0.8778	-1.7243	-2.6021	60.5184	99.9949	
   154	-0.8272	-1.3722	-2.1995	-0.7701	-1.4956	-2.2657	-1.0570	-1.7765	-2.8335	60.0432	99.9973	
   155	-1.5485	-1.4966	-3.0453	-1.5501	-1.5207	-3.0708	-1.8485	-1.6573	-3.5058	58.6158	99.9962	
   156	-1.7967	-1.4417	-3.2385	-1.7614	-1.5267	-3.2881	-1.9681	-1.6600	-3.6281	58.9429	99.9943	
   157	-1.3014	-1.5682	-2.8698	-1.2832	-1.6737	-2.9569	-1.4625	-1.8258	-3.2883	59.5515	99.9935	
   158	-0.6628	-1.8143	-2.4772	-0.5621	-1.8918	-2.4538	-0.7098	-2.0661	-2.7758	60.4581	99.9948	
   159	-0.5990	-2.2544	-2.8535	-0.6834	-2.4357	-3.1191	-1.0748	-2.6944	-3.7692	60.4618	99.9964	
   160	-1.1946	-2.3814	-3.5761	-1.3722	-2.5150	-3.8872	-1.8108	-2.6975	-4.5083	59.3505	99.9956	
   161	-1.5819	-2.0126	-3.5946	-1.8654	-2.1427	-4.0082	-2.3739	-2.3381	-4.7120	58.3161	99.9957	
   162	-2.3418	-1.8252	-4.1671	-2.7534	-1.9170	-4.6704	-3.2644	-2.0876	-5.3520	57.0202	99.9944	
   163	-2.9070	-1.7417	-4.6488	-3.0848	-1.7486	-4.8334	-3.4584	-1.9678	-5.4261	57.4423	99.9968	
   164	-2.7616	-1.8279	-4.5896	-2.7543	-1.9314	-4.6857	-2.9218	-2.2472	-5.1690	59.3750	99.9961	
   165	-2.2138	-1.9222	-4.1361	-2.2164	-2.0554	-4.2718	-2.4466	-2.3958	-4.8424	59.8373	99.9968	
   166	-2.1231	-1.9462	-4.0694	-2.1510	-2.0565	-4.2075	-2.3697	-2.3717	-4.7413	59.7086	99.9963	
   167	-2.0367	-1.9091	-3.9459	-2.0536	-2.0103	-4.0638	-2.2331	-2.2980	-4.5311	59.7339	99.9956	
   168	-2.0870	-1.9081	-3.9952	-2.0820	-2.0002	-4.0822	-2.2497	-2.2600	-4.5097	59.6541	99.9954	
   169	-2.0335	-1.8591	-3.8928	-1.9668	-1.9016	-3.8683	-2.0790	-2.1406	-4.2196	59.7001	99.9955	
   170	-1.8390	-1.8353	-3.6743	-1.7367	-1.8288	-3.5655	-1.8286	-2.0558	-3.8844	59.7364	99.9959	
   171	-1.6796	-1.5774	-3.2571	-1.5555	-1.6068	-3.1623	-1.7071	-1.9191	-3.6262	59.9529	99.9973	
   172	-1.7518	-1.5259	-3.2778	-1.7775	-1.5504	-3.3278	-2.1562	-1.7540	-3.9102	58.4652	99.9977	
   173	-2.2657	-1.4268	-3.6926	-2.3202	-1.3880	-3.7082	-2.5804	-1.4886	-4.0690	57.6750	99.9953	
   174	-2.2483	-1.2882	-3.5367	-2.2343	-1.2936	-3.5279	-2.4011	-1.4364	-3.8375	58.3047	99.9948	
   175	-1.8656	-1.4681	-3.3338	-1.8865	-1.5485	-3.4350	-2.0242	-1.7557	-3.7799	59.1993	99.9938	
   176	-1.3395	-1.7675	-3.1070	-1.2646	-1.8416	-3.1062	-1.4319	-2.0484	-3.4803	59.9594	99.9955	
   177	-1.2068	-2.1812	-3.3881	-1.2849	-2.2819	-3.5667	-1.5855	-2.5075	-4.0930	59.8299	99.9957	
   178	-1.5019	-2.2031	-3.7051	-1.6404	-2.2663	-3.9066	-2.0080	-2.4224	-4.4304	58.9257	99.9954	
   179	-1.8630	-1.8181	-3.6812	-2.0806	-1.8613	-3.9420	-2.4796	-2.0055	-4.4851	57.9265	99.9951	
   180	-2.3356	-1.4698	-3.8055	-2.6166	-1.4739	-4.0905	-3.0070	-1.5753	-4.5823	56.8472	99.9940	
   181	-2.7392	-1.2229	-3.9622	-2.9239	-1.1527	-4.0765	-3.3265	-1.2442	-4.5707	56.2804	99.9963	
   182	-3.0179	-1.2506	-4.2687	-3.1076	-1.1831	-4.2907	-3.4161	-1.3730	-4.7891	56.9863	99.9971	
   183	-2.7653	-1.3668	-4.1322	-2.7723	-1.4043	-4.1765	-2.9457	-1.7061	-4.6518	58.6261	99.9965	
   184	-2.4044	-1.4962	-3.9008	-2.4609	-1.5436	-4.0045	-2.6967	-1.8518	-4.5485	58.7474	99.9967	
   185	-2.3727	-1.5246	-3.8974	-2.4173	-1.5444	-3.9616	-2.6125	-1.8110	-4.4234	58.6853	99.9961	
   186	-2.3814	-1.5300	-3.9116	-2.3519	-1.5455	-3.8973	-2.5094	-1.7704	-4.2798	58.8161	99.9959	
   187	-2.3618	-1.4860	-3.8479	-2.2914	-1.5082	-3.7995	-2.4128	-1.7339	-4.1467	59.0206	99.9958	
   188	-2.3017	-1.4649	-3.7668	-2.2081	-1.4569	-3.6650	-2.3082	-1.6682	-3.9764	59.0007	99.9958	
   189	-2.2580	-1.4380	-3.6962	-2.1534	-1.3956	-3.5489	-2.2340	-1.5853	-3.8193	58.8885	99.9957	
   190	-2.1367	-1.3794	-3.5162	-2.0372	-1.2826	-3.3198	-2.1314	-1.4483	-3.5797	58.5951	99.9960	
   191	-2.0332	-1.0759	-3.1092	-1.9765	-1.0106	-2.9872	-2.1708	-1.2675	-3.4383	58.4622	99.9974	
   192	-2.2486	-1.0327	-3.2814	-2.3369	-0.9567	-3.2935	-2.7338	-1.1135	-3.8473	56.9546	99.9978	
   193	-2.7296	-0.9453	-3.6751	-2.7715	-0.8104	-3.5820	-3.0029	-0.8836	-3.8865	56.6200	99.9958	
   194	-2.7035	-0.8014	-3.5051	-2.7186	-0.7778	-3.4964	-2.9521	-0.8759	-3.8280	57.0591	99.9952	
   195	-2.4750	-0.9004	-3.3755	-2.5153	-0.9010	-3.4162	-2.6669	-1.0473	-3.7142	57.7082	99.9939	
   196	-2.0867	-1.1248	-3.2116	-2.0842	-1.1046	-3.1888	-2.2193	-1.2375	-3.4568	58.2030	99.9942	
   197	-1.7979	-1.3306	-3.1286	-1.8085	-1.3487	-3.1572	-2.0737	-1.5328	-3.6065	58.5145	99.9963	
   198	-2.1213	-1.5296	-3.6510	-2.3074	-1.5318	-3.8392	-2.6803	-1.6843	-4.3646	57.5339	99.9958	
   199	-2.6790	-1.3296	-4.0087	-3.0000	-1.3238	-4.3238	-3.4295	-1.4902	-4.9197	56.4572	99.9954	
   200	-3.2947	-0.9896	-4.2844	-3.6165	-0.9446	-4.5612	-4.0358	-1.0129	-5.0486	55.2549	99.9943	
   201	-3.5945	-0.6947	-4.2894	-3.7867	-0.5251	-4.3118	-4.1788	-0.5709	-4.7497	54.7117	99.9966	
   202	-3.7914	-0.6242	-4.4156	-3.9197	-0.4414	-4.3612	-4.2897	-0.5317	-4.8213	54.8617	99.9975	
   203	-3.5530	-0.7011	-4.2542	-3.6537	-0.6088	-4.2625	-3.8662	-0.8096	-4.6759	56.3197	99.9962	
   204	-3.1725	-0.7865	-3.9591	-3.2591	-0.6968	-3.9560	-3.4961	-0.9276	-4.4237	56.7486	99.9968	
   205	-2.9987	-0.8233	-3.8221	-3.0847	-0.6998	-3.7845	-3.2676	-0.8928	-4.1604	56.7992	99.9960	
   206	-2.9757	-0.8571	-3.8329	-2.9851	-0.7350	-3.7200	-3.1044	-0.8991	-4.0035	57.1269	99.9956	
   207	-3.0172	-0.8507	-3.8680	-2.9481	-0.7260	-3.6742	-3.0579	-0.8578	-3.9157	57.2072	99.9960	
   208	-3.0052	-0.7954	-3.8007	-2.9076	-0.6597	-3.5673	-2.9845	-0.7875	-3.7719	57.2805	99.9959	
   209	-2.9036	-0.7808	-3.6845	-2.7523	-0.6192	-3.3715	-2.7922	-0.7271	-3.5192	57.4196	99.9959	
   210	-2.6707	-0.8132	-3.4840	-2.5125	-0.6233	-3.1357	-2.5478	-0.7428	-3.2906	57.5775	99.9962	
   211	-2.8152	-0.5825	-3.3979	-2.7931	-0.3407	-3.1338	-3.0394	-0.4472	-3.4865	56.1317	99.9977	
   212	-2.9895	-0.1624	-3.1520	-3.0980	 0.1337	-2.9643	-3.4214	 0.0985	-3.3229	54.6545	99.9973	
   213	-3.2454	 0.0315	-3.2140	-3.3102	 0.3480	-2.9621	-3.5708	 0.3310	-3.2398	54.4755	99.9970	
   214	-3.2729	 0.1265	-3.1464	-3.2914	 0.4148	-2.8767	-3.4424	 0.3755	-3.0669	54.9794	99.9961	
   215	-3.0837	 0.0672	-3.0166	-3.1581	 0.2210	-2.9371	-3.3125	 0.1307	-3.1819	55.6340	99.9947	
   216	-2.8616	-0.1317	-2.9934	-2.8267	 0.0525	-2.7741	-2.8715	-0.0637	-2.9352	56.5316	99.9950	
   217	-2.4614	-0.3008	-2.7622	-2.4374	-0.1217	-2.5591	-2.6255	-0.2597	-2.8852	56.6283	99.9969	
   218	-2.7291	-0.4176	-3.1468	-2.9176	-0.2381	-3.1557	-3.2668	-0.3604	-3.6272	55.4634	99.9968	
   219	-3.4420	-0.1534	-3.5955	-3.7460	 0.0106	-3.7354	-4.1630	-0.1015	-4.2645	54.2268	99.9965	
   220	-4.1200	 0.1323	-3.9878	-4.4759	 0.3198	-4.1561	-4.8885	 0.2767	-4.6118	53.0258	99.9954	
   221	-4.4776	 0.3117	-4.1661	-4.7681	 0.6504	-4.1176	-5.1688	 0.6325	-4.5363	52.2276	99.9970	
   222	-4.6395	 0.4038	-4.2358	-4.8632	 0.7574	-4.1058	-5.2151	 0.7002	-4.5149	52.4508	99.9974	
   223	-4.2963	 0.3914	-3.9050	-4.4344	 0.6352	-3.7992	-4.7255	 0.4759	-4.2497	53.8618	99.9975	
   224	-4.0119	 0.2468	-3.7652	-4.1951	 0.5067	-3.6884	-4.4773	 0.3176	-4.1597	54.1353	99.9972	
   225	-3.9922	 0.1631	-3.8292	-4.0857	 0.3947	-3.6910	-4.3302	 0.2528	-4.0775	54.5137	99.9971	
   226	-4.0578	 0.1866	-3.8712	-4.1426	 0.4148	-3.7278	-4.3599	 0.2825	-4.0774	54.5263	99.9968	
   227	-4.1551	 0.2386	-3.9166	-4.2111	 0.4830	-3.7281	-4.3611	 0.3664	-3.9947	54.5722	99.9963	
   228	-3.9857	 0.2630	-3.7228	-3.9659	 0.5651	-3.4009	-4.0657	 0.4674	-3.5983	54.7606	99.9966	
   229	-3.6699	 0.3455	-3.3244	-3.6508	 0.7178	-2.9330	-3.7273	 0.6558	-3.0714	54.6189	99.9963	
   230	-3.3422	 0.6112	-2.7311	-3.4148	 1.0011	-2.4137	-3.6155	 0.9437	-2.6719	53.9626	99.9970	
   231	-3.4333	 1.0185	-2.4149	-3.7261	 1.3751	-2.3509	-4.1575	 1.3405	-2.8170	52.3232	99.9974	
   232	-3.9734	 1.1015	-2.8720	-4.2452	 1.5659	-2.6793	-4.6159	 1.5602	-3.0557	51.6326	99.9973	
   233	-4.2915	 1.1134	-3.1782	-4.4308	 1.5068	-2.9240	-4.6690	 1.5148	-3.1541	52.3424	99.9965	
   234	-4.3144	 1.0195	-3.2950	-4.4709	 1.3303	-3.1407	-4.6211	 1.2669	-3.3542	53.1211	99.9952	
   235	-4.0607	 0.9200	-3.1408	-4.1293	 1.2095	-2.9197	-4.2632	 1.1532	-3.1099	53.7273	99.9956	
   236	-3.7828	 0.6755	-3.1073	-3.9350	 0.9429	-2.9921	-4.2098	 0.7878	-3.4220	53.9096	99.9972	
   237	-4.2428	 0.4403	-3.8025	-4.6395	 0.7297	-3.9098	-5.0645	 0.5892	-4.4753	52.5040	99.9969	
   238	-5.0049	 0.7222	-4.2829	-5.4954	 1.0028	-4.4926	-5.9381	 0.9107	-5.0274	51.2204	99.9959	
   239	-5.4306	 1.1473	-4.2834	-5.9348	 1.4220	-4.5127	-6.4213	 1.3445	-5.0767	50.3321	99.9963	
   240	-5.8012	 1.2547	-4.5466	-6.2701	 1.6432	-4.6269	-6.7793	 1.6636	-5.1157	49.2729	99.9969	
   241	-5.9763	 1.4026	-4.5738	-6.3536	 1.9368	-4.4169	-6.7799	 1.9654	-4.8145	49.0345	99.9975	
   242	-5.5588	 1.4998	-4.0591	-5.8806	 1.9383	-3.9423	-6.2058	 1.8910	-4.3149	50.3252	99.9968	
   243	-5.0548	 1.3787	-3.6762	-5.3446	 1.7856	-3.5590	-5.6902	 1.6831	-4.0071	51.1337	99.9973	
   244	-4.8403	 1.1911	-3.6494	-4.9883	 1.5497	-3.4386	-5.1999	 1.4713	-3.7285	52.3332	99.9967	
   245	-4.6937	 0.9937	-3.7001	-4.7023	 1.3533	-3.3490	-4.7819	 1.3108	-3.4711	53.2493	99.9961	
   246	-4.5876	 0.9471	-3.6405	-4.5315	 1.2930	-3.2385	-4.5834	 1.2664	-3.3170	53.6154	99.9961	
   247	-4.3744	 0.8707	-3.5038	-4.2147	 1.2397	-2.9750	-4.1767	 1.2318	-2.9449	54.2230	99.9959	
   248	-3.9010	 0.7946	-3.1065	-3.6866	 1.1925	-2.4941	-3.6257	 1.1911	-2.4346	54.7077	99.9962	
   249	-3.7796	 0.7255	-3.0542	-3.6942	 1.1878	-2.5063	-3.8743	 1.2405	-2.6338	53.4431	99.9978	
   250	-4.4797	 1.3172	-3.1627	-4.7176	 1.9235	-2.7941	-5.1453	 2.0617	-3.0835	50.0663	99.9980	
   251	-4.9001	 1.9533	-2.9469	-5.2605	 2.6654	-2.5951	-5.6233	 2.7890	-2.8343	48.7760	99.9970	
   252	-5.0599	 2.2064	-2.8536	-5.2479	 2.8663	-2.3816	-5.5307	 2.9680	-2.5626	49.4439	99.9974	
   253	-5.0152	 2.2500	-2.7653	-5.2128	 2.8466	-2.3662	-5.4394	 2.9166	-2.5229	49.8874	99.9967	
   254	-4.9638	 2.2656	-2.6983	-5.1327	 2.7303	-2.4025	-5.3196	 2.7138	-2.6059	50.8260	99.9964	
   255	-4.8872	 2.1530	-2.7343	-4.9446	 2.5978	-2.3468	-5.0148	 2.5547	-2.4601	51.7805	99.9961	
   256	-4.6771	 1.8988	-2.7783	-4.8317	 2.3085	-2.5232	-5.0731	 2.2159	-2.8571	51.6502	99.9972	
   257	-5.1885	 1.7757	-3.4129	-5.5802	 2.2062	-3.3739	-6.0521	 2.1447	-3.9074	49.8097	99.9977	
   258	-5.9836	 2.1971	-3.7866	-6.4583	 2.5898	-3.8684	-6.9392	 2.5544	-4.3848	48.6043	99.9970	
   259	-6.5600	 2.4975	-4.0626	-7.0868	 2.8926	-4.1942	-7.5720	 2.9063	-4.6657	47.5552	99.9963	
   260	-6.6705	 2.6053	-4.0653	-7.1485	 3.1858	-3.9627	-7.6450	 3.2594	-4.3856	46.6918	99.9975	
   261	-6.6585	 2.6606	-3.9981	-7.0893	 3.3189	-3.7704	-7.5293	 3.4046	-4.1246	46.6909	99.9975	
   262	-6.1633	 2.6618	-3.5017	-6.5327	 3.2616	-3.2711	-6.8655	 3.2535	-3.6120	48.0965	99.9970	
   263	-5.6702	 2.5019	-3.1683	-6.0278	 3.0758	-2.9519	-6.3209	 3.0034	-3.3175	49.0570	99.9967	
   264	-5.4283	 2.2194	-3.2091	-5.6369	 2.6957	-2.9412	-5.8586	 2.6411	-3.2175	50.3849	99.9968	
   265	-5.5234	 2.1768	-3.3467	-5.6774	 2.6293	-3.0481	-5.9174	 2.6041	-3.3133	50.4354	99.9972	
   266	-5.7618	 2.2538	-3.5081	-5.8936	 2.6617	-3.2319	-6.1110	 2.6276	-3.4834	50.5027	99.9970	
   267	-5.8547	 2.2445	-3.6102	-5.8887	 2.6233	-3.2654	-5.9951	 2.5674	-3.4277	51.2183	99.9966	
   268	-5.5648	 2.0554	-3.5095	-5.4635	 2.4437	-3.0197	-5.4525	 2.3885	-3.0640	52.2724	99.9965	
   269	-5.1765	 1.8310	-3.3456	-5.0533	 2.2548	-2.7985	-5.0396	 2.2490	-2.7906	52.5219	99.9964	
   270	-4.9348	 1.6762	-3.2587	-4.8207	 2.1359	-2.6847	-4.7825	 2.1325	-2.6500	52.7359	99.9962	
   271	-4.7762	 1.5342	-3.2421	-4.6116	 1.9887	-2.6229	-4.5843	 1.9791	-2.6052	53.1103	99.9967	
   272	-4.7520	 1.3893	-3.3628	-4.5668	 1.8922	-2.6746	-4.5215	 1.8734	-2.6480	53.2207	99.9970	
   273	-4.6689	 1.3765	-3.2925	-4.4084	 1.8656	-2.5428	-4.4164	 1.8427	-2.5737	53.4093	99.9979	
   274	-4.8996	 1.4422	-3.4575	-4.5859	 1.9356	-2.6502	-4.4931	 1.9276	-2.5655	53.5540	99.9974	
   275	-4.6011	 1.3863	-3.2150	-4.3630	 1.8935	-2.4694	-4.3799	 1.9261	-2.4538	53.1211	99.9977	
   276	-4.8593	 1.5470	-3.3124	-4.5796	 2.0361	-2.5435	-4.4920	 2.0491	-2.4429	53.3361	99.9971	
   277	-4.8255	 1.6796	-3.1460	-4.5630	 2.1843	-2.3788	-4.4929	 2.2420	-2.2509	52.9624	99.9969	
   278	-5.0959	 2.0405	-3.0554	-4.9900	 2.5698	-2.4202	-5.0630	 2.6937	-2.3693	51.3519	99.9969	
   279	-5.9402	 2.4796	-3.4607	-5.8658	 3.1066	-2.7592	-5.8191	 3.2946	-2.5245	50.1225	99.9952	
   280	-6.1840	 2.6011	-3.5831	-5.9810	 3.2427	-2.7383	-5.8291	 3.3366	-2.4925	50.7702	99.9962	
   281	-5.6609	 1.9963	-3.6648	-4.9923	 2.4166	-2.5757	-4.4368	 2.3377	-2.0991	55.2464	99.9955	
   282	-4.4633	 1.3113	-3.1521	-4.0983	 1.8220	-2.2762	-4.1580	 1.9568	-2.2012	53.1634	99.9984	
   283	-4.7969	 1.4735	-3.3235	-4.3963	 1.9420	-2.4543	-4.1514	 1.9609	-2.1905	54.2405	99.9962	
   284	-4.6385	 1.5870	-3.0516	-4.1502	 2.0384	-2.1118	-3.8699	 2.0411	-1.8288	54.6960	99.9965	
   285	-4.6582	 1.6707	-2.9876	-4.2965	 2.1415	-2.1551	-4.0858	 2.1110	-1.9748	54.1377	99.9966	
   286	-4.6166	 1.5365	-3.0801	-4.2107	 2.0011	-2.2096	-4.0522	 1.9387	-2.1135	54.3769	99.9975	
   287	-4.6831	 1.4157	-3.2676	-4.2976	 1.8924	-2.4051	-4.1794	 1.8103	-2.3691	54.2886	99.9977	
   288	-4.6983	 1.3104	-3.3880	-4.2963	 1.7966	-2.4996	-4.1847	 1.7224	-2.4624	54.3321	99.9978	
   289	-4.6666	 1.2820	-3.3847	-4.2620	 1.7625	-2.4995	-4.1551	 1.6927	-2.4624	54.3756	99.9978	
   290	-4.6666	 1.2820	-3.3847	-4.2763	 1.7676	-2.5087	-4.1986	 1.7016	-2.4970	54.2286	99.9979	
   291	-4.7060	 1.3217	-3.3844	-4.3105	 1.8017	-2.5089	-4.2405	 1.7357	-2.5049	54.1810	99.9980	
   292	-4.7115	 1.3662	-3.3454	-4.3372	 1.8404	-2.4968	-4.2875	 1.7908	-2.4967	53.9941	99.9981	
   293	-4.7247	 1.4221	-3.3027	-4.3336	 1.8978	-2.4358	-4.2468	 1.8406	-2.4062	54.1064	99.9979	
   294	-4.6132	 1.4587	-3.1546	-4.2286	 1.9487	-2.2798	-4.1125	 1.8766	-2.2360	54.2182	99.9977	
   295	-4.5597	 1.5076	-3.0522	-4.1823	 1.9911	-2.1912	-4.0725	 1.9138	-2.1588	54.2182	99.9977	
   296	-4.5729	 1.5634	-3.0095	-4.1938	 2.0391	-2.1547	-4.1064	 1.9771	-2.1293	54.0838	99.9978	
   297	-4.5861	 1.6193	-2.9669	-4.1978	 2.0919	-2.1059	-4.1092	 2.0358	-2.0734	54.0487	99.9979	
   298	-4.5817	 1.6858	-2.8960	-4.1857	 2.1683	-2.0174	-4.0481	 2.1105	-1.9376	54.1253	99.9976	
   299	-4.4769	 1.7504	-2.7266	-4.0295	 2.2231	-1.8064	-3.8623	 2.1668	-1.6955	54.3902	99.9976	
   300	-4.3654	 1.7871	-2.5784	-3.9112	 2.2547	-1.6565	-3.7099	 2.1900	-1.5200	54.5904	99.9974	
   301	-4.2921	 1.7523	-2.5400	-3.8484	 2.2105	-1.6379	-3.6614	 2.1600	-1.5014	54.5864	99.9974	
   302	-4.3686	 1.7371	-2.6316	-3.9699	 2.2461	-1.7238	-3.8243	 2.2753	-1.5490	53.8900	99.9973	
   303	-4.7394	 1.9723	-2.7672	-4.3853	 2.5835	-1.8017	-4.2682	 2.7338	-1.5344	52.5287	99.9971	
   304	-5.0044	 2.4164	-2.5881	-4.5928	 3.1043	-1.4885	-4.3536	 3.2966	-1.0570	52.1108	99.9964	
   305	-4.9850	 2.7160	-2.2691	-4.4810	 3.3801	-1.1008	-4.2065	 3.5463	-0.6602	52.3975	99.9968	
   306	-4.8835	 2.8584	-2.0252	-4.3763	 3.5412	-0.8351	-4.0777	 3.6997	-0.3780	52.3970	99.9967	
   307	-4.7251	 2.9719	-1.7533	-4.2090	 3.6581	-0.5509	-3.9497	 3.8406	-0.1091	52.2521	99.9971	
   308	-4.5940	 3.0526	-1.5415	-4.0785	 3.7661	-0.3125	-3.7739	 3.9390	 0.1650	52.3450	99.9967	
   309	-4.3219	 3.1083	-1.2137	-3.7395	 3.8369	 0.0975	-3.4047	 4.0139	 0.6092	52.6860	99.9970	
   310	-3.9841	 3.1404	-0.8438	-3.4079	 3.9032	 0.4952	-3.0977	 4.0979	 1.0002	52.6477	99.9972	
   311	-3.8213	 3.1927	-0.6287	-3.2651	 3.9774	 0.7123	-2.9670	 4.1801	 1.2132	52.5414	99.9972	
   312	-3.7186	 3.2240	-0.4947	-3.1609	 4.0139	 0.8530	-2.8820	 4.2335	 1.3515	52.4722	99.9973	
   313	-3.6498	 3.2504	-0.3995	-3.0928	 4.0559	 0.9631	-2.8043	 4.2702	 1.4660	52.4902	99.9972	
   314	-3.5219	 3.2812	-0.2408	-2.9242	 4.0770	 1.1528	-2.5962	 4.2801	 1.6840	52.8274	99.9972	
   315	-3.3721	 3.2615	-0.1107	-2.7876	 4.0507	 1.2631	-2.5027	 4.2664	 1.7637	52.7775	99.9974	
   316	-3.3229	 3.2438	-0.0792	-2.7449	 4.0357	 1.2907	-2.4411	 4.2446	 1.8035	52.8686	99.9972	
   317	-3.2835	 3.2042	-0.0794	-2.7316	 4.0163	 1.2847	-2.4491	 4.2154	 1.7662	52.7687	99.9973	
   318	-3.2933	 3.1822	-0.1113	-2.7116	 3.9872	 1.2756	-2.4187	 4.1982	 1.7795	52.8686	99.9973	
   319	-3.1687	 3.1630	-0.0058	-2.5456	 3.9652	 1.4196	-2.2252	 4.1747	 1.9495	53.1580	99.9973	
   320	-3.0200	 3.1267	 0.1066	-2.4024	 3.9293	 1.5269	-2.0963	 4.1228	 2.0265	53.2811	99.9975	
   321	-2.9817	 3.0704	 0.0886	-2.3699	 3.8665	 1.4966	-2.0689	 4.0553	 1.9864	53.3548	99.9975	
   322	-2.9598	 3.0199	 0.0601	-2.3584	 3.8184	 1.4600	-2.0720	 4.0051	 1.9331	53.3422	99.9975	
   323	-2.9783	 2.9925	 0.0141	-2.3677	 3.7850	 1.4173	-2.0496	 3.9587	 1.9091	53.5149	99.9973	
   324	-2.8887	 2.9519	 0.0631	-2.2414	 3.7111	 1.4697	-1.9214	 3.8941	 1.9727	53.7776	99.9974	
   325	-2.8438	 2.8676	 0.0238	-2.2201	 3.5862	 1.3661	-1.9190	 3.7264	 1.8074	54.0214	99.9975	
   326	-3.1159	 2.8120	-0.3040	-2.4983	 3.4424	 0.9441	-2.1878	 3.5454	 1.3576	54.2851	99.9973	
   327	-3.3552	 2.7445	-0.6108	-2.6514	 3.3205	 0.6691	-2.2361	 3.3700	 1.1338	55.0085	99.9970	
   328	-3.3266	 2.5384	-0.7883	-2.5919	 3.1088	 0.5169	-2.2018	 3.2102	 1.0084	55.0536	99.9972	
   329	-3.1560	 2.4517	-0.7044	-2.4020	 3.0050	 0.6030	-1.9955	 3.0860	 1.0905	55.4404	99.9972	
   330	-2.7644	 2.1495	-0.6150	-2.0635	 2.7167	 0.6532	-1.7287	 2.8184	 1.0898	55.5022	99.9973	
   331	-2.7117	 1.9262	-0.7855	-2.0579	 2.4580	 0.4002	-1.7650	 2.5297	 0.7646	55.6927	99.9974	
   332	-2.8295	 1.6619	-1.1676	-2.1145	 2.1333	 0.0188	-1.7082	 2.1181	 0.4099	56.7362	99.9970	
   333	-2.9209	 1.2860	-1.6350	-2.2024	 1.7756	-0.4268	-1.8722	 1.7974	-0.0748	56.6119	99.9976	
   334	-2.9119	 1.0359	-1.8762	-2.1104	 1.5011	-0.6093	-1.7454	 1.5023	-0.2431	57.2560	99.9978	
   335	-2.8603	 0.7960	-2.0644	-2.1039	 1.2567	-0.8472	-1.7737	 1.2427	-0.5309	57.3439	99.9979	
   336	-2.8775	 0.5297	-2.3480	-2.1503	 0.9798	-1.1706	-1.8716	 0.9757	-0.8959	57.3452	99.9980	
   337	-2.8850	 0.2854	-2.5996	-2.2016	 0.7412	-1.4604	-1.9599	 0.7630	-1.1969	57.2280	99.9980	
   338	-2.9045	 0.1136	-2.7910	-2.2551	 0.5840	-1.6711	-2.0191	 0.6171	-1.4020	57.1675	99.9979	
   339	-2.8289	-0.0157	-2.8447	-2.1617	 0.4484	-1.7134	-1.9201	 0.4858	-1.4343	57.3861	99.9979	
   340	-2.7446	-0.1396	-2.8843	-2.0968	 0.3228	-1.7741	-1.8892	 0.3723	-1.5170	57.3714	99.9980	
   341	-2.7423	-0.2340	-2.9765	-2.1240	 0.2370	-1.8870	-1.9142	 0.2720	-1.6422	57.3993	99.9978	
   342	-2.7532	-0.2727	-3.0261	-2.1418	 0.1846	-1.9572	-1.9353	 0.2345	-1.7008	57.3935	99.9977	
   343	-2.7522	-0.2561	-3.0083	-2.1049	 0.1936	-1.9113	-1.8765	 0.2715	-1.6050	57.4595	99.9976	
   344	-2.6145	-0.2033	-2.8179	-1.8918	 0.2283	-1.6635	-1.5776	 0.3263	-1.2513	57.9035	99.9970	
   345	-2.4254	-0.1348	-2.5604	-1.7622	 0.3219	-1.4403	-1.6069	 0.4650	-1.1419	57.1915	99.9979	
   346	-3.1736	 0.3634	-2.8103	-2.4124	 0.8597	-1.5528	-1.9631	 0.9182	-1.0449	57.4425	99.9966	
   347	-2.9161	 0.8415	-2.0747	-2.0985	 1.3429	-0.7557	-1.7022	 1.3844	-0.3179	57.2764	99.9976	
   348	-2.6368	 1.3970	-1.2399	-1.6373	 1.7373	 0.1000	-1.0380	 1.6567	 0.6187	58.8728	99.9970	
   349	-1.9002	 1.4989	-0.4013	-0.9103	 1.7298	 0.8195	-0.3428	 1.6100	 1.2672	59.6296	99.9968	
   350	-1.6584	 1.3441	-0.3144	-0.8357	 1.5274	 0.6918	-0.4977	 1.4401	 0.9424	59.0012	99.9973	
   351	-2.3729	 0.9362	-1.4368	-1.6830	 1.2401	-0.4429	-1.3655	 1.2333	-0.1322	57.8382	99.9966	
   352	-2.5444	 0.7508	-1.7937	-1.8049	 1.1511	-0.6538	-1.4774	 1.1509	-0.3265	57.6864	99.9975	
   353	-2.6545	 0.4752	-2.1794	-1.9715	 0.8139	-1.1576	-1.6160	 0.8341	-0.7820	57.9007	99.9961	
   354	-2.8062	 0.2061	-2.6002	-2.1879	 0.6116	-1.5763	-1.8602	 0.6444	-1.2158	57.5252	99.9963	
   355	-2.7863	-0.0054	-2.7918	-2.0487	 0.3938	-1.6550	-1.7862	 0.4128	-1.3733	57.9102	99.9980	
   356	-2.8473	-0.1708	-3.0183	-2.1743	 0.2474	-1.9269	-1.9461	 0.2640	-1.6821	57.7009	99.9980	
   357	-2.9193	-0.3749	-3.2943	-2.3110	 0.0390	-2.2720	-2.1114	 0.0272	-2.0842	57.6925	99.9979	
   358	-2.9388	-0.5468	-3.4857	-2.3445	-0.1472	-2.4916	-2.1670	-0.1650	-2.3320	57.7960	99.9980	
   359	-2.8196	-0.6491	-3.4688	-2.2417	-0.2495	-2.4912	-2.0557	-0.3006	-2.3563	58.0490	99.9979	
   360	-2.6774	-0.6575	-3.3351	-2.1261	-0.2610	-2.3871	-1.9710	-0.3561	-2.3272	58.1621	99.9980	
   361	-2.6043	-0.5645	-3.1689	-2.0571	-0.2047	-2.2618	-1.9275	-0.3651	-2.2926	58.4030	99.9980	
   362	-2.6021	-0.5313	-3.1335	-2.0789	-0.2043	-2.2832	-1.9741	-0.4064	-2.3805	58.5071	99.9980	
   363	-2.6469	-0.5748	-3.2218	-2.1688	-0.2459	-2.4147	-2.0952	-0.4342	-2.5294	58.2655	99.9980	
   364	-2.6316	-0.5973	-3.2290	-2.1403	-0.2560	-2.3963	-2.0387	-0.4349	-2.4736	58.3252	99.9979	
   365	-2.5562	-0.5988	-3.1551	-2.0749	-0.2571	-2.3320	-1.9944	-0.4313	-2.4257	58.2789	99.9980	
   366	-2.5660	-0.6209	-3.1869	-2.1212	-0.2994	-2.4206	-2.0779	-0.4596	-2.5375	58.1236	99.9981	
   367	-2.6293	-0.6918	-3.3212	-2.2347	-0.3693	-2.6040	-2.2071	-0.5166	-2.7237	57.9236	99.9980	
   368	-2.7003	-0.7515	-3.4519	-2.2743	-0.4213	-2.6957	-2.1810	-0.5002	-2.6812	57.9166	99.9976	
   369	-2.3561	-0.6195	-2.9757	-1.8226	-0.2949	-2.1175	-1.6367	-0.3395	-1.9762	58.4449	99.9972	
   370	-2.0011	-0.3211	-2.3223	-1.4670	-0.0758	-1.5428	-1.2952	-0.1007	-1.3960	58.5971	99.9966	
   371	-1.7783	-0.1200	-1.8984	-1.3298	 0.2571	-1.0727	-1.1548	 0.3502	-0.8046	57.5360	99.9954	
   372	-1.5994	 0.1820	-1.4175	-1.0284	 0.5394	-0.4890	-0.8083	 0.5679	-0.2404	58.1069	99.9966	
   373	-1.3775	 0.2386	-1.1390	-0.8353	 0.6031	-0.2321	-0.5979	 0.6155	 0.0177	58.2047	99.9963	
   374	-1.1305	 0.2948	-0.8358	-0.4837	 0.6403	 0.1566	-0.2447	 0.6319	 0.3872	58.7090	99.9972	
   375	-0.9797	 0.2918	-0.6880	-0.3681	 0.6288	 0.2607	-0.1331	 0.6054	 0.4722	58.7883	99.9970	
   376	-1.0168	 0.2370	-0.7799	-0.4086	 0.5624	 0.1538	-0.1558	 0.5428	 0.3870	58.8701	99.9967	
   377	-0.9851	 0.2086	-0.7766	-0.3877	 0.5477	 0.1600	-0.1254	 0.5256	 0.4002	58.8725	99.9966	
   378	-0.9708	 0.1694	-0.8015	-0.3686	 0.5043	 0.1357	-0.1023	 0.4918	 0.3895	58.9169	99.9965	
   379	-0.8801	 0.1454	-0.7348	-0.2093	 0.4920	 0.2827	 0.0805	 0.4978	 0.5783	59.1175	99.9967	
   380	-0.6723	 0.1134	-0.5590	 0.0221	 0.4689	 0.4910	 0.3117	 0.4739	 0.7856	59.3029	99.9969	
   381	-0.5335	 0.0551	-0.4784	 0.1511	 0.4380	 0.5891	 0.4414	 0.4345	 0.8759	59.3513	99.9971	
   382	-0.4514	 0.0257	-0.4258	 0.2441	 0.4125	 0.6566	 0.5103	 0.4294	 0.9397	59.3140	99.9973	
   383	-0.4099	 0.0193	-0.3907	 0.2877	 0.4118	 0.6994	 0.5480	 0.4289	 0.9769	59.3162	99.9974	
   384	-0.3257	 0.0232	-0.3026	 0.3909	 0.4340	 0.8249	 0.6799	 0.4272	 1.1071	59.4981	99.9974	
   385	-0.1661	 0.0256	-0.1407	 0.5711	 0.4070	 0.9781	 0.8242	 0.4211	 1.2454	59.5855	99.9977	
   386	-0.1180	-0.0087	-0.1268	 0.6062	 0.3872	 0.9935	 0.8546	 0.4040	 1.2586	59.5439	99.9977	
   387	-0.1180	-0.0087	-0.1268	 0.6129	 0.3775	 0.9904	 0.8662	 0.3871	 1.2532	59.6271	99.9977	
   388	-0.1027	-0.0313	-0.1340	 0.6196	 0.3678	 0.9874	 0.8662	 0.3871	 1.2532	59.5439	99.9977	
   389	-0.1191	-0.0254	-0.1446	 0.6271	 0.3725	 0.9997	 0.8735	 0.4037	 1.2772	59.5503	99.9977	
   390	-0.0174	-0.0107	-0.0283	 0.7313	 0.4091	 1.1403	 1.0135	 0.4313	 1.4448	59.6501	99.9976	
   391	 0.0667	-0.0069	 0.0598	 0.8109	 0.4029	 1.2138	 1.0824	 0.4262	 1.5086	59.6915	99.9976	
   392	 0.0667	-0.0069	 0.0598	 0.8109	 0.4029	 1.2138	 1.0643	 0.4390	 1.5033	59.6066	99.9977	
   393	 0.0503	-0.0010	 0.0492	 0.7976	 0.4223	 1.2199	 1.0469	 0.4644	 1.5113	59.5259	99.9978	
   394	 0.0350	 0.0215	 0.0564	 0.7851	 0.4560	 1.2412	 1.0369	 0.5064	 1.5433	59.4473	99.9978	
   395	 0.0546	 0.0656	 0.1201	 0.8248	 0.5081	 1.3328	 1.0907	 0.5644	 1.6552	59.4602	99.9978	
   396	 0.1661	 0.1022	 0.2682	 0.9507	 0.5442	 1.4949	 1.2192	 0.6089	 1.8281	59.5143	99.9978	
   397	 0.2021	 0.1404	 0.3424	 0.9752	 0.5869	 1.5621	 1.2526	 0.6420	 1.8946	59.5164	99.9977	
   398	 0.2119	 0.1624	 0.3743	 0.9846	 0.6203	 1.6049	 1.2426	 0.6841	 1.9267	59.3928	99.9979	
   399	 0.2064	 0.2070	 0.4133	 0.9806	 0.6730	 1.6536	 1.2399	 0.7428	 1.9827	59.3148	99.9979	
   400	 0.2009	 0.2515	 0.4524	 0.9833	 0.7161	 1.6994	 1.2117	 0.7976	 2.0094	59.1890	99.9981	
   401	 0.2118	 0.2902	 0.5019	 1.0078	 0.7588	 1.7666	 1.2713	 0.8472	 2.1185	59.2457	99.9979	
   402	 0.2971	 0.3107	 0.6077	 1.0892	 0.7814	 1.8706	 1.3417	 0.8672	 2.2090	59.2479	99.9980	
   403	 0.2981	 0.3274	 0.6254	 1.0683	 0.7961	 1.8644	 1.3171	 0.8759	 2.1930	59.2002	99.9979	
   404	 0.2653	 0.3391	 0.6044	 1.0189	 0.8209	 1.8398	 1.2744	 0.8974	 2.1718	59.1157	99.9978	
   405	 0.2413	 0.3563	 0.5974	 0.9980	 0.8356	 1.8336	 1.2382	 0.9231	 2.1613	59.0312	99.9979	
   406	 0.2008	 0.3793	 0.5800	 0.9562	 0.8650	 1.8212	 1.1897	 0.9530	 2.1427	58.9466	99.9979	
   407	 0.1778	 0.4131	 0.5908	 0.9438	 0.8987	 1.8425	 1.1927	 1.0033	 2.1961	58.9147	99.9978	
   408	 0.2379	 0.4341	 0.6719	 1.0176	 0.9167	 1.9343	 1.2624	 1.0108	 2.2732	59.0015	99.9980	
   409	 0.2292	 0.4287	 0.6578	 0.9949	 0.9027	 1.8976	 1.2116	 1.0031	 2.2147	58.9078	99.9980	
   410	 0.1866	 0.4185	 0.6049	 0.9295	 0.9038	 1.8333	 1.1485	 0.9997	 2.1482	58.8185	99.9980	
   411	 0.1450	 0.4249	 0.5698	 0.8868	 0.9189	 1.8057	 1.0992	 1.0171	 2.1163	58.7338	99.9980	
   412	 0.0881	 0.4538	 0.5418	 0.8375	 0.9436	 1.7811	 1.0442	 1.0429	 2.0872	58.6902	99.9981	
   413	 0.0564	 0.4822	 0.5385	 0.7965	 0.9874	 1.7840	 1.0342	 1.0850	 2.1192	58.6562	99.9979	
   414	 0.1088	 0.5145	 0.6232	 0.8637	 1.0150	 1.8788	 1.0807	 1.1263	 2.2070	58.6199	99.9980	
   415	 0.1187	 0.5365	 0.6550	 0.8646	 1.0294	 1.8940	 1.0691	 1.1432	 2.2124	58.5739	99.9980	
   416	 0.0695	 0.5541	 0.6235	 0.8077	 1.0495	 1.8572	 1.0133	 1.1565	 2.1699	58.5279	99.9980	
   417	 0.0367	 0.5659	 0.6024	 0.7659	 1.0789	 1.8448	 0.9772	 1.1822	 2.1593	58.4456	99.9980	
   418	 0.0126	 0.5830	 0.5955	 0.7165	 1.1037	 1.8202	 0.9164	 1.2165	 2.1328	58.2733	99.9979	
   419	-0.0191	 0.6114	 0.5922	 0.6965	 1.1328	 1.8293	 0.9056	 1.2460	 2.1515	58.2784	99.9979	
   420	 0.0246	 0.6384	 0.6628	 0.7419	 1.1608	 1.9027	 0.9579	 1.2788	 2.2367	58.2860	99.9979	
   421	 0.0344	 0.6604	 0.6946	 0.7370	 1.1992	 1.9362	 0.9413	 1.3168	 2.2581	58.1600	99.9979	
   422	-0.0050	 0.7000	 0.6949	 0.7170	 1.2282	 1.9453	 0.9116	 1.3465	 2.2581	58.1600	99.9981	
   423	-0.0280	 0.7338	 0.7057	 0.6828	 1.2623	 1.9451	 0.8762	 1.3847	 2.2609	58.0751	99.9980	
   424	-0.0521	 0.7510	 0.6988	 0.6343	 1.3015	 1.9358	 0.8285	 1.4272	 2.2557	57.9079	99.9979	
   425	-0.0751	 0.7848	 0.7096	 0.6152	 1.3449	 1.9601	 0.8373	 1.4690	 2.3063	57.9185	99.9978	
   426	-0.0390	 0.8229	 0.7838	 0.6606	 1.3729	 2.0335	 0.8642	 1.4980	 2.3622	57.9185	99.9979	
   427	-0.0554	 0.8288	 0.7733	 0.6464	 1.3779	 2.0243	 0.8454	 1.4983	 2.3436	57.9159	99.9980	
   428	-0.0970	 0.8352	 0.7381	 0.5961	 1.3883	 1.9844	 0.7715	 1.5244	 2.2958	57.7433	99.9981	
   429	-0.1462	 0.8529	 0.7066	 0.5467	 1.4131	 1.9598	 0.7295	 1.5585	 2.2880	57.6637	99.9980	
   430	-0.1779	 0.8813	 0.7033	 0.5049	 1.4425	 1.9474	 0.6933	 1.5841	 2.2774	57.6198	99.9979	
   431	-0.2020	 0.8984	 0.6963	 0.4916	 1.4619	 1.9535	 0.6760	 1.6095	 2.2854	57.5815	99.9980	
   432	-0.1758	 0.9145	 0.7387	 0.5352	 1.4612	 1.9964	 0.7079	 1.6174	 2.3253	57.6253	99.9981	
   433	-0.1845	 0.9092	 0.7246	 0.4849	 1.4716	 1.9565	 0.6514	 1.6182	 2.2695	57.4880	99.9980	
   434	-0.2348	 0.9102	 0.6753	 0.4346	 1.4820	 1.9167	 0.6079	 1.6271	 2.2350	57.4468	99.9980	
   435	-0.2752	 0.9332	 0.6579	 0.3995	 1.5018	 1.9013	 0.5652	 1.6486	 2.2138	57.4028	99.9981	
   436	-0.2993	 0.9503	 0.6509	 0.3643	 1.5215	 1.8859	 0.5355	 1.6783	 2.2139	57.3205	99.9979	
   437	-0.3146	 0.9729	 0.6581	 0.3595	 1.5599	 1.9194	 0.5320	 1.7245	 2.2565	57.2467	99.9980	
   438	-0.2786	 1.0110	 0.7323	 0.4049	 1.5879	 1.9928	 0.5778	 1.7533	 2.3310	57.2936	99.9980	
   439	-0.2950	 1.0169	 0.7218	 0.3973	 1.5832	 1.9805	 0.5466	 1.7578	 2.3045	57.2467	99.9982	
   440	-0.3125	 1.0062	 0.6936	 0.3613	 1.5886	 1.9499	 0.4974	 1.7753	 2.2726	57.0763	99.9982	
   441	-0.3442	 1.0346	 0.6903	 0.3337	 1.6130	 1.9467	 0.5047	 1.7919	 2.2966	57.1674	99.9980	
   442	-0.3519	 1.0458	 0.6939	 0.2995	 1.6471	 1.9466	 0.4627	 1.8260	 2.2887	56.9970	99.9979	
   443	-0.3574	 1.0904	 0.7329	 0.3382	 1.6848	 2.0230	 0.5165	 1.8840	 2.4005	57.0616	99.9980	
   444	-0.2798	 1.1222	 0.8423	 0.3769	 1.7225	 2.0994	 0.5427	 1.9004	 2.4431	57.0088	99.9979	
   445	-0.3039	 1.1393	 0.8353	 0.3484	 1.7325	 2.0810	 0.4999	 1.9219	 2.4219	56.9206	99.9980	
   446	-0.3279	 1.1564	 0.8284	 0.3351	 1.7519	 2.0870	 0.4819	 1.9348	 2.4166	56.9206	99.9981	
   447	-0.3443	 1.1623	 0.8179	 0.3075	 1.7763	 2.0838	 0.4530	 1.9771	 2.4300	56.7592	99.9980	
   448	-0.3586	 1.2015	 0.8428	 0.3102	 1.8194	 2.1296	 0.4618	 2.0189	 2.4806	56.7684	99.9981	
   449	-0.2887	 1.2445	 0.9558	 0.3850	 1.8516	 2.2366	 0.5437	 2.0220	 2.5657	56.9355	99.9982	
   450	-0.2723	 1.2387	 0.9663	 0.3841	 1.8373	 2.2214	 0.5068	 2.0350	 2.5418	56.7592	99.9982	
   451	-0.3149	 1.2284	 0.9134	 0.3405	 1.8380	 2.1785	 0.4879	 2.0353	 2.5232	56.7653	99.9980	
   452	-0.3313	 1.2343	 0.9029	 0.3205	 1.8671	 2.1876	 0.4648	 2.0691	 2.5340	56.6452	99.9981	
   453	-0.3466	 1.2568	 0.9101	 0.2862	 1.9012	 2.1874	 0.4286	 2.0947	 2.5234	56.5569	99.9981	
   454	-0.3696	 1.2906	 0.9209	 0.2880	 1.9299	 2.2179	 0.4563	 2.1363	 2.5926	56.6165	99.9980	
   455	-0.3172	 1.3229	 1.0056	 0.3552	 1.9575	 2.3127	 0.4955	 2.1610	 2.6565	56.6165	99.9983	
   456	-0.3172	 1.3229	 1.0056	 0.3268	 1.9676	 2.2943	 0.4709	 2.1697	 2.6406	56.5283	99.9981	
   457	-0.3500	 1.3346	 0.9846	 0.3125	 1.9726	 2.2851	 0.4405	 2.1868	 2.6273	56.4873	99.9983	
   458	-0.3664	 1.3405	 0.9741	 0.2707	 2.0020	 2.2727	 0.4159	 2.1955	 2.6114	56.4431	99.9982	
   459	-0.3992	 1.3523	 0.9530	 0.2422	 2.0121	 2.2543	 0.3912	 2.2042	 2.5955	56.4431	99.9982	
   460	-0.3894	 1.3743	 0.9849	 0.2649	 2.0261	 2.2910	 0.4116	 2.2291	 2.6407	56.4494	99.9982	
   461	-0.3719	 1.3851	 1.0131	 0.2592	 2.0501	 2.3093	 0.4247	 2.2373	 2.6620	56.4494	99.9980	
   462	-0.3959	 1.4022	 1.0062	 0.2383	 2.0648	 2.3031	 0.3885	 2.2630	 2.6515	56.3643	99.9981	
   463	-0.4113	 1.4248	 1.0134	 0.2316	 2.0745	 2.3061	 0.3646	 2.2842	 2.6489	56.3201	99.9982	
   464	-0.4277	 1.4306	 1.0029	 0.1965	 2.0943	 2.2907	 0.3400	 2.2929	 2.6329	56.2759	99.9981	
   465	-0.4441	 1.4365	 0.9923	 0.1756	 2.1090	 2.2846	 0.3219	 2.3057	 2.6277	56.2349	99.9981	
   466	-0.4179	 1.4527	 1.0347	 0.2049	 2.1133	 2.3182	 0.3654	 2.2968	 2.6622	56.3611	99.9980	
   467	-0.4277	 1.4306	 1.0029	 0.1747	 2.0946	 2.2693	 0.3269	 2.2847	 2.6116	56.2695	99.9979	
   468	-0.4605	 1.4424	 0.9818	 0.1547	 2.1237	 2.2784	 0.3161	 2.3142	 2.6303	56.2381	99.9980	
   469	-0.4496	 1.4811	 1.0314	 0.1783	 2.1520	 2.3303	 0.3184	 2.3519	 2.6703	56.1970	99.9982	
   470	-0.4562	 1.5090	 1.0527	 0.1591	 2.1955	 2.3546	 0.3207	 2.3896	 2.7103	56.1625	99.9980	
   471	-0.4289	 1.5418	 1.1128	 0.2045	 2.2234	 2.4280	 0.3549	 2.4353	 2.7902	56.1312	99.9981	
   472	-0.4016	 1.5745	 1.1729	 0.2215	 2.2615	 2.4829	 0.3934	 2.4473	 2.8407	56.2163	99.9980	
   473	-0.4016	 1.5745	 1.1729	 0.1997	 2.2618	 2.4615	 0.3745	 2.4476	 2.8221	56.1690	99.9978	
   474	-0.4267	 1.5750	 1.1482	 0.1854	 2.2669	 2.4523	 0.3376	 2.4606	 2.7982	56.0838	99.9980	
   475	-0.4431	 1.5809	 1.1377	 0.1645	 2.2816	 2.4461	 0.3260	 2.4776	 2.8036	56.0461	99.9980	
   476	-0.4497	 1.6088	 1.1590	 0.1597	 2.3200	 2.4796	 0.3348	 2.5194	 2.8542	56.0150	99.9979	
   477	-0.3875	 1.6631	 1.2756	 0.2571	 2.3662	 2.6233	 0.4256	 2.5643	 2.9899	56.1130	99.9981	
   478	-0.3438	 1.6900	 1.3462	 0.2580	 2.3806	 2.6386	 0.4248	 2.5517	 2.9766	56.1345	99.9979	
   479	-0.3787	 1.6685	 1.2897	 0.2269	 2.3476	 2.5744	 0.3798	 2.5356	 2.9154	56.0871	99.9980	
   480	-0.4049	 1.6524	 1.2473	 0.1841	 2.3627	 2.5468	 0.3494	 2.5527	 2.9022	55.9675	99.9979	
   481	-0.4203	 1.6749	 1.2545	 0.1708	 2.3821	 2.5529	 0.3633	 2.5735	 2.9368	56.0183	99.9976	
   482	-0.4017	 1.7023	 1.3005	 0.2020	 2.4150	 2.6170	 0.3909	 2.6151	 3.0060	55.9872	99.9977	
   483	-0.3602	 1.6959	 1.3357	 0.2229	 2.4003	 2.6232	 0.4025	 2.5982	 3.0006	55.9774	99.9977	
   484	-0.4039	 1.6690	 1.2651	 0.1557	 2.3727	 2.5284	 0.3371	 2.5571	 2.8942	55.9609	99.9975	
   485	-0.4640	 1.6480	 1.1839	 0.1094	 2.3304	 2.4398	 0.2906	 2.5157	 2.8063	56.0363	99.9976	
   486	-0.4825	 1.6206	 1.1380	 0.0715	 2.3071	 2.3787	 0.2398	 2.5080	 2.7478	55.9034	99.9975	
   487	-0.5241	 1.6270	 1.1028	 0.0355	 2.3125	 2.3480	 0.2202	 2.4957	 2.7159	55.9854	99.9975	
   488	-0.4913	 1.6152	 1.1239	 0.0782	 2.2974	 2.3756	 0.2695	 2.4783	 2.7478	56.0740	99.9975	
   489	-0.4661	 1.6147	 1.1485	 0.1067	 2.2874	 2.3940	 0.2695	 2.4783	 2.7478	56.0265	99.9977	
   490	-0.4749	 1.6093	 1.1344	 0.0782	 2.2974	 2.3756	 0.2514	 2.4911	 2.7425	55.9444	99.9975	
   491	-0.4825	 1.6206	 1.1380	 0.0715	 2.3071	 2.3787	 0.2572	 2.4826	 2.7398	56.0265	99.9975	
   492	-0.4913	 1.6152	 1.1239	 0.0640	 2.3024	 2.3664	 0.2202	 2.4957	 2.7159	55.8967	99.9977	
   493	-0.4913	 1.6152	 1.1239	 0.0649	 2.3168	 2.3817	 0.2514	 2.4911	 2.7425	55.9887	99.9975	
   494	-0.4486	 1.6255	 1.1767	 0.1085	 2.3161	 2.4245	 0.2833	 2.4991	 2.7824	55.9887	99.9975	
   495	-0.4574	 1.6201	 1.1626	 0.0942	 2.3211	 2.4153	 0.2645	 2.4993	 2.7638	55.9444	99.9976	
   496	-0.4497	 1.6088	 1.1590	 0.1009	 2.3114	 2.4123	 0.2645	 2.4993	 2.7638	55.9034	99.9976	
   497	-0.4574	 1.6201	 1.1626	 0.1085	 2.3161	 2.4245	 0.2464	 2.5121	 2.7585	55.8590	99.9979	
   498	-0.4650	 1.6314	 1.1662	 0.0951	 2.3354	 2.4306	 0.2594	 2.5203	 2.7798	55.9067	99.9977	
   499	-0.4465	 1.6588	 1.2122	 0.1263	 2.3684	 2.4947	 0.3110	 2.5406	 2.8516	56.0019	99.9977	
   500	-0.4126	 1.6636	 1.2509	 0.1557	 2.3727	 2.5284	 0.3240	 2.5489	 2.8729	55.9576	99.9977	
   501	-0.4126	 1.6636	 1.2509	 0.1414	 2.3778	 2.5192	 0.2994	 2.5576	 2.8570	55.8690	99.9977	
   502	-0.4290	 1.6695	 1.2404	 0.1272	 2.3828	 2.5100	 0.2929	 2.5534	 2.8463	55.9100	99.9977	
   503	-0.4377	 1.6641	 1.2263	 0.1121	 2.3735	 2.4855	 0.2733	 2.5411	 2.8144	55.9034	99.9977	
   504	-0.4629	 1.6646	 1.2017	 0.0969	 2.3641	 2.4611	 0.2660	 2.5244	 2.7904	55.9854	99.9977	
   505	-0.4224	 1.6416	 1.2191	 0.1321	 2.3444	 2.4765	 0.2906	 2.5157	 2.8063	55.9444	99.9977	
   506	-0.4312	 1.6362	 1.2050	 0.1169	 2.3351	 2.4520	 0.2833	 2.4991	 2.7824	55.9821	99.9977	
   507	-0.4476	 1.6421	 1.1945	 0.1027	 2.3401	 2.4428	 0.2587	 2.5078	 2.7664	55.9378	99.9977	
   508	-0.4476	 1.6421	 1.1945	 0.1103	 2.3448	 2.4550	 0.2529	 2.5162	 2.7691	55.8967	99.9979	
   509	-0.4476	 1.6421	 1.1945	 0.0751	 2.3645	 2.4396	 0.2471	 2.5247	 2.7718	55.8557	99.9975	
   510	-0.5000	 1.6098	 1.1097	 0.0346	 2.2981	 2.3328	 0.1722	 2.4292	 2.6014	55.9902	99.9979	
   511	-0.6550	 1.4185	 0.7634	-0.1590	 2.1099	 1.9508	-0.0328	 2.2642	 2.2314	55.8298	99.9977	
   512	-0.8352	 1.2277	 0.3924	-0.3727	 1.9506	 1.5779	-0.2905	 2.1627	 1.8722	55.3814	99.9978	
   513	-0.9249	 1.2684	 0.3434	-0.3606	 2.0271	 1.6664	-0.2005	 2.1951	 1.9946	55.7709	99.9979	
   514	-0.7225	 1.1532	 0.4306	-0.1672	 1.7460	 1.5788	-0.1605	 1.7125	 1.5520	56.7595	99.9981	
   515	-0.7013	 0.7028	 0.0014	-0.3558	 1.1745	 0.8188	-0.3674	 1.0989	 0.7315	57.0885	99.9979	
   516	-0.7471	 0.5149	-0.2323	-0.3710	 0.9305	 0.5595	-0.2753	 0.8545	 0.5793	57.7432	99.9972	
   517	-0.6913	 0.4693	-0.2220	-0.2874	 0.8717	 0.5843	-0.1629	 0.8405	 0.6776	57.8529	99.9968	
   518	-0.5853	 0.5505	-0.0349	-0.1663	 0.9462	 0.7799	-0.0367	 0.8473	 0.8105	58.1519	99.9972	
   519	-0.6844	 0.1859	-0.4986	-0.4682	 0.5395	 0.0713	-0.6201	 0.4565	-0.1636	57.2460	99.9981	
   520	-1.5335	-0.0971	-1.6307	-1.3435	 0.3866	-0.9569	-1.3776	 0.5124	-0.8653	56.0178	99.9961	
   521	-2.3118	-0.0649	-2.3768	-1.9116	 0.4920	-1.4196	-1.7921	 0.6267	-1.1654	56.1460	99.9968	
   522	-2.2376	 0.0447	-2.1930	-1.6704	 0.6268	-1.0436	-1.4082	 0.7350	-0.6732	56.9016	99.9970	
   523	-1.5391	 0.0752	-1.4640	-0.8918	 0.5131	-0.3787	-0.6924	 0.5078	-0.1847	58.2152	99.9980	
   524	-0.9742	 0.2472	-0.7270	-0.3938	 0.6819	 0.2881	-0.1432	 0.6474	 0.5043	58.5038	99.9971	
   525	-0.7523	 0.3039	-0.4485	-0.3169	 0.6327	 0.3158	-0.1631	 0.5261	 0.3630	58.5925	99.9969	
   526	-0.9664	 0.1082	-0.8583	-0.5039	 0.4347	-0.0692	-0.4138	 0.3323	-0.0815	58.5170	99.9977	
   527	-1.1062	 0.0221	-1.0842	-0.6610	 0.3655	-0.2954	-0.5365	 0.2794	-0.2571	58.4291	99.9973	
   528	-1.0898	 0.0162	-1.0737	-0.6552	 0.3415	-0.3137	-0.5438	 0.2627	-0.2811	58.4213	99.9972	
   529	-1.1444	-0.0493	-1.1938	-0.7015	 0.2992	-0.4023	-0.5772	 0.2296	-0.3476	58.3838	99.9972	
   530	-1.1979	-0.0983	-1.2963	-0.7554	 0.2522	-0.5032	-0.6491	 0.1844	-0.4647	58.3306	99.9974	
   531	-1.3105	-0.1516	-1.4621	-0.8413	 0.1579	-0.6834	-0.7625	 0.0769	-0.6857	58.4811	99.9978	
   532	-1.4394	-0.1990	-1.6385	-1.0033	 0.1271	-0.8762	-0.9468	 0.0457	-0.9011	58.2428	99.9978	
   533	-1.4296	-0.1769	-1.6066	-0.9721	 0.1601	-0.8120	-0.9091	 0.0452	-0.8639	58.3771	99.9980	
   534	-1.4066	-0.2107	-1.6174	-0.9454	 0.1213	-0.8241	-0.9064	-0.0135	-0.9199	58.4527	99.9981	
   535	-1.4437	-0.2655	-1.7093	-0.9917	 0.0790	-0.9127	-0.9587	-0.0464	-1.0050	58.3614	99.9981	
   536	-1.4852	-0.2592	-1.7445	-1.0135	 0.0794	-0.9342	-0.9825	-0.0251	-1.0076	58.3236	99.9983	
   537	-1.5202	-0.2807	-1.8010	-1.0807	 0.0518	-1.0290	-1.0421	-0.0747	-1.1168	58.3508	99.9981	
   538	-1.5714	-0.4241	-1.9956	-1.1142	-0.1344	-1.2486	-1.0543	-0.2757	-1.3300	58.7290	99.9980	
   539	-1.9026	-0.4841	-2.3868	-1.5400	-0.0794	-1.6193	-1.5300	-0.0306	-1.5606	57.1657	99.9974	
   540	-2.3870	-0.3189	-2.7060	-1.9523	 0.1910	-1.7613	-1.7649	 0.2449	-1.5200	56.9846	99.9967	
   541	-2.3543	-0.2029	-2.5573	-1.8428	 0.3137	-1.5291	-1.6245	 0.3814	-1.2431	57.1189	99.9969	
   542	-2.2156	-0.1335	-2.3491	-1.6866	 0.3685	-1.3181	-1.4830	 0.4341	-1.0489	57.2160	99.9971	
   543	-2.0232	-0.1429	-2.1661	-1.3898	 0.3443	-1.0455	-1.1336	 0.3877	-0.7460	57.8639	99.9974	
   544	-1.3564	-0.0840	-1.4405	-0.6855	 0.3229	-0.3626	-0.4357	 0.2823	-0.1534	58.8605	99.9977	
   545	-0.4701	 0.1261	-0.3442	 0.1529	 0.4667	 0.6196	 0.4115	 0.3552	 0.7666	59.6053	99.9973	
   546	-0.1542	 0.0809	-0.0734	 0.3837	 0.3192	 0.7029	 0.4724	 0.1154	 0.5879	59.8718	99.9981	
   547	-0.6336	-0.3262	-0.9599	-0.1655	-0.0882	-0.2538	-0.0529	-0.2509	-0.3037	59.6547	99.9975	
   548	-1.0554	-0.4899	-1.5455	-0.5470	-0.2542	-0.8011	-0.4209	-0.4097	-0.8306	59.6373	99.9976	
   549	-1.2347	-0.5364	-1.7711	-0.7241	-0.2943	-1.0183	-0.6067	-0.4659	-1.0727	59.5790	99.9978	
   550	-1.2871	-0.5686	-1.8558	-0.7988	-0.3265	-1.1254	-0.7432	-0.5397	-1.2829	59.5048	99.9981	
   551	-1.3242	-0.6234	-1.9478	-0.8167	-0.3789	-1.1956	-0.7732	-0.6189	-1.3921	59.6280	99.9982	
   552	-1.4748	-0.8760	-2.3509	-1.1371	-0.6178	-1.7549	-1.2598	-0.6588	-1.9186	58.1646	99.9983	
   553	-1.7575	-0.1871	-1.9447	-1.0049	 0.3330	-0.6719	-0.6362	 0.3980	-0.2382	58.4602	99.9972	
   554	-0.8529	 0.3059	-0.5471	-0.2119	 0.6836	 0.4718	 0.0180	 0.7124	 0.7304	58.6101	99.9971	
   555	-0.7723	 0.6432	-0.1293	-0.0946	 1.0456	 0.9510	 0.1117	 1.0130	 1.1247	58.5438	99.9980	
   556	-0.4837	 0.5652	 0.0814	 0.1002	 0.9034	 1.0036	 0.1807	 0.8025	 0.9832	58.6870	99.9984	
   557	-0.3253	 0.6787	 0.3533	 0.3169	 0.9955	 1.3124	 0.4530	 0.9374	 1.3903	58.9034	99.9982	
   558	-0.1559	 0.7031	 0.5471	 0.4344	 1.0127	 1.4471	 0.5603	 0.9444	 1.5047	58.8963	99.9979	
   559	-0.0291	 0.7172	 0.6880	 0.5007	 1.0260	 1.5266	 0.6234	 0.9478	 1.5711	58.8448	99.9976	
   560	 0.0453	 0.6990	 0.7442	 0.5710	 0.9865	 1.5574	 0.6711	 0.9052	 1.5763	58.9217	99.9977	
   561	 0.1622	 0.6911	 0.8533	 0.7075	 0.9602	 1.6678	 0.8023	 0.8910	 1.6933	59.0571	99.9977	
   562	 0.3120	 0.6715	 0.9834	 0.8375	 0.9436	 1.7811	 0.9393	 0.8682	 1.8075	59.1457	99.9975	
   563	 0.4028	 0.6475	 1.0501	 0.9522	 0.9178	 1.8700	 1.0640	 0.8499	 1.9138	59.2851	99.9975	
   564	 0.4247	 0.5970	 1.0216	 0.9780	 0.8646	 1.8427	 1.1182	 0.8114	 1.9297	59.3777	99.9971	
   565	 0.4651	 0.5740	 1.0390	 1.0207	 0.8496	 1.8703	 1.1733	 0.7856	 1.9588	59.4657	99.9972	
   566	 0.4794	 0.5348	 1.0141	 1.0380	 0.7774	 1.8155	 1.1629	 0.7186	 1.8816	59.5386	99.9972	
   567	 0.4161	 0.4639	 0.8798	 0.9472	 0.7215	 1.6687	 1.0853	 0.6819	 1.7671	59.4085	99.9968	
   568	 0.3724	 0.4370	 0.8092	 0.9094	 0.6982	 1.6076	 1.0895	 0.6483	 1.7378	59.5407	99.9965	
   569	 0.4041	 0.4086	 0.8126	 0.9655	 0.6637	 1.6292	 1.1518	 0.6391	 1.7910	59.5932	99.9963	
   570	 0.3834	 0.3479	 0.7312	 0.9467	 0.5970	 1.5437	 1.1465	 0.5511	 1.6977	59.7563	99.9963	
   571	 0.1988	 0.2182	 0.4169	 0.7785	 0.4657	 1.2442	 0.9569	 0.4320	 1.3889	59.6998	99.9967	
   572	 0.0896	 0.0871	 0.1766	 0.6756	 0.3334	 1.0090	 0.8847	 0.2778	 1.1626	59.9034	99.9966	
   573	-0.0382	-0.0714	-0.1097	 0.6012	 0.1910	 0.7922	 0.8314	 0.1234	 0.9548	60.1173	99.9970	
   574	-0.0184	-0.1551	-0.1736	 0.6728	 0.0557	 0.7285	 0.8584	-0.0530	 0.8054	60.5242	99.9979	
   575	-0.4038	-0.6641	-1.0679	 0.1996	-0.4153	-0.2157	 0.4440	-0.4585	-0.0145	60.2853	99.9963	
   576	-0.6353	-0.8705	-1.5059	 0.2000	-0.5254	-0.3254	 0.6098	-0.5235	 0.0863	60.7832	99.9967	
   577	-0.1620	-0.8189	-0.9810	 0.6133	-0.5468	 0.0665	 0.8104	-0.6393	 0.1711	60.9451	99.9984	
   578	-0.2591	-1.0225	-1.2817	 0.4512	-0.8122	-0.3610	 0.7363	-0.9276	-0.1913	61.3929	99.9971	
   579	-0.3167	-1.3935	-1.7103	 0.4154	-1.1516	-0.7362	 0.6600	-1.2536	-0.5936	61.4668	99.9978	
   580	-0.4641	-1.5961	-2.0603	 0.2569	-1.3597	-1.1028	 0.4832	-1.4735	-0.9903	61.5336	99.9979	
   581	-0.4738	-1.7459	-2.2197	 0.2310	-1.5412	-1.3102	 0.4006	-1.6947	-1.2940	61.7234	99.9983	
   582	-0.4779	-1.9402	-2.4183	 0.1646	-1.7891	-1.6245	 0.2593	-1.9528	-1.6935	61.7762	99.9984	
   583	-0.4757	-2.0347	-2.5105	 0.1810	-1.8756	-1.6946	 0.3047	-2.0330	-1.7283	61.9111	99.9983	
   584	-0.4111	-2.0749	-2.4861	 0.2446	-1.9054	-1.6608	 0.3713	-2.0758	-1.7045	61.9986	99.9983	
   585	-0.4646	-2.1238	-2.5885	 0.1956	-1.9908	-1.7952	 0.2856	-2.1418	-1.8562	61.9891	99.9984	
   586	-0.4755	-2.1625	-2.6381	 0.1872	-2.0098	-1.8226	 0.2979	-2.1461	-1.8482	61.9514	99.9983	
   587	-0.4427	-2.1742	-2.6171	 0.2223	-2.0296	-1.8073	 0.3275	-2.1758	-1.8483	62.0363	99.9984	
   588	-0.4361	-2.2021	-2.6384	 0.2290	-2.0392	-1.8103	 0.3587	-2.1804	-1.8217	62.0417	99.9982	
   589	-0.4197	-2.2080	-2.6279	 0.2490	-2.0683	-1.8193	 0.3760	-2.2058	-1.8298	62.1265	99.9982	
   590	-0.4285	-2.2134	-2.6420	 0.2641	-2.0590	-1.7949	 0.4145	-2.1937	-1.7792	62.1773	99.9982	
   591	-0.3356	-2.2041	-2.5398	 0.3589	-2.0558	-1.6969	 0.5095	-2.1824	-1.6729	62.2241	99.9981	
   592	-0.2853	-2.2051	-2.4905	 0.4092	-2.0662	-1.6571	 0.5595	-2.1872	-1.6277	62.2683	99.9980	
   593	-0.2864	-2.2218	-2.5083	 0.4007	-2.0852	-1.6846	 0.5457	-2.2080	-1.6623	62.2658	99.9980	
   594	-0.3115	-2.2213	-2.5329	 0.3856	-2.0946	-1.7090	 0.5326	-2.2162	-1.6836	62.3087	99.9980	
   595	-0.3039	-2.2326	-2.5365	 0.3638	-2.0942	-1.7304	 0.5318	-2.2288	-1.6969	62.3075	99.9977	
   596	-0.3290	-2.2320	-2.5611	 0.3486	-2.1035	-1.7549	 0.5007	-2.2242	-1.7235	62.2633	99.9978	
   597	-0.3541	-2.2315	-2.5858	 0.3268	-2.1032	-1.7763	 0.4884	-2.2198	-1.7315	62.2645	99.9977	
   598	-0.3203	-2.2267	-2.5470	 0.3571	-2.0845	-1.7274	 0.5457	-2.2080	-1.6623	62.3125	99.9975	
   599	-0.2864	-2.2218	-2.5083	 0.4216	-2.1000	-1.6784	 0.5834	-2.2085	-1.6251	62.3566	99.9978	
   600	-0.2951	-2.2272	-2.5224	 0.3998	-2.0996	-1.6998	 0.5703	-2.2167	-1.6464	62.3554	99.9977	
   601	-0.3049	-2.2492	-2.5542	 0.3704	-2.1039	-1.7335	 0.5384	-2.2247	-1.6863	62.2670	99.9977	
   602	-0.3388	-2.2541	-2.5930	 0.3477	-2.1179	-1.7702	 0.5065	-2.2326	-1.7262	62.2658	99.9978	
   603	-0.3640	-2.2536	-2.6176	 0.3117	-2.1125	-1.8008	 0.4688	-2.2322	-1.7634	62.2203	99.9978	
   604	-0.3978	-2.2584	-2.6564	 0.2823	-2.1168	-1.8345	 0.4253	-2.2232	-1.7979	62.1330	99.9979	
   605	-0.4230	-2.2579	-2.6810	 0.2681	-2.1117	-1.8437	 0.4195	-2.2148	-1.7953	62.1356	99.9979	
   606	-0.3629	-2.2369	-2.5999	 0.3210	-2.0791	-1.7581	 0.5153	-2.1908	-1.6756	62.2292	99.9976	
   607	-0.3115	-2.2213	-2.5329	 0.3731	-2.0608	-1.6877	 0.5545	-2.1662	-1.6117	62.1876	99.9976	
   608	-0.3104	-2.2046	-2.5152	 0.3807	-2.0562	-1.6755	 0.5553	-2.1536	-1.5984	62.1876	99.9976	
   609	-0.3104	-2.2046	-2.5152	 0.3664	-2.0511	-1.6847	 0.5306	-2.1449	-1.6143	62.0992	99.9976	
   610	-0.3432	-2.1929	-2.5362	 0.3380	-2.0411	-1.7031	 0.5118	-2.1447	-1.6329	62.1421	99.9976	
   611	-0.3596	-2.1870	-2.5467	 0.3237	-2.0361	-1.7123	 0.4872	-2.1360	-1.6488	62.0979	99.9977	
   612	-0.3673	-2.1757	-2.5431	 0.3104	-2.0167	-1.7063	 0.4764	-2.1065	-1.6301	62.0135	99.9976	
   613	-0.3488	-2.1483	-2.4972	 0.3558	-1.9887	-1.6329	 0.5287	-2.0736	-1.5450	62.0630	99.9977	
   614	-0.2799	-2.1219	-2.4019	 0.4163	-1.9514	-1.5351	 0.6121	-2.0454	-1.4332	62.1110	99.9976	
   615	-0.2624	-2.1112	-2.3737	 0.4315	-1.9421	-1.5106	 0.6063	-2.0369	-1.4306	62.0656	99.9977	
   616	-0.2865	-2.0940	-2.3806	 0.4172	-1.9371	-1.5198	 0.5825	-2.0156	-1.4332	62.0228	99.9977	
   617	-0.2942	-2.0828	-2.3770	 0.3897	-1.9127	-1.5230	 0.5767	-2.0072	-1.4305	62.0228	99.9976	
   618	-0.2931	-2.0661	-2.3593	 0.3906	-1.8983	-1.5077	 0.5659	-1.9777	-1.4118	61.9373	99.9975	
   619	-0.3084	-2.0436	-2.3521	 0.3848	-1.8743	-1.4895	 0.5551	-1.9482	-1.3931	61.8959	99.9976	
   620	-0.2964	-1.9883	-2.2848	 0.4168	-1.8269	-1.4101	 0.6024	-1.8943	-1.2919	61.9455	99.9975	
   621	-0.1850	-1.9516	-2.1367	 0.5076	-1.7710	-1.2633	 0.7055	-1.8537	-1.1482	61.9495	99.9975	
   622	-0.1325	-1.9193	-2.0520	 0.5530	-1.7430	-1.1900	 0.7389	-1.8206	-1.0817	61.9069	99.9975	
   623	-0.1479	-1.8968	-2.0448	 0.5330	-1.7139	-1.1809	 0.7150	-1.7993	-1.0843	61.8629	99.9976	
   624	-0.1555	-1.8856	-2.0412	 0.5264	-1.7042	-1.1779	 0.7158	-1.7868	-1.0710	61.8643	99.9975	
   625	-0.1709	-1.8630	-2.0340	 0.5130	-1.6849	-1.1718	 0.6919	-1.7655	-1.0736	61.8202	99.9976	
   626	-0.1862	-1.8405	-2.0268	 0.5006	-1.6511	-1.1505	 0.6935	-1.7404	-1.0469	61.8230	99.9976	
   627	-0.1764	-1.8185	-1.9949	 0.5166	-1.6275	-1.1108	 0.7204	-1.7114	-0.9910	61.8272	99.9975	
   628	-0.1163	-1.7975	-1.9138	 0.5696	-1.5948	-1.0252	 0.7850	-1.6829	-0.8979	61.8314	99.9974	
   629	-0.1064	-1.7754	-1.8820	 0.5780	-1.5758	-0.9978	 0.7923	-1.6662	-0.8739	61.8314	99.9974	
   630	-0.1141	-1.7642	-1.8784	 0.5714	-1.5661	-0.9947	 0.7677	-1.6575	-0.8898	61.7860	99.9976	
   631	-0.1305	-1.7583	-1.8889	 0.5429	-1.5561	-1.0132	 0.7561	-1.6406	-0.8845	61.7449	99.9973	
   632	-0.1633	-1.7465	-1.9099	 0.5287	-1.5510	-1.0224	 0.7257	-1.6234	-0.8977	61.7023	99.9975	
   633	-0.1776	-1.7074	-1.8850	 0.5162	-1.5173	-1.0011	 0.7149	-1.5939	-0.8790	61.7023	99.9975	
   634	-0.1590	-1.6800	-1.8391	 0.5407	-1.4746	-0.9339	 0.7491	-1.5482	-0.7991	61.6656	99.9975	
   635	-0.0705	-1.6095	-1.6801	 0.6342	-1.3756	-0.7414	 0.8640	-1.4156	-0.5515	61.5122	99.9972	
   636	 0.2134	-1.3708	-1.1574	 0.9614	-1.1465	-0.1851	 1.2236	-1.1896	 0.0340	61.7086	99.9971	
   637	 0.6067	-1.1286	-0.5220	 1.2801	-0.9364	 0.3437	 1.4693	-0.9748	 0.4945	61.4939	99.9969	
   638	 1.0350	-0.8650	 0.1699	 1.6669	-0.6843	 0.9826	 1.8092	-0.7612	 1.0480	61.4983	99.9973	
   639	 1.3136	-0.7095	 0.6040	 1.9450	-0.5405	 1.4045	 2.0061	-0.6254	 1.3807	61.4142	99.9981	
   640	 1.4217	-0.5950	 0.8266	 2.0545	-0.4179	 1.6367	 2.1406	-0.4804	 1.6603	61.3456	99.9977	
   641	 1.5287	-0.4971	 1.0315	 2.1765	-0.3289	 1.8476	 2.3418	-0.3782	 1.9636	61.5352	99.9967	
   642	 1.6817	-0.4669	 1.2147	 2.3015	-0.3071	 1.9944	 2.4433	-0.3627	 2.0806	61.5323	99.9967	
   643	 1.7495	-0.4571	 1.2923	 2.3451	-0.3078	 2.0373	 2.4614	-0.3755	 2.0859	61.5250	99.9968	
   644	 1.7889	-0.4968	 1.2920	 2.3340	-0.3699	 1.9641	 2.4249	-0.4589	 1.9661	61.5507	99.9967	
   645	 1.7769	-0.5521	 1.2247	 2.2992	-0.4603	 1.8389	 2.3311	-0.5541	 1.7770	61.5315	99.9970	
   646	 1.5944	-0.6484	 0.9459	 2.1101	-0.5768	 1.5332	 2.0827	-0.7102	 1.3725	61.5471	99.9978	
   647	 1.2754	-0.7809	 0.4943	 1.8034	-0.7105	 1.0929	 1.7559	-0.9156	 0.8402	61.6922	99.9985	
   648	 0.9727	-0.9193	 0.0533	 1.4799	-0.8823	 0.5976	 1.4297	-1.1084	 0.3213	61.7533	99.9985	
   649	 0.7018	-1.0861	-0.3844	 1.1630	-1.0637	 0.0993	 1.1521	-1.3312	-0.1791	61.9042	99.9980	
   650	 0.3882	-1.2632	-0.8750	 0.8461	-1.2451	-0.3990	 0.8710	-1.5079	-0.6369	61.9363	99.9977	
   651	 0.1632	-1.3698	-1.2067	 0.6654	-1.3426	-0.6772	 0.7157	-1.5814	-0.8657	61.9390	99.9977	
   652	 0.0430	-1.4118	-1.3689	 0.5755	-1.3842	-0.8087	 0.6510	-1.6099	-0.9588	61.9864	99.9976	
   653	-0.0095	-1.4441	-1.4537	 0.5158	-1.4071	-0.8913	 0.5930	-1.6343	-1.0413	61.9404	99.9976	
   654	-0.0871	-1.4759	-1.5630	 0.4411	-1.4394	-0.9983	 0.5153	-1.6710	-1.1557	61.9363	99.9977	
   655	-0.1668	-1.5409	-1.7078	 0.3779	-1.5198	-1.1419	 0.4730	-1.7459	-1.2729	62.0660	99.9975	
   656	-0.2389	-1.6173	-1.8562	 0.3013	-1.5807	-1.2794	 0.3823	-1.7909	-1.4086	61.9321	99.9976	
   657	-0.3328	-1.6431	-1.9761	 0.1981	-1.6029	-1.4049	 0.2510	-1.7766	-1.5255	61.6664	99.9976	
   658	-0.4170	-1.6470	-2.0641	 0.1042	-1.5918	-1.4876	 0.1525	-1.7418	-1.5893	61.4480	99.9975	
   659	-0.4673	-1.6460	-2.1134	 0.0472	-1.5716	-1.5244	 0.0975	-1.7159	-1.6184	61.3179	99.9975	
   660	-0.5144	-1.5951	-2.1095	 0.0006	-1.5038	-1.5032	 0.0593	-1.6190	-1.5597	61.1079	99.9972	
   661	-0.2643	-1.3612	-1.6256	 0.2744	-1.1971	-0.9228	 0.4446	-1.2802	-0.8356	61.0341	99.9963	
   662	 0.5114	-0.9157	-0.4043	 1.1080	-0.7802	 0.3278	 1.2542	-0.8924	 0.3618	61.4199	99.9971	
   663	 0.8817	-0.6397	 0.2419	 1.4160	-0.5076	 0.9084	 1.4290	-0.6012	 0.8278	60.9027	99.9977	
   664	 0.8324	-0.4943	 0.3379	 1.3916	-0.3157	 1.0760	 1.5065	-0.3590	 1.1475	60.7294	99.9967	
   665	 0.9918	-0.3642	 0.6275	 1.5599	-0.1844	 1.3755	 1.6969	-0.2273	 1.4696	60.7888	99.9964	
   666	 1.0475	-0.2820	 0.7654	 1.6467	-0.0757	 1.5710	 1.7922	-0.1070	 1.6852	60.7224	99.9967	
   667	 1.1196	-0.2057	 0.9138	 1.7108	 0.0190	 1.7298	 1.8483	-0.0113	 1.8370	60.6022	99.9969	
   668	 1.1141	-0.1611	 0.9529	 1.7429	 0.0663	 1.8092	 1.8744	 0.0052	 1.8796	60.7311	99.9976	
   669	 1.1633	-0.1788	 0.9844	 1.7326	 0.0186	 1.7512	 1.8003	-0.0777	 1.7225	60.7014	99.9978	
   670	 1.0454	-0.3153	 0.7300	 1.5466	-0.1650	 1.3815	 1.5191	-0.2544	 1.2648	60.4856	99.9979	
   671	 0.8290	-0.4165	 0.4124	 1.2795	-0.2467	 1.0328	 1.2695	-0.3266	 0.9429	60.2564	99.9975	
   672	 0.5526	-0.5387	 0.0137	 0.9796	-0.3901	 0.5895	 0.9434	-0.5195	 0.4239	60.3030	99.9978	
   673	 0.0261	-0.8948	-0.8689	 0.4200	-0.8452	-0.4252	 0.2956	-1.1441	-0.8485	60.8961	99.9986	
   674	-0.3682	-1.2814	-1.6497	 0.0064	-1.2932	-1.2867	-0.0865	-1.6381	-1.7246	61.3814	99.9984	
   675	-0.4916	-1.3733	-1.8651	-0.0861	-1.3778	-1.4640	-0.0772	-1.6927	-1.7699	61.5760	99.9978	
   676	-0.4840	-1.3846	-1.8687	-0.0634	-1.3638	-1.4273	-0.0503	-1.6637	-1.7140	61.4961	99.9978	
   677	-0.5539	-1.4276	-1.9816	-0.1306	-1.3914	-1.5221	-0.1134	-1.6671	-1.7805	61.3665	99.9978	
   678	-0.6719	-1.4364	-2.1084	-0.1961	-1.3903	-1.5864	-0.1111	-1.6294	-1.7405	61.4308	99.9974	
   679	-0.6544	-1.4256	-2.0802	-0.1867	-1.3570	-1.5437	-0.0900	-1.5919	-1.6819	61.3485	99.9973	
   680	-0.6960	-1.4192	-2.1153	-0.2018	-1.3663	-1.5681	-0.0711	-1.5922	-1.6633	61.4868	99.9970	
   681	-0.7047	-1.4246	-2.1294	-0.2018	-1.3663	-1.5681	-0.0530	-1.6050	-1.6580	61.5766	99.9970	
   682	-0.7484	-1.4515	-2.2000	-0.2348	-1.4280	-1.6628	-0.1561	-1.6456	-1.8017	61.4759	99.9975	
   683	-0.7987	-1.4505	-2.2493	-0.3296	-1.4312	-1.7607	-0.2692	-1.6441	-1.9133	61.2888	99.9973	
   684	-0.8861	-1.5043	-2.3905	-0.4528	-1.4243	-1.8771	-0.3727	-1.5883	-1.9610	60.8579	99.9967	
   685	-0.9856	-1.4857	-2.4714	-0.5231	-1.3848	-1.9079	-0.4255	-1.5247	-1.9502	60.7381	99.9967	
   686	-1.0282	-1.4959	-2.5242	-0.5676	-1.3984	-1.9660	-0.4755	-1.5199	-1.9954	60.6493	99.9965	
   687	-1.0446	-1.4901	-2.5348	-0.5809	-1.3790	-1.9600	-0.4494	-1.5035	-1.9528	60.7019	99.9962	
   688	-1.0610	-1.4842	-2.5453	-0.5498	-1.3460	-1.8958	-0.3963	-1.4580	-1.8543	60.7201	99.9965	
   689	-1.0425	-1.4568	-2.4993	-0.5053	-1.3324	-1.8377	-0.3521	-1.4544	-1.8065	60.8534	99.9967	
   690	-0.7355	-1.2518	-1.9874	-0.1732	-1.1417	-1.3149	-0.0190	-1.3539	-1.3728	61.2972	99.9975	
   691	-0.6480	-1.3258	-1.9738	-0.1662	-1.2615	-1.4277	-0.0846	-1.5040	-1.5886	61.3067	99.9976	
   692	-0.8315	-1.4388	-2.2704	-0.2588	-1.3462	-1.6049	-0.1065	-1.5540	-1.6605	61.4605	99.9975	
   693	-0.8096	-1.4892	-2.2989	-0.2615	-1.3892	-1.6507	-0.1654	-1.5910	-1.7563	61.2746	99.9979	
   694	-0.8872	-1.5210	-2.4082	-0.3429	-1.4118	-1.7547	-0.2496	-1.6318	-1.8814	61.2681	99.9980	
   695	-0.9473	-1.5420	-2.4894	-0.4016	-1.4204	-1.8220	-0.3242	-1.6183	-1.9425	61.0927	99.9981	
   696	-0.9549	-1.5307	-2.4858	-0.4007	-1.4060	-1.8068	-0.3096	-1.5849	-1.8946	61.0561	99.9979	
   697	-0.9583	-1.4529	-2.4113	-0.3669	-1.3300	-1.6969	-0.2747	-1.5267	-1.8013	61.1495	99.9982	
   698	-0.9922	-1.4578	-2.4500	-0.4492	-1.3669	-1.8161	-0.3916	-1.5880	-1.9796	61.1261	99.9982	
   699	-1.1309	-1.5272	-2.6582	-0.6063	-1.4361	-2.0424	-0.5331	-1.6407	-2.1738	61.0322	99.9979	
   700	-1.1069	-1.5444	-2.6513	-0.5694	-1.4271	-1.9965	-0.4947	-1.6286	-2.1233	60.9955	99.9981	
   701	-1.0894	-1.5336	-2.6231	-0.5609	-1.4081	-1.9690	-0.5316	-1.6156	-2.1472	60.8561	99.9984	
   702	-1.1299	-1.5106	-2.6405	-0.5791	-1.3503	-1.9295	-0.5286	-1.5653	-2.0939	60.8232	99.9984	
   703	-1.0862	-1.4837	-2.5699	-0.5337	-1.3224	-1.8561	-0.4763	-1.5325	-2.0087	60.8286	99.9984	
   704	-1.1091	-1.4499	-2.5591	-0.5698	-1.3170	-1.8867	-0.5270	-1.5402	-2.0672	60.8614	99.9984	
   705	-1.1846	-1.4484	-2.6330	-0.6721	-1.3248	-1.9969	-0.6459	-1.5303	-2.1762	60.6762	99.9983	
   706	-1.2295	-1.3642	-2.5937	-0.7330	-1.2519	-1.9850	-0.6914	-1.4500	-2.1414	60.5889	99.9981	
   707	-1.1804	-1.2540	-2.4345	-0.6974	-1.1472	-1.8446	-0.6114	-1.3756	-1.9870	60.7271	99.9977	
   708	-1.1367	-1.2271	-2.3639	-0.7040	-1.1375	-1.8415	-0.6687	-1.3874	-2.0562	60.6176	99.9978	
   709	-1.2426	-1.3083	-2.5511	-0.8269	-1.2408	-2.0677	-0.8126	-1.4778	-2.2904	60.5568	99.9978	
   710	-1.3759	-1.4223	-2.7983	-0.9640	-1.3390	-2.3030	-0.9491	-1.5515	-2.5006	60.4193	99.9977	
   711	-1.4688	-1.4316	-2.9005	-1.0134	-1.3143	-2.3276	-0.9657	-1.5136	-2.4792	60.3930	99.9978	
   712	-1.4568	-1.3763	-2.8332	-0.9871	-1.2429	-2.2300	-0.9488	-1.4425	-2.3913	60.3114	99.9980	
   713	-1.4732	-1.3704	-2.8437	-1.0543	-1.2705	-2.3248	-1.0403	-1.5000	-2.5403	60.3295	99.9979	
   714	-1.5737	-1.4961	-3.0699	-1.1932	-1.3974	-2.5906	-1.2545	-1.6105	-2.8650	60.0324	99.9983	
   715	-1.7910	-1.7418	-3.5328	-1.4282	-1.6664	-3.0947	-1.5606	-1.8874	-3.4480	59.9858	99.9986	
   716	-2.6087	-1.6699	-4.2787	-2.3193	-1.3736	-3.6929	-2.3669	-1.3907	-3.7576	57.9291	99.9974	
   717	-2.7150	-1.3678	-4.0829	-2.2199	-1.0640	-3.2839	-2.1094	-1.0838	-3.1932	58.5272	99.9975	
   718	-2.3872	-1.2299	-3.6172	-1.8345	-0.9508	-2.7853	-1.6974	-1.0304	-2.7278	59.1280	99.9978	
   719	-2.1128	-1.2687	-3.3816	-1.5489	-1.0370	-2.5860	-1.4033	-1.1600	-2.5633	59.6972	99.9978	
   720	-1.8853	-1.3844	-3.2698	-1.2821	-1.1900	-2.4720	-1.1116	-1.3272	-2.4388	60.2757	99.9978	
   721	-1.7661	-1.4867	-3.2529	-1.2087	-1.2966	-2.5053	-1.0981	-1.4154	-2.5135	60.1275	99.9979	
   722	-1.7552	-1.4481	-3.2034	-1.1237	-1.2166	-2.3403	-0.9462	-1.2958	-2.2420	60.1718	99.9977	
   723	-1.4186	-1.3048	-2.7236	-0.6920	-1.0611	-1.7531	-0.4223	-1.1600	-1.5823	60.7453	99.9976	
   724	-0.8406	-1.0608	-1.9016	-0.0605	-0.8515	-0.9120	 0.2235	-0.9839	-0.7604	61.2927	99.9978	
   725	-0.3206	-0.8046	-1.1252	 0.3587	-0.6622	-0.3035	 0.5182	-0.8955	-0.3773	61.4348	99.9983	
   726	-0.3794	-0.9367	-1.3163	 0.1660	-0.8361	-0.6701	 0.2717	-1.1229	-0.8511	61.3866	99.9980	
   727	-0.6788	-1.1530	-1.8318	-0.0628	-1.0047	-1.0675	 0.1010	-1.2422	-1.1412	61.3577	99.9980	
   728	-0.7005	-1.2303	-1.9309	-0.0900	-1.0904	-1.1804	-0.0205	-1.3790	-1.3995	61.3740	99.9984	
   729	-0.8764	-1.3545	-2.2310	-0.2783	-1.1926	-1.4708	-0.2520	-1.4641	-1.7161	61.0978	99.9985	
   730	-0.9704	-1.3804	-2.3509	-0.3664	-1.2055	-1.5718	-0.3470	-1.4754	-1.8225	61.0076	99.9985	
   731	-1.0305	-1.4015	-2.4320	-0.4411	-1.2377	-1.6789	-0.4313	-1.5163	-1.9475	60.9972	99.9985	
   732	-1.0949	-1.4890	-2.5840	-0.5222	-1.3705	-1.8926	-0.5223	-1.6702	-2.1925	61.1966	99.9986	
   733	-1.4411	-1.7821	-3.2233	-1.0447	-1.5819	-2.6266	-1.1633	-1.6620	-2.8252	59.4394	99.9986	
   734	-2.1531	-1.3735	-3.5267	-1.5520	-0.9699	-2.5219	-1.3173	-0.9850	-2.3023	59.1198	99.9974	
   735	-1.8538	-1.1573	-3.0112	-1.0976	-0.8004	-1.8980	-0.7876	-0.8577	-1.6453	59.9973	99.9978	
   736	-1.6409	-0.9782	-2.6192	-0.9107	-0.6024	-1.5131	-0.6993	-0.6450	-1.3443	59.5678	99.9983	
   737	-1.4913	-0.7423	-2.2338	-0.8896	-0.3825	-1.2721	-0.7560	-0.4389	-1.1949	59.0624	99.9982	
   738	-1.4007	-0.6386	-2.0394	-0.8397	-0.2828	-1.1225	-0.7072	-0.3598	-1.0670	59.0149	99.9980	
   739	-1.1799	-0.5986	-1.7786	-0.5470	-0.2542	-0.8011	-0.4056	-0.3637	-0.7693	59.4695	99.9983	
   740	-0.8891	-0.6433	-1.5325	-0.2195	-0.3699	-0.5894	-0.0588	-0.5569	-0.6156	60.3261	99.9983	
   741	-0.4168	-0.7360	-1.1529	 0.2684	-0.5936	-0.3252	 0.3739	-0.8894	-0.5155	61.4178	99.9984	
   742	-0.1936	-0.9182	-1.1120	 0.3840	-0.8398	-0.4558	 0.3934	-1.1915	-0.7982	61.6335	99.9984	
   743	-0.2722	-1.0944	-1.3667	 0.2558	-1.0292	-0.7734	 0.2688	-1.3786	-1.1097	61.6604	99.9983	
   744	-0.5135	-1.3229	-1.8365	-0.0456	-1.3115	-1.3571	 0.0070	-1.6519	-1.6448	61.8111	99.9979	
   745	-0.8741	-1.4490	-2.3232	-0.3153	-1.4362	-1.7515	-0.1026	-1.6966	-1.7992	62.0146	99.9967	
   746	-0.8206	-1.4001	-2.2208	-0.2530	-1.3702	-1.6232	-0.0364	-1.6429	-1.6794	62.0201	99.9969	
   747	-0.7375	-1.4129	-2.1505	-0.1725	-1.3620	-1.5344	 0.0078	-1.6393	-1.6315	61.9321	99.9974	
   748	-0.7812	-1.4398	-2.2211	-0.2018	-1.3663	-1.5681	-0.0299	-1.6388	-1.6687	61.8469	99.9976	
   749	-0.7463	-1.4182	-2.1646	-0.1328	-1.3100	-1.4428	 0.0362	-1.5852	-1.5489	61.8136	99.9979	
   750	-0.5605	-1.3997	-1.9603	 0.0736	-1.2656	-1.1919	 0.1986	-1.6040	-1.4054	61.9864	99.9981	
   751	-0.9598	-2.1250	-3.0849	-0.6845	-2.1052	-2.7898	-1.0766	-2.3087	-3.3853	60.1116	99.9995	
   752	-2.4675	-1.8227	-4.2903	-1.9505	-1.4086	-3.3590	-1.6221	-1.3458	-2.9679	59.0124	99.9948	
   753	-1.7159	-1.3600	-3.0760	-1.0123	-1.0652	-2.0776	-0.6563	-1.0774	-1.7336	60.2912	99.9961	
   754	-1.4342	-1.0268	-2.4611	-0.9018	-0.6936	-1.5954	-0.7242	-0.7453	-1.4695	59.3436	99.9972	
   755	-1.7249	-1.1098	-2.8348	-1.3553	-0.8487	-2.2040	-1.2738	-0.9940	-2.2678	59.1429	99.9972	
   756	-1.6636	-1.1999	-2.8636	-0.9224	-1.0237	-1.9461	-0.6496	-1.2787	-1.9283	61.3131	99.9980	
   757	-0.7135	-1.4300	-2.1436	-0.1222	-1.3724	-1.4946	 0.0425	-1.6901	-1.6476	62.1040	99.9978	
   758	-0.8237	-1.5778	-2.4016	-0.2344	-1.5381	-1.7725	-0.0398	-1.8022	-1.8420	62.1040	99.9973	
   759	-0.9264	-1.6091	-2.5356	-0.3906	-1.5930	-1.9836	-0.2663	-1.9083	-2.1746	62.0309	99.9977	
   760	-1.0729	-1.6672	-2.7402	-0.5392	-1.6431	-2.1824	-0.4202	-1.9566	-2.3768	61.9365	99.9978	
   761	-0.9789	-1.6414	-2.6203	-0.3537	-1.5840	-1.9377	-0.2140	-1.8754	-2.0894	62.0499	99.9982	
   762	-0.7678	-1.7511	-2.5190	-0.1628	-1.6734	-1.8363	-0.0684	-2.1707	-2.2391	62.7700	99.9971	
   763	-1.9882	-2.3267	-4.3150	-1.8222	-2.0333	-3.8555	-2.0284	-1.9275	-3.9558	57.7465	99.9968	
   764	-2.0054	-1.5542	-3.5597	-1.2211	-1.2629	-2.4840	-0.8192	-1.2765	-2.0958	60.5928	99.9964	
   765	-1.5663	-1.2519	-2.8182	-1.0176	-0.9167	-1.9343	-0.8218	-0.9034	-1.7252	59.3030	99.9967	
   766	-1.6944	-1.0271	-2.7216	-1.1991	-0.7939	-1.9930	-0.9576	-0.9645	-1.9221	59.9889	99.9965	
   767	-1.2274	-1.2031	-2.4306	-0.5385	-1.0493	-1.5878	-0.2060	-1.3263	-1.5323	61.7562	99.9972	
   768	-0.5189	-1.4061	-1.9251	 0.0032	-1.4607	-1.4575	 0.1918	-1.7171	-1.5254	62.2735	99.9960	
   769	-0.7549	-1.5514	-2.3064	-0.1984	-1.5435	-1.7419	-0.0275	-1.8065	-1.8340	62.0960	99.9971	
   770	-0.8598	-1.6160	-2.4758	-0.3176	-1.5894	-1.9070	-0.1567	-1.8636	-2.0203	62.0010	99.9973	
   771	-0.8947	-1.6375	-2.5323	-0.3176	-1.5894	-1.9070	-0.1690	-1.8592	-2.0282	61.9616	99.9977	
   772	-0.8619	-1.6492	-2.5113	-0.3101	-1.5848	-1.8948	-0.1698	-1.8718	-2.0416	61.9140	99.9977	
   773	-1.0397	-2.0623	-3.1021	-0.5600	-2.2079	-2.7679	-0.9207	-2.5371	-3.4577	61.6454	99.9996	
   774	-2.5428	-1.9490	-4.4919	-2.0288	-1.4982	-3.5271	-1.6890	-1.4120	-3.1010	58.8857	99.9947	
   775	-1.8240	-1.4745	-3.2986	-1.2051	-1.2392	-2.4443	-0.9389	-1.2792	-2.2181	60.1897	99.9963	
   776	-1.8723	-1.3124	-3.1848	-1.3443	-1.0213	-2.3656	-1.1037	-1.0926	-2.1963	59.6542	99.9964	
   777	-1.7552	-1.4481	-3.2034	-1.1291	-1.3027	-2.4318	-0.8576	-1.4940	-2.3516	61.0696	99.9970	
   778	-1.3430	-1.5619	-2.9049	-0.7038	-1.4823	-2.1861	-0.4415	-1.7886	-2.2301	62.0593	99.9974	
   779	-0.8805	-1.6766	-2.5572	-0.0756	-1.6749	-1.7505	 0.1246	-1.8923	-1.7678	62.6479	99.9983	
   780	-0.7940	-1.7673	-2.5614	-0.1731	-1.7212	-1.8943	-0.0215	-2.0204	-2.0420	62.3565	99.9980	
   781	-0.9109	-1.8871	-2.7981	-0.3583	-1.8904	-2.2487	-0.2873	-2.1512	-2.4384	62.0664	99.9980	
   782	-0.9458	-1.9086	-2.8546	-0.3801	-1.8901	-2.2702	-0.3169	-2.1214	-2.4384	61.8956	99.9981	
   783	-0.9589	-1.9806	-2.9396	-0.3637	-1.9766	-2.3402	-0.2776	-2.3022	-2.5798	62.4590	99.9983	
   784	-1.4195	-2.6158	-4.0354	-1.3562	-2.4914	-3.8475	-1.5470	-2.4955	-4.0425	59.1232	99.9949	
   785	-2.0183	-1.7539	-3.7723	-1.2422	-1.4828	-2.7250	-0.8126	-1.4778	-2.2904	60.8021	99.9955	
   786	-1.3124	-1.4791	-2.7917	-0.5844	-1.2018	-1.7862	-0.3042	-1.1825	-1.4867	60.4689	99.9968	
   787	-1.4198	-1.1937	-2.6136	-0.9001	-0.8995	-1.7997	-0.6721	-1.0269	-1.6989	59.9726	99.9968	
   788	-1.4490	-1.5153	-2.9644	-0.9373	-1.3778	-2.3151	-0.8129	-1.5868	-2.3997	60.7689	99.9976	
   789	-0.9515	-1.7363	-2.6879	-0.2300	-1.7010	-1.9311	 0.1027	-1.9424	-1.8397	62.7373	99.9967	
   790	-0.6770	-1.7751	-2.4523	-0.0232	-1.7668	-1.7900	 0.1655	-2.0480	-1.8825	62.6707	99.9978	
   791	-0.8147	-1.8279	-2.6428	-0.2239	-1.8352	-2.0591	-0.0857	-2.1454	-2.2311	62.5172	99.9979	
   792	-0.9797	-1.9135	-2.8933	-0.3961	-1.9137	-2.3099	-0.2846	-2.2099	-2.4944	62.3327	99.9980	
   793	-0.9895	-1.9355	-2.9252	-0.3876	-1.8947	-2.2824	-0.2584	-2.1934	-2.4519	62.2967	99.9981	
   794	-0.9719	-2.0526	-3.0246	-0.3784	-2.0960	-2.4744	-0.3451	-2.5864	-2.9315	63.1371	99.9980	
   795	-1.8234	-2.1133	-3.9368	-1.4897	-1.7181	-3.2077	-1.3445	-1.6428	-2.9874	58.7705	99.9949	
   796	-1.8468	-1.6962	-3.5431	-1.1959	-1.4405	-2.6363	-0.8749	-1.4686	-2.3435	60.4610	99.9959	
   797	-1.8653	-1.7236	-3.5890	-1.2778	-1.5876	-2.8654	-1.0289	-1.8314	-2.8603	61.2986	99.9972	
   798	-1.5851	-2.0625	-3.6478	-0.7530	-2.0370	-2.7900	-0.3568	-2.3641	-2.7208	63.3725	99.9975	
   799	-1.0639	-1.9174	-2.9814	-0.4709	-1.9460	-2.4169	-0.2891	-2.2853	-2.5744	62.7274	99.9976	
   800	-1.0541	-1.8954	-2.9495	-0.4842	-1.9266	-2.4108	-0.3326	-2.2763	-2.6089	62.6330	99.9977	
   801	-1.0628	-1.9008	-2.9637	-0.5354	-1.9305	-2.4659	-0.4092	-2.1915	-2.6007	62.1499	99.9971	
   802	-1.0464	-1.9066	-2.9531	-0.3440	-1.8955	-2.2395	-0.1503	-2.1739	-2.3242	62.6640	99.9981	
   803	-1.4234	-2.0269	-3.4504	-0.9505	-1.9379	-2.8884	-0.9391	-2.1134	-3.0525	60.8974	99.9980	
   804	-1.9546	-2.0663	-4.0210	-1.3505	-1.9359	-3.2865	-1.0433	-2.0701	-3.1135	61.3533	99.9957	
   805	-1.0901	-1.9335	-3.0237	-0.4424	-1.9561	-2.3985	-0.2622	-2.2563	-2.5185	62.6927	99.9978	
   806	-1.0967	-1.9056	-3.0024	-0.3783	-1.8614	-2.2397	-0.2076	-2.1857	-2.3933	62.6605	99.9984	
   807	-1.0180	-1.8572	-2.8753	-0.3765	-1.8327	-2.2092	-0.1850	-2.1231	-2.3081	62.4844	99.9978	
   808	-0.9470	-1.7975	-2.7447	-0.2839	-1.7480	-2.0319	-0.0854	-2.0364	-2.1218	62.4507	99.9979	
   809	-0.8771	-1.7545	-2.6317	-0.1855	-1.6874	-1.8730	-0.0104	-1.9409	-1.9514	62.2862	99.9982	
   810	-0.9230	-1.8147	-2.7377	-0.2830	-1.7337	-2.0167	-0.0389	-1.9950	-2.0339	62.3294	99.9974	
   811	-0.9589	-1.9806	-2.9396	-0.2462	-1.9594	-2.2056	 0.0206	-2.2599	-2.2394	63.0202	99.9976	
   812	-1.3554	-2.2726	-3.6281	-0.7211	-2.2243	-2.9454	-0.5464	-2.4832	-3.0295	62.3789	99.9979	
   813	-1.6200	-2.2118	-3.8319	-0.9395	-2.1105	-3.0500	-0.7019	-2.3512	-3.0531	62.1750	99.9978	
   814	-1.4757	-2.1869	-3.6627	-0.7121	-2.0808	-2.7929	-0.4103	-2.3131	-2.7234	62.5479	99.9977	
   815	-1.1249	-2.0828	-3.2079	-0.3116	-1.9583	-2.2699	 0.0070	-2.1717	-2.1647	62.7009	99.9978	
   816	-0.7971	-1.9449	-2.7422	 0.0613	-1.8113	-1.7500	 0.4070	-2.0050	-1.5980	62.8517	99.9978	
   817	-0.5152	-1.8673	-2.3825	 0.3484	-1.7587	-1.4103	 0.6805	-1.9540	-1.2735	63.0280	99.9978	
   818	-0.3611	-1.8203	-2.1815	 0.5046	-1.7039	-1.1993	 0.8706	-1.9313	-1.0607	63.2468	99.9977	
   819	-0.2812	-1.8830	-2.1644	 0.5201	-1.8047	-1.2846	 0.7949	-2.0393	-1.2445	63.1442	99.9980	
   820	-0.3260	-1.9266	-2.2527	 0.5116	-1.8237	-1.3121	 0.7991	-2.0729	-1.2738	63.2332	99.9982	
   821	-0.3030	-1.9604	-2.2635	 0.4862	-1.8808	-1.3945	 0.7315	-2.1517	-1.4202	63.2213	99.9982	
   822	-0.3041	-1.9770	-2.2812	 0.5450	-1.8722	-1.3272	 0.7961	-2.1232	-1.3271	63.2305	99.9985	
   823	-0.1937	-1.9570	-2.1508	 0.6606	-1.8837	-1.2231	 0.9069	-2.1623	-1.2554	63.4857	99.9985	
   824	-0.2581	-2.0446	-2.3028	 0.5738	-1.9924	-1.4186	 0.7985	-2.2909	-1.4924	63.5622	99.9985	
   825	-0.4165	-2.1581	-2.5747	 0.4065	-2.1093	-1.7028	 0.6278	-2.4103	-1.7825	63.5558	99.9985	
   826	-0.4460	-2.2242	-2.6702	 0.3895	-2.1473	-1.7578	 0.6270	-2.4228	-1.7958	63.4740	99.9985	
   827	-0.3531	-2.2149	-2.5681	 0.5052	-2.1588	-1.6536	 0.7336	-2.4284	-1.6948	63.6051	99.9986	
   828	-0.2623	-2.2389	-2.5013	 0.5991	-2.1700	-1.5709	 0.8475	-2.4173	-1.5698	63.6106	99.9985	
   829	-0.1115	-2.2420	-2.3535	 0.7659	-2.1776	-1.4117	 1.0171	-2.4195	-1.4024	63.7433	99.9985	
   830	-0.0612	-2.2430	-2.3042	 0.8020	-2.1830	-1.3810	 1.0606	-2.4284	-1.3678	63.7860	99.9984	
   831	-0.0109	-2.2440	-2.2549	 0.8238	-2.1834	-1.3596	 1.0671	-2.4243	-1.3572	63.6984	99.9983	
   832	 0.0219	-2.2557	-2.2339	 0.8447	-2.1981	-1.3534	 1.0664	-2.4369	-1.3705	63.6534	99.9984	
   833	 0.0296	-2.2670	-2.2375	 0.8362	-2.2171	-1.3809	 1.0591	-2.4536	-1.3945	63.6518	99.9983	
   834	 0.0208	-2.2724	-2.2516	 0.8496	-2.2365	-1.3869	 1.0895	-2.4707	-1.3812	63.7824	99.9982	
   835	 0.0875	-2.2793	-2.1918	 0.9225	-2.2329	-1.3104	 1.1772	-2.4761	-1.2988	63.8706	99.9982	
   836	 0.1476	-2.2582	-2.1107	 0.9670	-2.2193	-1.2523	 1.2157	-2.4640	-1.2483	63.8699	99.9981	
   837	 0.1826	-2.2367	-2.0542	 1.0040	-2.2104	-1.2064	 1.2230	-2.4473	-1.2243	63.8258	99.9983	
   838	 0.2263	-2.2098	-1.9836	 1.0133	-2.1770	-1.1637	 1.2245	-2.4222	-1.1977	63.7381	99.9982	
   839	 0.2525	-2.1937	-1.9413	 1.0133	-2.1770	-1.1637	 1.2230	-2.4473	-1.2243	63.8201	99.9981	
   840	 0.2318	-2.2544	-2.0227	 1.0022	-2.2391	-1.2369	 1.2076	-2.4932	-1.2856	63.8201	99.9981	
   841	 0.2198	-2.3097	-2.0900	 1.0271	-2.3065	-1.2795	 1.2546	-2.5483	-1.2937	63.9948	99.9981	
   842	 0.1806	-2.3978	-2.2173	 0.9999	-2.3923	-1.3924	 1.2493	-2.6363	-1.3870	64.1237	99.9980	
   843	 0.1085	-2.4741	-2.3657	 0.9451	-2.4536	-1.5085	 1.2208	-2.6904	-1.4696	64.1683	99.9979	
   844	 0.0987	-2.4961	-2.3976	 0.9954	-2.4641	-1.4687	 1.2782	-2.6786	-1.4004	64.2162	99.9982	
   845	 0.2451	-2.4379	-2.1930	 1.1600	-2.3902	-1.2302	 1.4778	-2.6015	-1.1237	64.3079	99.9980	
   846	 0.3664	-2.3793	-2.0130	 1.2717	-2.3490	-1.0772	 1.5932	-2.5653	-0.9721	64.3937	99.9979	
   847	 0.4407	-2.3974	-1.9568	 1.3060	-2.3831	-1.0771	 1.6402	-2.6204	-0.9802	64.5191	99.9975	
   848	 0.3872	-2.4463	-2.0592	 1.2446	-2.4347	-1.1902	 1.5378	-2.6484	-1.1106	64.3461	99.9977	
   849	 0.2921	-2.4889	-2.1968	 1.1338	-2.4616	-1.3278	 1.4297	-2.6680	-1.2382	64.2168	99.9976	
   850	 0.2233	-2.5153	-2.2921	 1.0675	-2.4748	-1.4074	 1.3674	-2.6588	-1.2914	64.0897	99.9975	
   851	 0.1730	-2.5143	-2.3414	 1.0238	-2.4741	-1.4503	 1.3058	-2.6370	-1.3312	63.9613	99.9976	
   852	 0.1391	-2.5192	-2.3801	 0.9878	-2.4687	-1.4809	 1.2870	-2.6368	-1.3498	63.9620	99.9975	
   853	 0.1227	-2.5133	-2.3906	 0.9811	-2.4590	-1.4779	 1.3001	-2.6286	-1.3285	64.0065	99.9974	
   854	 0.1479	-2.5138	-2.3660	 0.9963	-2.4497	-1.4534	 1.3262	-2.6121	-1.2859	63.9653	99.9972	
   855	 0.1391	-2.5192	-2.3801	 1.0038	-2.4450	-1.4412	 1.3089	-2.5867	-1.2779	63.8385	99.9975	
   856	 0.1227	-2.5133	-2.3906	 0.9763	-2.4206	-1.4444	 1.2973	-2.5698	-1.2725	63.7968	99.9974	
   857	 0.1151	-2.5020	-2.3870	 0.9838	-2.4160	-1.4321	 1.2858	-2.5529	-1.2671	63.7543	99.9976	
   858	 0.1085	-2.4741	-2.3657	 0.9856	-2.3873	-1.4016	 1.2873	-2.5278	-1.2405	63.7551	99.9977	
   859	 0.1424	-2.4692	-2.3270	 0.9865	-2.3729	-1.3864	 1.2880	-2.5152	-1.2272	63.6687	99.9975	
   860	 0.1347	-2.4580	-2.3234	 0.9941	-2.3683	-1.3742	 1.3069	-2.5155	-1.2086	63.7551	99.9975	
   861	 0.1434	-2.4526	-2.3092	 1.0017	-2.3636	-1.3619	 1.3011	-2.5070	-1.2059	63.7119	99.9976	
   862	 0.1096	-2.4575	-2.3480	 0.9799	-2.3632	-1.3834	 1.2888	-2.5026	-1.2138	63.7134	99.9976	
   863	 0.1183	-2.4521	-2.3339	 0.9665	-2.3438	-1.3773	 1.2838	-2.4816	-1.1978	63.6285	99.9974	
   864	 0.1358	-2.4413	-2.3056	 0.9892	-2.3299	-1.3406	 1.2976	-2.4608	-1.1632	63.5869	99.9975	
   865	 0.1369	-2.4247	-2.2879	 0.9977	-2.3108	-1.3132	 1.3180	-2.4359	-1.1179	63.5893	99.9974	
   866	 0.1816	-2.3811	-2.1996	 1.0449	-2.2542	-1.2093	 1.3660	-2.3695	-1.0034	63.5078	99.9974	
   867	 0.2690	-2.3273	-2.0584	 1.1290	-2.1885	-1.0595	 1.4518	-2.3035	-0.8517	63.4688	99.9974	
   868	 0.2897	-2.2666	-1.9770	 1.1268	-2.1071	-0.9803	 1.4629	-2.2240	-0.7611	63.3438	99.9972	
   869	 0.2766	-2.2108	-1.9343	 1.1304	-2.0497	-0.9193	 1.4667	-2.1612	-0.6945	63.3043	99.9973	
   870	 0.2864	-2.1888	-1.9025	 1.1322	-2.0210	-0.8888	 1.4805	-2.1404	-0.6599	63.3051	99.9972	
   871	 0.2962	-2.1668	-1.8707	 1.1416	-1.9876	-0.8460	 1.4770	-2.0942	-0.6172	63.1796	99.9973	
   872	 0.2907	-2.1222	-1.8316	 1.1661	-1.9449	-0.7789	 1.5055	-2.0401	-0.5346	63.1842	99.9974	
   873	 0.3421	-2.1066	-1.7646	 1.2333	-1.9173	-0.6841	 1.5831	-2.0034	-0.4202	63.1897	99.9974	
   874	 0.4109	-2.0802	-1.6694	 1.2778	-1.9037	-0.6259	 1.6324	-2.0208	-0.3884	63.3130	99.9973	
   875	 0.4032	-2.0689	-1.6658	 1.2417	-1.8983	-0.6566	 1.5758	-2.0200	-0.4442	63.2235	99.9973	
   876	 0.3868	-2.0630	-1.6763	 1.2133	-1.8883	-0.6750	 1.5381	-2.0196	-0.4814	63.1787	99.9974	
   877	 0.3704	-2.0572	-1.6868	 1.1839	-1.8926	-0.7087	 1.4881	-2.0147	-0.5266	63.0906	99.9974	
   878	 0.3376	-2.0454	-1.7079	 1.1479	-1.8872	-0.7393	 1.4446	-2.0058	-0.5611	63.0465	99.9974	
   879	 0.3212	-2.0395	-1.7184	 1.1270	-1.8724	-0.7455	 1.4389	-1.9973	-0.5584	63.0474	99.9973	
   880	 0.3464	-2.0400	-1.6937	 1.1421	-1.8631	-0.7210	 1.4643	-1.9934	-0.5292	63.0484	99.9972	
   881	 0.3464	-2.0400	-1.6937	 1.1421	-1.8631	-0.7210	 1.4396	-1.9847	-0.5451	62.9620	99.9974	
   882	 0.3300	-2.0341	-1.7043	 1.1203	-1.8627	-0.7425	 1.4208	-1.9845	-0.5637	62.9610	99.9973	
   883	 0.3048	-2.0336	-1.7289	 1.1127	-1.8674	-0.7547	 1.3961	-1.9758	-0.5797	62.9188	99.9975	
   884	 0.2884	-2.0277	-1.7394	 1.0767	-1.8620	-0.7853	 1.3708	-1.9797	-0.6089	62.9168	99.9973	
   885	 0.2622	-2.0439	-1.7818	 1.0397	-1.8710	-0.8312	 1.3265	-1.9833	-0.6568	62.8301	99.9973	
   886	 0.2207	-2.0375	-1.8169	 1.0255	-1.8659	-0.8404	 1.3273	-1.9707	-0.6434	62.8765	99.9973	
   887	 0.2294	-2.0321	-1.8028	 1.0264	-1.8516	-0.8252	 1.3288	-1.9456	-0.6168	62.7931	99.9972	
   888	 0.2217	-2.0209	-1.7992	 1.0197	-1.8419	-0.8222	 1.3049	-1.9243	-0.6194	62.7076	99.9973	
   889	 0.2141	-2.0096	-1.7956	 0.9997	-1.8128	-0.8131	 1.3122	-1.9076	-0.5954	62.7098	99.9971	
   890	 0.2064	-1.9983	-1.7920	 0.9864	-1.7934	-0.8070	 1.2949	-1.8823	-0.5874	62.6254	99.9971	
   891	 0.1987	-1.9871	-1.7884	 0.9731	-1.7741	-0.8010	 1.2833	-1.8654	-0.5820	62.5832	99.9971	
   892	 0.1834	-1.9645	-1.7812	 0.9530	-1.7450	-0.7919	 1.2725	-1.8359	-0.5633	62.5421	99.9970	
   893	 0.2020	-1.9371	-1.7353	 0.9984	-1.7170	-0.7186	 1.3125	-1.7987	-0.4861	62.5466	99.9972	
   894	 0.2293	-1.9044	-1.6752	 1.0296	-1.6840	-0.6544	 1.3518	-1.7740	-0.4222	62.5910	99.9972	
   895	 0.2391	-1.8823	-1.6433	 1.0238	-1.6600	-0.6361	 1.3410	-1.7445	-0.4036	62.5057	99.9971	
   896	 0.2238	-1.8598	-1.6361	 1.0247	-1.6456	-0.6209	 1.3352	-1.7361	-0.4009	62.5478	99.9973	
   897	 0.2074	-1.8539	-1.6467	 1.0029	-1.6453	-0.6423	 1.3163	-1.7358	-0.4195	62.5466	99.9972	
   898	 0.1822	-1.8534	-1.6713	 0.9745	-1.6352	-0.6607	 1.2917	-1.7271	-0.4354	62.5045	99.9972	
   899	 0.1735	-1.8588	-1.6854	 0.9669	-1.6399	-0.6730	 1.2794	-1.7228	-0.4434	62.4624	99.9972	
   900	 0.1658	-1.8475	-1.6818	 0.9678	-1.6255	-0.6577	 1.2925	-1.7145	-0.4221	62.5068	99.9972	
   901	 0.1658	-1.8475	-1.6818	 0.9678	-1.6255	-0.6577	 1.2925	-1.7145	-0.4221	62.5068	99.9972	
   902	 0.1571	-1.8529	-1.6959	 0.9393	-1.6154	-0.6761	 1.2555	-1.7015	-0.4460	62.3782	99.9972	
   903	 0.1417	-1.8304	-1.6887	 0.9260	-1.5961	-0.6701	 1.2382	-1.6761	-0.4379	62.3360	99.9972	
   904	 0.1439	-1.7971	-1.6533	 0.9353	-1.5627	-0.6273	 1.2462	-1.6469	-0.4006	62.3372	99.9973	
   905	 0.1373	-1.7692	-1.6320	 0.9220	-1.5433	-0.6213	 1.2282	-1.6341	-0.4059	62.3348	99.9973	
   906	 0.1209	-1.7633	-1.6425	 0.9144	-1.5480	-0.6335	 1.2282	-1.6341	-0.4059	62.3782	99.9972	
   907	 0.1362	-1.7858	-1.6497	 0.9211	-1.5577	-0.6366	 1.2462	-1.6469	-0.4006	62.3793	99.9971	
   908	 0.1188	-1.7966	-1.6779	 0.8993	-1.5573	-0.6580	 1.2158	-1.6297	-0.4139	62.2530	99.9971	
   909	 0.1111	-1.7853	-1.6743	 0.8926	-1.5476	-0.6550	 1.2101	-1.6213	-0.4112	62.2530	99.9971	
   910	 0.0958	-1.7628	-1.6671	 0.8869	-1.5236	-0.6367	 1.1927	-1.5959	-0.4032	62.2109	99.9973	
   911	 0.0892	-1.7349	-1.6458	 0.8669	-1.4945	-0.6276	 1.1877	-1.5749	-0.3871	62.2109	99.9971	
   912	 0.0903	-1.7183	-1.6281	 0.8678	-1.4801	-0.6124	 1.1827	-1.5538	-0.3711	62.1688	99.9971	
   913	 0.1077	-1.7075	-1.5999	 0.8838	-1.4565	-0.5727	 1.2031	-1.5289	-0.3259	62.1293	99.9971	
   914	 0.1012	-1.6796	-1.5785	 0.8847	-1.4421	-0.5574	 1.1973	-1.5205	-0.3232	62.1701	99.9972	
   915	 0.0837	-1.6904	-1.6068	 0.8620	-1.4561	-0.5941	 1.1588	-1.5326	-0.3737	62.1242	99.9973	
   916	 0.0575	-1.7065	-1.6491	 0.8175	-1.4697	-0.6522	 1.1204	-1.5446	-0.4243	62.0794	99.9971	
   917	 0.0236	-1.7114	-1.6879	 0.7806	-1.4787	-0.6981	 1.1008	-1.5570	-0.4562	62.1216	99.9969	
   918	 0.0072	-1.7055	-1.6984	 0.7596	-1.4639	-0.7043	 1.0638	-1.5439	-0.4801	62.0347	99.9971	
   919	-0.0005	-1.6942	-1.6948	 0.7605	-1.4496	-0.6890	 1.0776	-1.5231	-0.4455	62.0386	99.9970	
   920	 0.0093	-1.6722	-1.6630	 0.7766	-1.4259	-0.6493	 1.0799	-1.4854	-0.4055	61.9557	99.9971	
   921	-0.0071	-1.6663	-1.6735	 0.7481	-1.4159	-0.6678	 1.0488	-1.4808	-0.4321	61.9108	99.9971	
   922	-0.0574	-1.6653	-1.7228	 0.6969	-1.4198	-0.7229	 0.9857	-1.4842	-0.4986	61.8646	99.9972	
   923	-0.1153	-1.6530	-1.7685	 0.6182	-1.3993	-0.7811	 0.9118	-1.4581	-0.5463	61.7352	99.9970	
   924	-0.1722	-1.6241	-1.7964	 0.5697	-1.3602	-0.7905	 0.8887	-1.4243	-0.5356	61.7394	99.9969	
   925	-0.2028	-1.5791	-1.7820	 0.5515	-1.3024	-0.7509	 0.8555	-1.3484	-0.4929	61.5737	99.9971	
   926	-0.2007	-1.5458	-1.7466	 0.5618	-1.2547	-0.6929	 0.8709	-1.3025	-0.4316	61.5360	99.9972	
   927	-0.3363	-1.4375	-1.7740	 0.4154	-1.1516	-0.7362	 0.7246	-1.2251	-0.5005	61.4442	99.9973	
   928	-0.4576	-1.4962	-1.9539	 0.2859	-1.2452	-0.9593	 0.5620	-1.3153	-0.7533	61.4275	99.9974	
   929	-0.5099	-1.6563	-2.1663	 0.2960	-1.4322	-1.1361	 0.6425	-1.5427	-0.9001	62.0691	99.9973	
   930	-0.3009	-1.9271	-2.2281	 0.5477	-1.8291	-1.2815	 0.8472	-2.0065	-1.1593	63.0705	99.9979	
   931	-0.2438	-2.2115	-2.4554	 0.5025	-2.2019	-1.6994	 0.7894	-2.4417	-1.6523	63.6019	99.9971	
   932	-0.2240	-2.2953	-2.5193	 0.5465	-2.3128	-1.7663	 0.8587	-2.5432	-1.6845	63.8616	99.9968	
   933	-0.1617	-2.2409	-2.4028	 0.6373	-2.2569	-1.6196	 0.9118	-2.4978	-1.5860	63.8623	99.9976	
   934	-0.1093	-2.2087	-2.3181	 0.6987	-2.2052	-1.5065	 0.9337	-2.4478	-1.5141	63.7337	99.9981	
   935	-0.1246	-2.1861	-2.3109	 0.7072	-2.1862	-1.4790	 0.9213	-2.4434	-1.5221	63.7758	99.9985	
   936	-0.1355	-2.2248	-2.3604	 0.6618	-2.2142	-1.5524	 0.8618	-2.4929	-1.6312	63.7277	99.9985	
   937	-0.2393	-2.2727	-2.5121	 0.5568	-2.2651	-1.7083	 0.7652	-2.5294	-1.7642	63.6832	99.9984	
   938	-0.2349	-2.3339	-2.5689	 0.5750	-2.3229	-1.7479	 0.8022	-2.5425	-1.7403	63.6448	99.9981	
   939	-0.2842	-2.1885	-2.4728	 0.4256	-2.1527	-1.7271	 0.5504	-2.3380	-1.7876	62.8125	99.9982	
   940	-0.3806	-1.9922	-2.3729	 0.2086	-1.9000	-1.6914	 0.3490	-2.0294	-1.6804	61.9473	99.9971	
   941	-0.4135	-1.8526	-2.2663	 0.1824	-1.7367	-1.5543	 0.3531	-1.8576	-1.5045	61.7862	99.9969	
   942	-0.4081	-1.7694	-2.1777	 0.1869	-1.6650	-1.4781	 0.3503	-1.7988	-1.4485	61.7848	99.9970	
   943	-0.4301	-1.7190	-2.1491	 0.1469	-1.6068	-1.4600	 0.3345	-1.7483	-1.4138	61.7432	99.9967	
   944	-0.3885	-1.7254	-2.1140	 0.2038	-1.6270	-1.4231	 0.4019	-1.7785	-1.3767	61.9180	99.9967	
   945	-0.3065	-1.7548	-2.0614	 0.2959	-1.6668	-1.3709	 0.4873	-1.8216	-1.3343	62.0484	99.9968	
   946	-0.2814	-1.7553	-2.0367	 0.3101	-1.6719	-1.3617	 0.4742	-1.8298	-1.3555	62.0000	99.9970	
   947	-0.3076	-1.7714	-2.0791	 0.2581	-1.6901	-1.4321	 0.4235	-1.8375	-1.4141	61.9097	99.9966	
   948	-0.3568	-1.7538	-2.1107	 0.2029	-1.6413	-1.4384	 0.3707	-1.7739	-1.4032	61.6973	99.9966	
   949	-0.4017	-1.6695	-2.0713	 0.1714	-1.5642	-1.3928	 0.3622	-1.7068	-1.3446	61.7447	99.9965	
   950	-0.4104	-1.6749	-2.0855	 0.1638	-1.5688	-1.4050	 0.3622	-1.7068	-1.3446	61.7461	99.9964	
   951	-0.4181	-1.6637	-2.0819	 0.1580	-1.5448	-1.3867	 0.3579	-1.6732	-1.3152	61.6631	99.9964	
   952	-0.4159	-1.6304	-2.0464	 0.1532	-1.5064	-1.3532	 0.3471	-1.6437	-1.2965	61.6186	99.9966	
   953	-0.4138	-1.5971	-2.0110	 0.1634	-1.4587	-1.2952	 0.3690	-1.5937	-1.2246	61.5817	99.9966	
   954	-0.3679	-1.5369	-1.9049	 0.2182	-1.3973	-1.1791	 0.4359	-1.5274	-1.0915	61.5891	99.9965	
   955	-0.3396	-1.4875	-1.8271	 0.2502	-1.3500	-1.0997	 0.4513	-1.4815	-1.0302	61.5463	99.9967	
   956	-0.3210	-1.4601	-1.7812	 0.2663	-1.3263	-1.0600	 0.4528	-1.4564	-1.0036	61.5020	99.9968	
   957	-0.3581	-1.5149	-1.8731	 0.2164	-1.4260	-1.2096	 0.3952	-1.5772	-1.1820	61.7031	99.9967	
   958	-0.4313	-1.6079	-2.0392	 0.1389	-1.5013	-1.3624	 0.3290	-1.6309	-1.3018	61.6172	99.9964	
   959	-0.4760	-1.6514	-2.1275	 0.0984	-1.5677	-1.4693	 0.2875	-1.6932	-1.4057	61.6987	99.9962	
   960	-0.5055	-1.7175	-2.2231	 0.0521	-1.6100	-1.5579	 0.2606	-1.7222	-1.4616	61.6142	99.9958	
   961	-0.5121	-1.6896	-2.2017	 0.0615	-1.5767	-1.5152	 0.2694	-1.6804	-1.4110	61.5757	99.9960	
   962	-0.4760	-1.6514	-2.1275	 0.1011	-1.5247	-1.4236	 0.3283	-1.6434	-1.3152	61.6246	99.9960	
   963	-0.4334	-1.6411	-2.0747	 0.1456	-1.5110	-1.3654	 0.3675	-1.6188	-1.2513	61.5847	99.9960	
   964	-0.3886	-1.5976	-1.9863	 0.2079	-1.4450	-1.2371	 0.4417	-1.5359	-1.0942	61.5111	99.9960	
   965	-0.3068	-1.4992	-1.8061	 0.2881	-1.3267	-1.0386	 0.5051	-1.4235	-0.9184	61.3875	99.9965	
   966	-0.2598	-1.4224	-1.6823	 0.3504	-1.2607	-0.9103	 0.5531	-1.3571	-0.8039	61.3906	99.9967	
   967	-0.2161	-1.3955	-1.6117	 0.3882	-1.2374	-0.8491	 0.6105	-1.3452	-0.7348	61.4790	99.9965	
   968	-0.1986	-1.3847	-1.5835	 0.3967	-1.2184	-0.8217	 0.5931	-1.3199	-0.7267	61.3479	99.9967	
   969	-0.2391	-1.3617	-1.6009	 0.3549	-1.1889	-0.8340	 0.5569	-1.2942	-0.7373	61.3052	99.9967	
   970	-0.2118	-1.3289	-1.5409	 0.4003	-1.1610	-0.7607	 0.5904	-1.2611	-0.6707	61.3084	99.9969	
   971	-0.1845	-1.2961	-1.4808	 0.4239	-1.1326	-0.7087	 0.6108	-1.2362	-0.6255	61.3084	99.9969	
   972	-0.1747	-1.2741	-1.4489	 0.4324	-1.1136	-0.6812	 0.6238	-1.2280	-0.6042	61.3510	99.9969	
   973	-0.1834	-1.2795	-1.4631	 0.4181	-1.1086	-0.6905	 0.6050	-1.2278	-0.6228	61.3068	99.9971	
   974	-0.1988	-1.2570	-1.4559	 0.4115	-1.0989	-0.6874	 0.6000	-1.2068	-0.6068	61.3084	99.9969	
   975	-0.1900	-1.2516	-1.4417	 0.4199	-1.0799	-0.6600	 0.6073	-1.1901	-0.5828	61.2673	99.9971	
   976	-0.1988	-1.2570	-1.4559	 0.3981	-1.0795	-0.6814	 0.5884	-1.1898	-0.6014	61.2231	99.9969	
   977	-0.1890	-1.2350	-1.4240	 0.4426	-1.0659	-0.6233	 0.6465	-1.1654	-0.5189	61.3179	99.9969	
   978	-0.1562	-1.2467	-1.4030	 0.4568	-1.0709	-0.6141	 0.6457	-1.1780	-0.5323	61.2705	99.9971	
   979	-0.2173	-1.2844	-1.5018	 0.3821	-1.1032	-0.7211	 0.5746	-1.2106	-0.6360	61.2231	99.9969	
   980	-0.2600	-1.2946	-1.5547	 0.3669	-1.1125	-0.7455	 0.5746	-1.2106	-0.6360	61.2721	99.9969	
   981	-0.2501	-1.2726	-1.5229	 0.3830	-1.0888	-0.7058	 0.5769	-1.1729	-0.5961	61.1886	99.9970	
   982	-0.2491	-1.2560	-1.5051	 0.3696	-1.0694	-0.6998	 0.5588	-1.1601	-0.6013	61.1427	99.9971	
   983	-0.2840	-1.2775	-1.5616	 0.3176	-1.0877	-0.7701	 0.5303	-1.2142	-0.6839	61.2658	99.9970	
   984	-0.4096	-1.4028	-1.8125	 0.2054	-1.2534	-1.0481	 0.3877	-1.3885	-1.0007	61.4194	99.9973	
   985	-0.5373	-1.5613	-2.0987	 0.1083	-1.4098	-1.3016	 0.3032	-1.5383	-1.2351	61.5463	99.9974	
   986	-0.6597	-1.6366	-2.2964	-0.0497	-1.4934	-1.5431	 0.0897	-1.6362	-1.5464	61.3929	99.9977	
   987	-0.9898	-1.6800	-2.6699	-0.4942	-1.5050	-1.9992	-0.3735	-1.6009	-1.9744	60.6280	99.9969	
   988	-1.3243	-1.6622	-2.9866	-0.6517	-1.4640	-2.1158	-0.3727	-1.5883	-1.9610	61.2352	99.9970	
   989	-1.3046	-1.6182	-2.9229	-0.5333	-1.4325	-1.9659	-0.2393	-1.5649	-1.8041	61.5538	99.9976	
   990	-1.2861	-1.5908	-2.8770	-0.5449	-1.3844	-1.9293	-0.2847	-1.4846	-1.7693	61.2086	99.9977	
   991	-1.2273	-1.3309	-2.5583	-0.5318	-1.0590	-1.5908	-0.2838	-1.1576	-1.4414	60.6617	99.9977	
   992	-1.0689	-1.2174	-2.2864	-0.4201	-1.0178	-1.4379	-0.2526	-1.1622	-1.4149	60.7614	99.9980	
   993	-1.0338	-1.3236	-2.3576	-0.4264	-1.1182	-1.5446	-0.2645	-1.2543	-1.5188	60.7095	99.9978	
   994	-0.9583	-1.4529	-2.4113	-0.3112	-1.2543	-1.5655	-0.1074	-1.3611	-1.4686	60.9846	99.9975	
   995	-0.9430	-1.4754	-2.4185	-0.3037	-1.2496	-1.5533	-0.1067	-1.3486	-1.4552	60.8577	99.9975	
   996	-0.8752	-1.4657	-2.3410	-0.2449	-1.2410	-1.4860	-0.0740	-1.3280	-1.4020	60.7703	99.9976	
   997	-0.8741	-1.4490	-2.3232	-0.2298	-1.2317	-1.4615	-0.0544	-1.3157	-1.3701	60.8167	99.9977	
   998	-0.8315	-1.4388	-2.2704	-0.1928	-1.2228	-1.4156	-0.0101	-1.3121	-1.3222	60.8612	99.9976	
   999	-0.8140	-1.4280	-2.2421	-0.1777	-1.2134	-1.3912	-0.0094	-1.2995	-1.3089	60.8167	99.9977	
  1000	-0.8217	-1.4167	-2.2385	-0.1844	-1.2038	-1.3881	-0.0152	-1.2911	-1.3062	60.8167	99.9977	
  1001	-0.8119	-1.3947	-2.2067	-0.1759	-1.1847	-1.3607	-0.0013	-1.2703	-1.2716	60.8184	99.9976	
  1002	-0.8108	-1.3781	-2.1890	-0.1817	-1.1607	-1.3424	-0.0129	-1.2534	-1.2662	60.7739	99.9976	
  1003	-0.8185	-1.3668	-2.1854	-0.2026	-1.1460	-1.3486	-0.0367	-1.2321	-1.2688	60.6864	99.9976	
  1004	-0.8338	-1.3443	-2.1782	-0.2302	-1.1216	-1.3517	-0.0548	-1.2193	-1.2741	60.6846	99.9975	
  1005	-0.8163	-1.3335	-2.1499	-0.1932	-1.1126	-1.3058	-0.0287	-1.2028	-1.2315	60.6882	99.9976	
  1006	-0.7977	-1.3061	-2.1040	-0.1772	-1.0889	-1.2661	-0.0025	-1.1864	-1.1889	60.7328	99.9976	
  1007	-0.7890	-1.3007	-2.0898	-0.1621	-1.0796	-1.2417	-0.0010	-1.1613	-1.1623	60.6490	99.9977	
  1008	-0.7792	-1.2787	-2.0580	-0.1603	-1.0509	-1.2112	 0.0128	-1.1405	-1.1277	60.6509	99.9976	
  1009	-0.7945	-1.2562	-2.0508	-0.1878	-1.0265	-1.2143	-0.0299	-1.1190	-1.1489	60.5598	99.9976	
  1010	-0.8262	-1.2278	-2.0541	-0.2363	-0.9874	-1.2237	-0.0907	-1.0847	-1.1754	60.4257	99.9977	
  1011	-0.9443	-1.2365	-2.1809	-0.3823	-0.9945	-1.3767	-0.2554	-1.1035	-1.3589	60.2796	99.9978	
  1012	-1.2121	-1.2256	-2.4378	-0.5349	-0.9919	-1.5268	-0.3011	-1.1323	-1.4334	60.7774	99.9978	
  1013	-1.1280	-1.2218	-2.3498	-0.3151	-0.9669	-1.2819	-0.0668	-1.1059	-1.1728	61.1100	99.9984	
  1014	-0.9795	-1.0025	-1.9821	-0.2006	-0.6479	-0.8485	 0.0613	-0.6506	-0.5893	60.1779	99.9980	
  1015	-0.1788	-0.4297	-0.6086	 0.8320	-0.1913	 0.6407	 1.3545	-0.2732	 1.0813	61.9993	99.9969	
  1016	 1.0685	-0.4768	 0.5915	 1.9731	-0.4404	 1.5327	 2.2788	-0.5870	 1.6919	62.9258	99.9974	
  1017	 1.0117	-0.5757	 0.4359	 1.8054	-0.4472	 1.3582	 2.0891	-0.5007	 1.5884	62.0486	99.9964	
  1018	 0.8160	-0.4885	 0.3274	 1.6848	-0.3972	 1.2876	 2.0791	-0.4586	 1.6205	62.4378	99.9954	
  1019	 1.0203	-0.4425	 0.5777	 1.9255	-0.3869	 1.5386	 2.3161	-0.4910	 1.8251	62.8559	99.9961	
  1020	 1.0597	-0.4822	 0.5774	 1.9068	-0.4537	 1.4531	 2.2615	-0.5616	 1.6999	62.8023	99.9957	
  1021	 0.9975	-0.5365	 0.4609	 1.8093	-0.4999	 1.3094	 2.1650	-0.5981	 1.5669	62.6723	99.9952	
  1022	 0.9559	-0.5301	 0.4257	 1.8018	-0.5046	 1.2972	 2.1708	-0.6065	 1.5642	62.8002	99.9954	
  1023	 1.0160	-0.5091	 0.5068	 1.8747	-0.5010	 1.3737	 2.2462	-0.6075	 1.6387	62.9268	99.9953	
  1024	 1.0751	-0.5047	 0.5702	 1.9108	-0.5064	 1.4044	 2.2693	-0.6413	 1.6279	63.0051	99.9956	
  1025	 1.0456	-0.5708	 0.4747	 1.8636	-0.5631	 1.3005	 2.1843	-0.6947	 1.4895	62.8732	99.9960	
  1026	 0.9855	-0.5918	 0.3936	 1.8106	-0.5957	 1.2149	 2.1204	-0.7107	 1.4097	62.8295	99.9959	
  1027	 0.9440	-0.5854	 0.3584	 1.7804	-0.6144	 1.1660	 2.1001	-0.7356	 1.3645	62.9537	99.9957	
  1028	 0.9778	-0.5806	 0.3972	 1.7888	-0.5954	 1.1935	 2.1451	-0.7194	 1.4257	62.9566	99.9950	
  1029	 1.0292	-0.5649	 0.4642	 1.8542	-0.5965	 1.2578	 2.1951	-0.7242	 1.4708	63.0400	99.9953	
  1030	 1.0194	-0.5869	 0.4323	 1.8742	-0.6255	 1.2487	 2.2001	-0.7453	 1.4548	63.0827	99.9956	
  1031	 1.0970	-0.5552	 0.5417	 1.9726	-0.5649	 1.4077	 2.3489	-0.6759	 1.6730	63.1363	99.9953	
  1032	 1.2018	-0.4906	 0.7111	 2.0776	-0.5140	 1.5636	 2.4462	-0.6269	 1.8194	63.1796	99.9953	
  1033	 1.2630	-0.4529	 0.8100	 2.1391	-0.4624	 1.6767	 2.5362	-0.5945	 1.9418	63.2669	99.9953	
  1034	 1.4094	-0.3948	 1.0146	 2.3113	-0.3839	 1.9274	 2.7220	-0.5382	 2.1838	63.3986	99.9959	
  1035	 1.5013	-0.4022	 1.0990	 2.3776	-0.3706	 2.0070	 2.7866	-0.5097	 2.2770	63.2765	99.9956	
  1036	 1.5220	-0.3415	 1.1804	 2.4675	-0.3291	 2.1384	 2.8447	-0.4853	 2.3594	63.4439	99.9968	
  1037	 1.5111	-0.3801	 1.1309	 2.3976	-0.3997	 1.9979	 2.7313	-0.5928	 2.1385	63.4716	99.9969	
  1038	 1.2904	-0.5479	 0.7424	 2.1158	-0.6009	 1.5150	 2.4067	-0.7605	 1.6462	63.2468	99.9962	
  1039	 1.2106	-0.4852	 0.7253	 1.9174	-0.5161	 1.4013	 2.0242	-0.6382	 1.3860	62.2518	99.9971	
  1040	-0.1848	-1.0406	-1.2255	 0.0003	-1.1590	-1.1587	-0.1847	-1.4943	-1.6790	60.9358	99.9976	
  1041	-1.4818	-1.5035	-2.9855	-0.8332	-1.3412	-2.1744	-0.6972	-1.4416	-2.1387	60.6409	99.9980	
  1042	-1.3841	-0.9000	-2.2842	-0.7429	-0.5957	-1.3386	-0.4661	-0.7403	-1.2063	60.1923	99.9974	
  1043	-0.9207	-0.7426	-1.6634	-0.3696	-0.5589	-0.9285	-0.2811	-0.6965	-0.9776	60.0607	99.9980	
  1044	-0.9558	-0.6364	-1.5923	-0.3473	-0.4347	-0.7820	-0.2169	-0.5716	-0.7885	60.1298	99.9980	
  1045	-0.9143	-0.6427	-1.5571	-0.3121	-0.4545	-0.7666	-0.1938	-0.6054	-0.7992	60.2095	99.9981	
  1046	-0.9831	-0.6691	-1.6524	-0.3775	-0.4534	-0.8309	-0.2373	-0.5965	-0.8337	60.1298	99.9980	
  1047	-0.9842	-0.6858	-1.6701	-0.3584	-0.4968	-0.8552	-0.1795	-0.6811	-0.8606	60.5170	99.9979	
  1048	-1.1055	-0.7445	-1.8500	-0.5222	-0.5563	-1.0785	-0.4545	-0.7572	-1.2117	60.1738	99.9985	
  1049	-1.1864	-0.6984	-1.8849	-0.6530	-0.5541	-1.2071	-0.6873	-0.7584	-1.4456	59.8709	99.9988	
  1050	-1.2180	-0.7978	-2.0159	-0.7362	-0.6054	-1.3416	-0.6961	-0.8002	-1.4963	59.7926	99.9982	
  1051	-1.1721	-0.7376	-1.9098	-0.6530	-0.5541	-1.2071	-0.6088	-0.7091	-1.3179	59.7686	99.9982	
  1052	-1.1459	-0.7214	-1.8675	-0.6218	-0.5211	-1.1429	-0.5638	-0.6929	-1.2567	59.8182	99.9982	
  1053	-1.1022	-0.6945	-1.7969	-0.5755	-0.4788	-1.0543	-0.5369	-0.6639	-1.2008	59.7750	99.9984	
  1054	-1.0498	-0.6623	-1.7122	-0.5528	-0.4648	-1.0176	-0.5296	-0.6472	-1.1768	59.7232	99.9983	
  1055	-1.0148	-0.6407	-1.6557	-0.4941	-0.4562	-0.9503	-0.4180	-0.6738	-1.0918	60.0814	99.9981	
  1056	-0.9566	-0.9085	-1.8653	-0.5401	-0.8433	-1.3835	-0.6724	-1.1359	-1.8082	60.2396	99.9988	
  1057	-1.1902	-1.2761	-2.4664	-0.7664	-1.2035	-1.9699	-0.8872	-1.4643	-2.3515	60.3116	99.9988	
  1058	-1.3071	-1.3959	-2.7031	-0.9083	-1.2634	-2.1717	-0.9415	-1.4259	-2.3673	59.9425	99.9980	
  1059	-1.4373	-1.2045	-2.6419	-0.8610	-0.9720	-1.8330	-0.7790	-1.1303	-1.9093	60.0672	99.9984	
  1060	-1.1797	-0.8541	-2.0339	-0.5316	-0.5897	-1.1212	-0.3884	-0.7035	-1.0919	60.0054	99.9983	
  1061	-0.7438	-0.6017	-1.3456	-0.1332	-0.3857	-0.5189	-0.0442	-0.5235	-0.5677	60.0930	99.9984	
  1062	-0.4477	-0.4354	-0.8832	 0.1685	-0.2136	-0.0450	 0.2920	-0.3727	-0.0808	60.2912	99.9982	
  1063	-0.2870	-0.4164	-0.7036	 0.3354	-0.2212	 0.1142	 0.4051	-0.3742	 0.0309	60.3299	99.9985	
  1064	-0.3012	-0.5050	-0.8063	 0.2949	-0.2876	 0.0073	 0.3170	-0.4778	-0.1608	60.2660	99.9986	
  1065	-0.5000	-0.5955	-1.0956	 0.0563	-0.3793	-0.3230	 0.0101	-0.5619	-0.5518	59.9296	99.9988	
  1066	-0.7110	-0.6135	-1.3246	-0.1644	-0.4187	-0.5831	-0.1315	-0.6146	-0.7461	60.0997	99.9985	
  1067	-0.8574	-0.6717	-1.5292	-0.1973	-0.4804	-0.6777	-0.1114	-0.6987	-0.8101	60.5505	99.9986	
  1068	-0.7414	-0.8240	-1.5654	-0.1342	-0.6347	-0.7689	-0.1170	-0.8957	-1.0127	60.6070	99.9985	
  1069	-0.6910	-0.9527	-1.6438	-0.0956	-0.8317	-0.9273	-0.1118	-1.1221	-1.2340	60.9728	99.9987	
  1070	-0.5880	-1.1770	-1.7651	-0.0776	-1.1241	-1.2017	-0.0778	-1.3909	-1.4687	61.2131	99.9984	
  1071	-0.2633	-1.2168	-1.4802	 0.2538	-1.2926	-1.0387	 0.1921	-1.6081	-1.4161	61.9379	99.9987	
  1072	-0.1856	-1.3128	-1.4985	 0.2360	-1.3449	-1.1089	 0.1963	-1.6417	-1.4454	61.6712	99.9981	
  1073	-0.1310	-1.2472	-1.3783	 0.3419	-1.2797	-0.9377	 0.3255	-1.5847	-1.2592	61.8605	99.9982	
  1074	-0.1572	-1.2634	-1.4207	 0.3210	-1.2650	-0.9439	 0.3040	-1.5257	-1.2218	61.6064	99.9982	
  1075	-0.1267	-1.1807	-1.3075	 0.3945	-1.1369	-0.7424	 0.4051	-1.4139	-1.0088	61.6245	99.9984	
  1076	-0.1126	-1.0921	-1.2047	 0.4653	-1.0519	-0.5866	 0.4735	-1.3225	-0.8490	61.6797	99.9986	
  1077	-0.1541	-1.0857	-1.2399	 0.4795	-1.0569	-0.5774	 0.5293	-1.3358	-0.8065	61.9501	99.9986	
  1078	-0.0601	-1.0598	-1.1200	 0.6282	-1.0068	-0.3786	 0.7258	-1.3090	-0.5831	62.2266	99.9986	
  1079	 0.1005	-1.0408	-0.9403	 0.7296	-1.0133	-0.2836	 0.8347	-1.2769	-0.4422	62.1408	99.9982	
  1080	 0.2371	-1.0046	-0.7676	 0.8698	-0.9821	-0.1123	 0.9921	-1.2747	-0.2826	62.3603	99.9981	
  1081	 0.2535	-1.0105	-0.7571	 0.9201	-0.9925	-0.0725	 1.0609	-1.2798	-0.2188	62.4959	99.9982	
  1082	 0.3038	-1.0115	-0.7078	 0.9797	-0.9696	 0.0101	 1.1313	-1.2597	-0.1284	62.5017	99.9982	
  1083	 0.4677	-0.9426	-0.4749	 1.1568	-0.9295	 0.2273	 1.3033	-1.2242	 0.0791	62.6770	99.9982	
  1084	 0.4908	-1.1041	-0.6134	 1.0677	-1.1914	-0.1237	 1.0346	-1.6106	-0.5760	62.9243	99.9987	
  1085	-0.3468	-1.8595	-2.2065	 0.0185	-2.0309	-2.0124	-0.1944	-2.3829	-2.5773	62.1699	99.9989	
  1086	-1.6945	-2.0659	-3.7604	-1.0190	-1.8697	-2.8887	-0.6979	-1.9740	-2.6719	61.3897	99.9964	
  1087	-1.0183	-1.6017	-2.6200	-0.0795	-1.3875	-1.4670	 0.2308	-1.4871	-1.2562	61.9395	99.9985	
  1088	-0.4002	-0.9974	-1.3977	 0.6025	-0.7190	-0.1165	 1.0755	-0.7266	 0.3489	61.8155	99.9971	
  1089	 1.0039	-0.4367	 0.5672	 2.0996	-0.2797	 1.8198	 2.6645	-0.3446	 2.3200	63.1891	99.9962	
  1090	 1.9484	-0.4944	 1.4539	 3.0347	-0.4488	 2.5859	 3.5542	-0.6076	 2.9466	64.3306	99.9966	
  1091	 2.2012	-0.7383	 1.4628	 3.2660	-0.7065	 2.5595	 3.7145	-0.8696	 2.8449	64.5302	99.9971	
  1092	 2.1805	-0.7990	 1.3814	 3.2708	-0.7449	 2.5259	 3.7137	-0.8821	 2.8316	64.4504	99.9973	
  1093	 2.2766	-0.7398	 1.5367	 3.3910	-0.6847	 2.7063	 3.8233	-0.8374	 2.9859	64.5336	99.9977	
  1094	 2.3717	-0.6973	 1.6743	 3.4876	-0.6528	 2.8348	 3.8945	-0.8048	 3.0897	64.5336	99.9979	
  1095	 2.3979	-0.6812	 1.7166	 3.5036	-0.6291	 2.8745	 3.9272	-0.7843	 3.1429	64.5345	99.9977	
  1096	 2.4339	-0.6430	 1.7908	 3.5490	-0.6012	 2.9479	 3.9599	-0.7637	 3.1961	64.5752	99.9979	
  1097	 2.4427	-0.6376	 1.8050	 3.5130	-0.5958	 2.9172	 3.9098	-0.7589	 3.1509	64.4504	99.9977	
  1098	 2.4186	-0.6205	 1.7980	 3.4996	-0.5764	 2.9233	 3.9106	-0.7463	 3.1643	64.4920	99.9977	
  1099	 2.4536	-0.5989	 1.8545	 3.5526	-0.5437	 3.0089	 3.9825	-0.7011	 3.2814	64.4951	99.9977	
  1100	 2.5082	-0.5334	 1.9747	 3.6216	-0.4874	 3.1342	 4.0305	-0.6347	 3.3959	64.4554	99.9978	
  1101	 2.5365	-0.4839	 2.0525	 3.6118	-0.4106	 3.2012	 4.0055	-0.5296	 3.4759	64.1306	99.9976	
  1102	 2.5168	-0.4002	 2.1164	 3.5888	-0.3145	 3.2743	 3.9919	-0.4413	 3.5506	64.0506	99.9976	
  1103	 2.5539	-0.3454	 2.2084	 3.6217	-0.2528	 3.3689	 4.0080	-0.3829	 3.6252	63.9694	99.9978	
  1104	 2.5724	-0.3180	 2.2543	 3.6578	-0.2582	 3.3996	 4.0377	-0.4126	 3.6251	64.1712	99.9980	
  1105	 2.5562	-0.4399	 2.1162	 3.5567	-0.3618	 3.1949	 3.9039	-0.5450	 3.3589	64.0399	99.9980	
  1106	 2.1027	-0.5753	 1.5273	 2.7485	-0.7217	 2.0268	 2.6483	-1.2373	 1.4109	63.9935	99.9985	
  1107	-0.5663	-2.1384	-2.7048	-0.2218	-2.1514	-2.3732	-0.2017	-2.3996	-2.6013	61.8584	99.9967	
  1108	-1.7074	-2.2656	-3.9731	-0.8964	-2.2357	-3.1321	-0.4755	-2.5596	-3.0351	63.4537	99.9971	
  1109	-0.4863	-2.3289	-2.8153	 0.1900	-2.5462	-2.3562	 0.3462	-3.0103	-2.6641	64.6917	99.9982	
  1110	-0.4129	-2.4915	-2.9045	 0.2140	-2.6280	-2.4141	 0.4297	-2.9821	-2.5524	64.2172	99.9970	
  1111	-0.3353	-2.4597	-2.7951	 0.3417	-2.5632	-2.2215	 0.5466	-2.9207	-2.3741	64.2226	99.9977	
  1112	-0.2501	-2.4392	-2.6893	 0.4307	-2.5359	-2.1052	 0.5778	-2.9253	-2.3475	64.2196	99.9983	
  1113	-0.2916	-2.4328	-2.7245	 0.4089	-2.5356	-2.1267	 0.5139	-2.9412	-2.4273	64.2167	99.9986	
  1114	-0.2895	-2.3995	-2.6891	 0.4467	-2.5123	-2.0655	 0.5524	-2.9291	-2.3768	64.3494	99.9987	
  1115	-0.2742	-2.4220	-2.6963	 0.4365	-2.5600	-2.1235	 0.4724	-3.0036	-2.5312	64.3417	99.9988	
  1116	-0.3013	-2.5826	-2.8840	 0.3207	-2.7831	-2.4624	 0.3117	-3.1650	-2.8533	64.1550	99.9988	
  1117	-1.2098	-2.4866	-3.6965	-0.6611	-2.3116	-2.9726	-0.4729	-2.4129	-2.8858	61.4821	99.9966	
  1118	-0.9938	-2.0021	-2.9961	-0.1269	-1.9135	-2.0404	 0.1644	-2.1695	-2.0052	63.0461	99.9984	
  1119	-0.6921	-2.0082	-2.7004	 0.1396	-1.9563	-1.8167	 0.3318	-2.2094	-1.8777	63.0372	99.9987	
  1120	-0.6866	-2.0527	-2.7394	 0.0875	-1.9746	-1.8871	 0.2818	-2.2046	-1.9228	62.7759	99.9984	
  1121	-0.7282	-2.0463	-2.7746	 0.1093	-1.9750	-1.8657	 0.3441	-2.2138	-1.8697	63.0431	99.9985	
  1122	-0.6954	-2.0581	-2.7535	 0.1293	-2.0040	-1.8747	 0.3541	-2.2558	-1.9017	63.1251	99.9985	
  1123	-0.7499	-2.1237	-2.8737	 0.0755	-2.0510	-1.9756	 0.3157	-2.2679	-1.9523	62.9992	99.9984	
  1124	-0.7959	-2.0561	-2.8521	-0.0064	-1.9634	-1.9698	 0.1963	-2.1616	-1.9653	62.6072	99.9984	
  1125	-0.8540	-1.9160	-2.7701	-0.1406	-1.7840	-1.9246	 0.0373	-1.9835	-1.9462	62.0821	99.9983	
  1126	-0.8454	-1.7829	-2.6284	-0.1771	-1.6684	-1.8455	-0.0336	-1.9071	-1.9406	61.9823	99.9983	
  1127	-0.7404	-1.8461	-2.5866	-0.0913	-1.8087	-1.9000	 0.0086	-2.1466	-2.1380	62.5667	99.9984	
  1128	-1.2317	-2.4362	-3.6680	-0.6295	-2.3887	-3.0182	-0.5309	-2.6427	-3.1735	62.3213	99.9983	
  1129	-1.4261	-2.5879	-4.0141	-0.7844	-2.5393	-3.3238	-0.6843	-2.7874	-3.4717	62.4053	99.9985	
  1130	-1.4085	-2.7049	-4.1135	-0.8076	-2.6778	-3.4855	-0.7361	-2.9167	-3.6528	62.3928	99.9984	
  1131	-1.4282	-2.7489	-4.1772	-0.8094	-2.7065	-3.5160	-0.7253	-2.9462	-3.6715	62.4406	99.9984	
  1132	-1.3636	-2.7891	-4.1528	-0.7485	-2.7794	-3.5279	-0.6864	-3.0306	-3.7170	62.6108	99.9985	
  1133	-1.3515	-2.8615	-4.2132	-0.7085	-2.8375	-3.5461	-0.6125	-3.0567	-3.6692	62.6653	99.9983	
  1134	-1.2007	-2.8646	-4.0653	-0.5047	-2.8362	-3.3409	-0.3340	-3.0267	-3.3607	62.9501	99.9979	
  1135	-1.0030	-2.6630	-3.6661	-0.2554	-2.5722	-2.8276	-0.0510	-2.7160	-2.7670	62.7174	99.9979	
  1136	-0.9889	-2.5744	-3.5634	-0.4120	-2.5169	-2.9289	-0.2808	-2.6669	-2.9476	62.2068	99.9971	
  1137	-1.0634	-2.4285	-3.4919	-0.3549	-2.3024	-2.6573	-0.1389	-2.5052	-2.6441	62.4988	99.9980	
  1138	-0.9507	-2.5029	-3.4537	-0.2300	-2.5152	-2.7452	-0.0086	-2.8465	-2.8551	63.6116	99.9981	
  1139	-0.5866	-2.5824	-3.1691	 0.1743	-2.6801	-2.5057	 0.4955	-3.0374	-2.5419	64.6203	99.9972	
  1140	-0.3177	-2.5767	-2.8945	 0.4008	-2.6647	-2.2639	 0.6798	-3.0062	-2.3265	64.4903	99.9972	
  1141	-0.3058	-2.5214	-2.8272	 0.4471	-2.6224	-2.1753	 0.6928	-2.9980	-2.3052	64.6194	99.9979	
  1142	-0.3550	-2.5037	-2.8588	 0.4111	-2.6170	-2.2059	 0.6428	-2.9932	-2.3504	64.6185	99.9981	
  1143	-0.3517	-2.4538	-2.8056	 0.4583	-2.5603	-2.1021	 0.6778	-2.9350	-2.2572	64.6207	99.9984	
  1144	-0.3321	-2.4097	-2.7419	 0.4894	-2.5273	-2.0379	 0.6851	-2.9183	-2.2332	64.6632	99.9986	
  1145	-0.3769	-2.4533	-2.8303	 0.4138	-2.5740	-2.1602	 0.5805	-2.9840	-2.4035	64.6153	99.9986	
  1146	-0.4227	-2.5135	-2.9363	 0.3599	-2.6209	-2.2610	 0.5478	-3.0045	-2.4567	64.5293	99.9985	
  1147	-0.3746	-2.5478	-2.9225	 0.3790	-2.6644	-2.2853	 0.5578	-3.0466	-2.4888	64.5274	99.9984	
  1148	-0.3625	-2.6202	-2.9828	 0.3594	-2.7454	-2.3860	 0.5452	-3.1512	-2.6060	64.6554	99.9982	
  1149	-0.6278	-2.9593	-3.5872	-0.0591	-3.1550	-3.2141	-0.0939	-3.5287	-3.6226	64.0515	99.9987	
  1150	-1.4345	-2.9765	-4.4111	-0.8937	-3.0068	-3.9005	-0.8152	-3.1840	-3.9992	62.4675	99.9971	
  1151	-1.4282	-2.7489	-4.1772	-0.7770	-2.7693	-3.5463	-0.6125	-3.0567	-3.6692	63.1050	99.9980	
  1152	-1.2313	-2.8195	-4.0509	-0.5355	-2.9794	-3.5149	-0.3472	-3.3494	-3.6966	64.2457	99.9979	
  1153	-1.0377	-2.9400	-3.9779	-0.3701	-3.1258	-3.4959	-0.1605	-3.4859	-3.6464	64.5107	99.9972	
  1154	-0.8498	-2.8882	-3.7381	-0.2330	-3.0276	-3.2605	-0.0159	-3.3830	-3.3989	64.2932	99.9969	
  1155	-0.7570	-2.7512	-3.5083	-0.1443	-2.8902	-3.0345	 0.0721	-3.2793	-3.2072	64.3383	99.9971	
  1156	-0.6828	-2.6416	-3.3245	-0.0046	-2.7489	-2.7534	 0.2051	-3.1594	-2.9543	64.3882	99.9979	
  1157	-0.5921	-2.5379	-3.1301	 0.1543	-2.6510	-2.4966	 0.3112	-3.0686	-2.7573	64.4346	99.9985	
  1158	-0.5834	-2.5325	-3.1160	 0.1704	-2.6273	-2.4569	 0.3178	-3.0645	-2.7467	64.4346	99.9985	
  1159	-0.5998	-2.5266	-3.1265	 0.1713	-2.6130	-2.4417	 0.2997	-3.0517	-2.7520	64.3909	99.9986	
  1160	-0.6239	-2.5095	-3.1334	 0.1646	-2.6033	-2.4387	 0.2816	-3.0388	-2.7572	64.3909	99.9987	
  1161	-0.6140	-2.4874	-3.1016	 0.1949	-2.5846	-2.3898	 0.3077	-3.0224	-2.7147	64.4356	99.9987	
  1162	-0.6151	-2.5041	-3.1193	 0.1797	-2.5939	-2.4142	 0.2816	-3.0388	-2.7572	64.3904	99.9986	
  1163	-0.6490	-2.5090	-3.1581	 0.1352	-2.6076	-2.4723	 0.2301	-3.0591	-2.8291	64.3882	99.9986	
  1164	-0.6752	-2.5251	-3.2004	 0.1059	-2.6119	-2.5060	 0.2047	-3.0630	-2.8583	64.3444	99.9986	
  1165	-0.6840	-2.5305	-3.2145	 0.0841	-2.6115	-2.5274	 0.1858	-3.0628	-2.8769	64.3001	99.9985	
  1166	-0.7091	-2.5300	-3.2392	 0.0698	-2.6065	-2.5366	 0.1612	-3.0541	-2.8929	64.2563	99.9986	
  1167	-0.7080	-2.5133	-3.2215	 0.0716	-2.5778	-2.5061	 0.1881	-3.0251	-2.8370	64.2586	99.9985	
  1168	-0.6633	-2.4698	-3.1331	 0.1321	-2.5405	-2.4083	 0.2396	-3.0048	-2.7651	64.3466	99.9984	
  1169	-0.6720	-2.4752	-3.1473	 0.1019	-2.5591	-2.4572	 0.1823	-3.0166	-2.8343	64.2557	99.9985	
  1170	-0.7146	-2.4854	-3.2001	 0.0649	-2.5681	-2.5031	 0.1381	-3.0202	-2.8821	64.2113	99.9986	
  1171	-0.7321	-2.4962	-3.2284	 0.0280	-2.5770	-2.5490	 0.0931	-3.0364	-2.9433	64.1650	99.9985	
  1172	-0.7835	-2.5118	-3.2954	-0.0383	-2.5903	-2.6286	 0.0473	-3.0652	-3.0179	64.2077	99.9984	
  1173	-0.8184	-2.5333	-3.3519	-0.0904	-2.6085	-2.6989	-0.0100	-3.0770	-3.0870	64.1179	99.9984	
  1174	-0.8446	-2.5495	-3.3942	-0.1206	-2.6272	-2.7478	-0.0485	-3.0891	-3.1376	64.0726	99.9985	
  1175	-0.8632	-2.5769	-3.4402	-0.1527	-2.6745	-2.8272	-0.1023	-3.1471	-3.2494	64.1122	99.9985	
  1176	-0.9670	-2.6248	-3.5919	-0.2720	-2.7204	-2.9924	-0.2315	-3.2041	-3.4356	64.0634	99.9984	
  1177	-1.0959	-2.6722	-3.7683	-0.3988	-2.7709	-3.1697	-0.3542	-3.2570	-3.6112	64.0608	99.9984	
  1178	-1.1669	-2.7319	-3.8989	-0.4745	-2.8176	-3.2920	-0.4326	-3.3063	-3.7390	64.0145	99.9983	
  1179	-1.2194	-2.7642	-3.9837	-0.5208	-2.8599	-3.3806	-0.5038	-3.3390	-3.8428	63.9674	99.9984	
  1180	-1.2543	-2.7857	-4.0401	-0.5577	-2.8688	-3.4265	-0.5234	-3.3513	-3.8747	63.9681	99.9983	
  1181	-1.2456	-2.7803	-4.0260	-0.5368	-2.8835	-3.4203	-0.5111	-3.3556	-3.8667	64.0124	99.9985	
  1182	-1.2292	-2.7862	-4.0155	-0.5359	-2.8692	-3.4051	-0.4980	-3.3474	-3.8454	63.9688	99.9983	
  1183	-1.2281	-2.7696	-3.9978	-0.5350	-2.8548	-3.3898	-0.4849	-3.3392	-3.8241	64.0138	99.9983	
  1184	-1.2194	-2.7642	-3.9837	-0.5208	-2.8599	-3.3806	-0.4842	-3.3266	-3.8108	63.9695	99.9985	
  1185	-1.2194	-2.7642	-3.9837	-0.5341	-2.8405	-3.3746	-0.4776	-3.3225	-3.8002	63.9701	99.9983	
  1186	-1.2106	-2.7588	-3.9695	-0.5265	-2.8358	-3.3624	-0.4646	-3.3143	-3.7789	63.9708	99.9983	
  1187	-1.1757	-2.7373	-3.9131	-0.4745	-2.8176	-3.2920	-0.4115	-3.2689	-3.6804	63.9301	99.9985	
  1188	-1.1298	-2.6771	-3.8070	-0.4188	-2.7419	-3.1607	-0.3250	-3.1903	-3.5153	63.9357	99.9984	
  1189	-0.9976	-2.5798	-3.5775	-0.2599	-2.6440	-2.9039	-0.1558	-3.0961	-3.2519	64.0300	99.9984	
  1190	-0.8163	-2.5001	-3.3164	-0.0507	-2.5565	-2.6073	 0.0315	-3.0147	-2.9832	64.0785	99.9984	
  1191	-0.7933	-2.5339	-3.3272	-0.0374	-2.5759	-2.6133	 0.0365	-3.0357	-2.9992	64.0340	99.9983	
  1192	-0.8020	-2.5392	-3.3413	-0.0307	-2.5856	-2.6163	 0.0554	-3.0359	-2.9806	64.0798	99.9984	
  1193	-0.8216	-2.5833	-3.4050	-0.0343	-2.6430	-2.6773	 0.0350	-3.0608	-3.0258	64.0360	99.9987	
  1194	-0.7692	-2.5510	-3.3203	 0.0271	-2.5914	-2.5643	 0.1200	-3.0074	-2.8874	64.0406	99.9986	
  1195	-0.7080	-2.5133	-3.2215	 0.0716	-2.5778	-2.5061	 0.1323	-3.0118	-2.8795	64.0804	99.9986	
  1196	-0.7790	-2.5730	-3.3521	-0.0259	-2.6240	-2.6498	 0.0350	-3.0608	-3.0258	63.9894	99.9985	
  1197	-0.8391	-2.5940	-3.4333	-0.1006	-2.6563	-2.7569	-0.0485	-3.0891	-3.1376	63.9421	99.9986	
  1198	-0.9090	-2.6371	-3.5462	-0.1905	-2.6978	-2.8884	-0.1442	-3.1130	-3.2573	63.8072	99.9987	
  1199	-0.9342	-2.6366	-3.5709	-0.2181	-2.6734	-2.8915	-0.1312	-3.1048	-3.2360	63.8541	99.9984	
  1200	-0.9506	-2.6307	-3.5814	-0.2190	-2.6878	-2.9068	-0.1566	-3.1087	-3.2652	63.8527	99.9986	
  1201	-0.9845	-2.6356	-3.6201	-0.2559	-2.6967	-2.9527	-0.2073	-3.1164	-3.3237	63.8064	99.9987	
  1202	-1.0019	-2.6463	-3.6484	-0.2711	-2.7061	-2.9771	-0.2196	-3.1120	-3.3317	63.7632	99.9988	
  1203	-1.0096	-2.6351	-3.6448	-0.2777	-2.6964	-2.9741	-0.2189	-3.0995	-3.3184	63.7639	99.9988	
  1204	-1.0085	-2.6184	-3.6271	-0.2911	-2.6770	-2.9680	-0.2116	-3.0828	-3.2944	63.7647	99.9987	
  1205	-0.9812	-2.5856	-3.5670	-0.2599	-2.6440	-2.9039	-0.1266	-3.0294	-3.1560	63.8154	99.9986	
  1206	-0.8983	-2.4706	-3.3690	-0.1219	-2.5314	-2.6533	 0.0203	-2.8888	-2.8685	63.8250	99.9988	
  1207	-0.8076	-2.3669	-3.1747	-0.1090	-2.4406	-2.5496	 0.0625	-2.8138	-2.7513	63.7791	99.9983	
  1208	-0.8110	-2.2891	-3.1002	-0.1659	-2.4205	-2.5864	-0.0375	-2.8042	-2.8417	63.7246	99.9982	
  1209	-0.8427	-2.2607	-3.1035	-0.2153	-2.3957	-2.6110	-0.0941	-2.8034	-2.8975	63.7207	99.9982	
  1210	-0.8144	-2.2112	-3.0257	-0.1814	-2.3197	-2.5011	-0.0337	-2.7413	-2.7750	63.7254	99.9981	
  1211	-0.8012	-2.2671	-3.0683	-0.1263	-2.3685	-2.4947	-0.0121	-2.8003	-2.8124	63.8131	99.9985	
  1212	-0.8754	-2.3767	-3.2522	-0.1677	-2.4492	-2.6169	-0.0413	-2.8670	-2.9083	63.8161	99.9985	
  1213	-0.9125	-2.4315	-3.3441	-0.2207	-2.4818	-2.7025	-0.0886	-2.9209	-3.0095	63.8139	99.9983	
  1214	-0.9628	-2.4305	-3.3934	-0.2936	-2.4854	-2.7790	-0.1713	-2.9366	-3.1079	63.7654	99.9983	
  1215	-1.0415	-2.4789	-3.5205	-0.3996	-2.5506	-2.9502	-0.3194	-2.9934	-3.3128	63.6246	99.9984	
  1216	-1.1453	-2.5268	-3.6722	-0.5113	-2.5918	-3.1031	-0.4290	-3.0381	-3.4671	63.5771	99.9984	
  1217	-1.2043	-2.5312	-3.7356	-0.5776	-2.6051	-3.1827	-0.4928	-3.0540	-3.5469	63.5746	99.9984	
  1218	-1.2458	-2.5248	-3.7707	-0.6287	-2.6090	-3.2378	-0.5305	-3.0535	-3.5841	63.5738	99.9983	
  1219	-1.2119	-2.5199	-3.7320	-0.6323	-2.6664	-3.2988	-0.5663	-3.1243	-3.6906	63.6971	99.9984	
  1220	-1.3605	-2.6114	-3.9720	-0.8046	-2.7449	-3.5495	-0.7144	-3.1811	-3.8955	63.5611	99.9981	
  1221	-1.4097	-2.5937	-4.0036	-0.8179	-2.7255	-3.5435	-0.7128	-3.1560	-3.8688	63.6098	99.9982	
  1222	-1.4185	-2.5991	-4.0177	-0.8330	-2.7349	-3.5679	-0.7455	-3.1765	-3.9221	63.6065	99.9983	
  1223	-1.4622	-2.6260	-4.0883	-0.8851	-2.7531	-3.6383	-0.7636	-3.1637	-3.9273	63.5210	99.9980	
  1224	-1.4349	-2.5932	-4.0282	-0.8397	-2.7252	-3.5649	-0.7236	-3.1265	-3.8501	63.5235	99.9981	
