OxySoft export of:	C:\Users\TO3 TechSupport\Documents\Train2Adapt\T2A_45
Export date:	2022/09/09 07:28:20
Start of measurement:	2022-09-09 06:10:06.730

Datafile sample rate:	10.00	Hz
Datafile duration:	3925.400	s
Datafile total number of samples:	39254

Description:	

Optode-template:	PortaMon TSI Fit Factor
Optode distance (mm):	 35.00
Optode gradients (mm):	 5.00
DPF:	6.45

Device id:	334
# Receivers:	1
# Light sources:	6
# ADC:	2

Light source wavelengths:
device	index	wavelength
1	1	849	nm
1	2	759	nm
1	3	846	nm
1	4	757	nm
1	5	848	nm
1	6	757	nm

Export sample rate:	10.00	Hz
Selected time span:	0	3925.400
Selected time span (sample numbers):	0	39254


Legend:
Column	Trace (Measurement)
1	(Sample number)
2	Rx1-Tx1 O2Hb (T2A_45)
3	Rx1-Tx1 HHb (T2A_45)
4	Rx1-Tx1 tHb (T2A_45)
5	Rx1-Tx2 O2Hb (T2A_45)
6	Rx1-Tx2 HHb (T2A_45)
7	Rx1-Tx2 tHb (T2A_45)
8	Rx1-Tx3 O2Hb (T2A_45)
9	Rx1-Tx3 HHb (T2A_45)
10	Rx1-Tx3 tHb (T2A_45)
11	Rx1-Tx1,Tx2,Tx3 TSI% (T2A_45)
12	Rx1-Tx1,Tx2,Tx3 TSI Fit Factor (T2A_45)
13	(Event)


1	2	3	4	5	6	7	8	9	10	11	12	13
     0	138.2384	79.0901	217.3285	114.7782	69.4745	184.2527	96.9988	64.4003	161.3990	11.5652	98.7634	
     1	-0.5651	-0.0739	-0.6390	-0.5027	-0.0606	-0.5633	-0.4915	-0.0580	-0.5495	72.1663	99.9681	
     2	-0.5424	-0.0744	-0.6168	-0.4830	-0.0609	-0.5440	-0.4856	-0.0543	-0.5399	72.1016	99.9683	
     3	-0.5424	-0.0744	-0.6168	-0.4830	-0.0609	-0.5440	-0.4804	-0.0619	-0.5423	72.1696	99.9687	
     4	-0.5118	-0.0700	-0.5818	-0.4497	-0.0529	-0.5025	-0.4339	-0.0436	-0.4775	72.1564	99.9675	
     5	-0.4122	-0.0519	-0.4642	-0.3377	-0.0461	-0.3838	-0.3259	-0.0412	-0.3671	72.3497	99.9678	
     6	-0.3590	-0.0480	-0.4070	-0.3043	-0.0380	-0.3424	-0.3030	-0.0377	-0.3407	72.2887	99.9682	
     7	-0.3590	-0.0480	-0.4070	-0.3172	-0.0335	-0.3507	-0.3141	-0.0338	-0.3479	72.2242	99.9679	
     8	-0.3590	-0.0480	-0.4070	-0.3104	-0.0293	-0.3396	-0.3030	-0.0377	-0.3407	72.2887	99.9690	
     9	-0.3511	-0.0431	-0.3942	-0.2975	-0.0338	-0.3313	-0.2971	-0.0340	-0.3311	72.2887	99.9682	
    10	-0.3511	-0.0431	-0.3942	-0.3104	-0.0293	-0.3396	-0.2971	-0.0340	-0.3311	72.2887	99.9677	
    11	-0.3048	-0.0290	-0.3338	-0.2505	-0.0173	-0.2679	-0.2225	-0.0198	-0.2423	72.4072	99.9671	
    12	-0.2130	-0.0158	-0.2288	-0.1522	-0.0190	-0.1712	-0.1426	-0.0133	-0.1559	72.4713	99.9665	
    13	-0.1756	-0.0216	-0.1971	-0.1453	-0.0148	-0.1601	-0.1426	-0.0133	-0.1559	72.3463	99.9667	
    14	-0.1904	-0.0163	-0.2066	-0.1453	-0.0148	-0.1601	-0.1426	-0.0133	-0.1559	72.4106	99.9669	
    15	-0.1756	-0.0216	-0.1971	-0.1514	-0.0060	-0.1574	-0.1367	-0.0096	-0.1463	72.3430	99.9668	
    16	-0.1825	-0.0114	-0.1939	-0.1385	-0.0106	-0.1491	-0.1367	-0.0096	-0.1463	72.4106	99.9669	
    17	-0.1746	-0.0065	-0.1811	-0.1317	-0.0064	-0.1381	-0.1249	-0.0022	-0.1271	72.4072	99.9663	
    18	-0.0977	 0.0120	-0.0857	-0.0454	 0.0094	-0.0359	-0.0333	 0.0118	-0.0215	72.5285	99.9663	
    19	 0.0079	 0.0048	 0.0127	 0.0137	 0.0085	 0.0221	 0.0177	 0.0111	 0.0289	72.4038	99.9651	
    20	-0.0000	-0.0000	-0.0000	 0.0000	 0.0000	 0.0000	 0.0000	 0.0000	 0.0000	72.4106	99.9651	
    21	-0.0237	-0.0146	-0.0382	-0.0205	-0.0126	-0.0331	-0.0177	-0.0111	-0.0288	72.4106	99.9651	
    22	-0.0621	-0.0238	-0.0860	-0.0538	-0.0207	-0.0745	-0.0465	-0.0183	-0.0648	72.4106	99.9651	
    23	-0.1164	-0.0428	-0.1591	-0.1008	-0.0371	-0.1379	-0.0871	-0.0329	-0.1200	72.4106	99.9651	
    24	-0.1548	-0.0521	-0.2069	-0.1205	-0.0368	-0.1573	-0.0923	-0.0253	-0.1176	72.3970	99.9652	
    25	-0.0868	-0.0534	-0.1402	-0.0546	-0.0336	-0.0882	-0.0243	-0.0262	-0.0504	72.4576	99.9656	
    26	-0.0641	-0.0539	-0.1179	-0.0486	-0.0424	-0.0909	-0.0249	-0.0375	-0.0624	72.4679	99.9649	
    27	-0.1173	-0.0578	-0.1751	-0.0948	-0.0459	-0.1407	-0.0649	-0.0408	-0.1056	72.4679	99.9649	
    28	-0.1410	-0.0724	-0.2134	-0.1281	-0.0540	-0.1821	-0.0937	-0.0480	-0.1416	72.4038	99.9646	
    29	-0.1716	-0.0768	-0.2483	-0.1546	-0.0578	-0.2124	-0.1166	-0.0514	-0.1680	72.4038	99.9646	
    30	-0.2021	-0.0812	-0.2833	-0.1751	-0.0705	-0.2455	-0.1454	-0.0586	-0.2040	72.4072	99.9644	
    31	-0.2021	-0.0812	-0.2833	-0.1614	-0.0621	-0.2235	-0.1166	-0.0514	-0.1680	72.4611	99.9649	
    32	-0.1410	-0.0724	-0.2134	-0.1084	-0.0543	-0.1627	-0.0655	-0.0521	-0.1176	72.5285	99.9653	
    33	-0.1489	-0.0772	-0.2261	-0.1221	-0.0627	-0.1848	-0.0996	-0.0517	-0.1512	72.4038	99.9651	
    34	-0.1942	-0.0763	-0.2706	-0.1614	-0.0621	-0.2235	-0.1284	-0.0589	-0.1872	72.4713	99.9655	
    35	-0.2100	-0.0860	-0.2960	-0.1939	-0.0572	-0.2511	-0.1454	-0.0586	-0.2040	72.4038	99.9654	
    36	-0.2327	-0.0856	-0.3183	-0.2076	-0.0656	-0.2732	-0.1683	-0.0621	-0.2304	72.4072	99.9652	
    37	-0.2485	-0.0953	-0.3438	-0.2341	-0.0695	-0.3036	-0.1912	-0.0656	-0.2568	72.3430	99.9650	
    38	-0.2554	-0.0851	-0.3405	-0.2076	-0.0656	-0.2732	-0.1624	-0.0584	-0.2208	72.4645	99.9656	
    39	-0.1942	-0.0763	-0.2706	-0.1614	-0.0621	-0.2235	-0.1225	-0.0551	-0.1776	72.4679	99.9649	
    40	-0.2100	-0.0860	-0.2960	-0.1939	-0.0572	-0.2511	-0.1513	-0.0623	-0.2136	72.4072	99.9661	
    41	-0.2406	-0.0904	-0.3310	-0.2204	-0.0611	-0.2815	-0.1853	-0.0619	-0.2472	72.3430	99.9663	
    42	-0.2633	-0.0900	-0.3533	-0.2469	-0.0649	-0.3119	-0.1971	-0.0693	-0.2664	72.4106	99.9654	
    43	-0.2860	-0.0895	-0.3755	-0.2606	-0.0733	-0.3339	-0.2200	-0.0728	-0.2928	72.4140	99.9652	
    44	-0.3165	-0.0939	-0.4105	-0.2999	-0.0727	-0.3726	-0.2488	-0.0800	-0.3288	72.4174	99.9653	
    45	-0.3313	-0.0886	-0.4200	-0.2871	-0.0772	-0.3643	-0.2422	-0.0650	-0.3072	72.4072	99.9644	
    46	-0.2938	-0.0944	-0.3882	-0.2606	-0.0733	-0.3339	-0.2089	-0.0767	-0.2856	72.4748	99.9656	
    47	-0.3096	-0.1041	-0.4137	-0.2939	-0.0814	-0.3753	-0.2488	-0.0800	-0.3288	72.3497	99.9649	
    48	-0.3698	-0.0979	-0.4677	-0.3401	-0.0850	-0.4251	-0.2887	-0.0833	-0.3720	72.4174	99.9645	
    49	-0.4004	-0.1023	-0.5026	-0.3726	-0.0801	-0.4527	-0.3228	-0.0828	-0.4056	72.3531	99.9656	
    50	-0.4230	-0.1018	-0.5249	-0.3991	-0.0840	-0.4831	-0.3457	-0.0863	-0.4320	72.3565	99.9649	
    51	-0.4457	-0.1014	-0.5471	-0.4248	-0.0749	-0.4997	-0.3790	-0.0745	-0.4535	72.2242	99.9656	
    52	-0.4526	-0.0912	-0.5439	-0.4377	-0.0703	-0.5080	-0.3901	-0.0706	-0.4607	72.2276	99.9648	
    53	-0.4596	-0.0810	-0.5406	-0.4368	-0.0574	-0.4942	-0.3783	-0.0632	-0.4415	72.2887	99.9653	
    54	-0.4053	-0.0621	-0.4674	-0.3710	-0.0542	-0.4252	-0.3214	-0.0602	-0.3815	72.4208	99.9651	
    55	-0.4053	-0.0621	-0.4674	-0.3710	-0.0542	-0.4252	-0.3332	-0.0676	-0.4008	72.4276	99.9664	
    56	-0.4448	-0.0864	-0.5311	-0.4308	-0.0661	-0.4970	-0.3967	-0.0857	-0.4824	72.3055	99.9672	
    57	-0.5690	-0.1340	-0.7030	-0.5461	-0.1247	-0.6708	-0.5133	-0.1371	-0.6504	72.3189	99.9663	
    58	-0.6292	-0.1278	-0.7570	-0.5838	-0.0981	-0.6819	-0.5230	-0.1105	-0.6336	72.2987	99.9672	
    59	-0.6597	-0.1322	-0.7919	-0.6111	-0.1150	-0.7261	-0.5525	-0.1290	-0.6816	72.3734	99.9668	
    60	-0.7219	-0.1560	-0.8779	-0.6718	-0.1399	-0.8116	-0.6108	-0.1548	-0.7656	72.3802	99.9667	
    61	-0.7219	-0.1560	-0.8779	-0.6641	-0.1227	-0.7868	-0.5814	-0.1362	-0.7176	72.3632	99.9670	
    62	-0.6203	-0.1079	-0.7282	-0.5633	-0.0855	-0.6488	-0.4942	-0.1033	-0.5976	72.4276	99.9673	
    63	-0.3403	 0.0068	-0.3335	-0.4131	 0.0070	-0.4061	-0.4058	-0.0477	-0.4535	72.2126	99.9665	
    64	-0.2811	-0.0144	-0.2955	-0.4746	-0.0308	-0.5054	-0.4818	-0.0846	-0.5663	71.9211	99.9603	
    65	-0.3915	-0.0824	-0.4739	-0.6002	-0.0460	-0.6462	-0.4346	-0.0549	-0.4895	71.8516	99.9480	
    66	-0.6804	-0.2170	-0.8974	-0.8408	-0.2191	-1.0599	-0.8420	-0.2237	-1.0657	71.5940	99.9580	
    67	-0.8697	-0.2182	-1.0880	-0.9315	-0.2003	-1.1318	-0.8642	-0.2158	-1.0800	71.9612	99.9615	
    68	-1.0907	-0.2389	-1.3295	-1.1162	-0.2144	-1.3307	-1.0704	-0.2472	-1.3176	71.9116	99.9665	
    69	-1.1292	-0.1328	-1.2621	-1.3551	-0.1499	-1.5050	-1.3498	-0.2701	-1.6199	71.6832	99.9645	
    70	-1.3955	-0.1526	-1.5481	-1.6458	-0.1796	-1.8253	-1.6418	-0.3117	-1.9535	71.5113	99.9639	
    71	-1.5110	-0.0651	-1.5761	-1.7059	-0.0921	-1.7981	-1.6939	-0.2354	-1.9293	71.5668	99.9672	
    72	-1.4431	 0.0489	-1.3942	-1.6328	 0.0276	-1.6052	-1.6315	-0.1416	-1.7731	71.5607	99.9706	
    73	-1.3169	 0.1266	-1.1903	-1.5107	 0.0904	-1.4203	-1.5541	-0.0821	-1.6362	71.4961	99.9721	
    74	-1.3060	 0.0612	-1.2448	-1.5421	 0.0088	-1.5333	-1.6054	-0.1798	-1.7852	71.6008	99.9716	
    75	-1.3907	-0.0775	-1.4682	-1.6879	-0.1184	-1.8063	-1.5748	-0.2369	-1.8117	71.6251	99.9520	
    76	-1.7306	-0.4165	-2.1472	-2.0141	-0.5061	-2.5202	-1.8887	-0.6414	-2.5301	72.3983	99.9493	
    77	-2.2205	-0.7326	-2.9531	-2.5270	-0.8345	-3.3615	-2.3377	-0.9345	-3.2722	72.4489	99.9377	
    78	-2.4019	-0.8442	-3.2461	-2.6848	-0.9442	-3.6290	-2.4786	-1.0121	-3.4907	72.3769	99.9342	
    79	-2.5035	-0.8923	-3.3958	-2.7318	-0.9607	-3.6925	-2.4897	-1.0082	-3.4979	72.3376	99.9357	
    80	-2.4394	-0.8385	-3.2779	-2.6089	-0.8850	-3.4939	-2.3474	-0.9079	-3.2553	72.2813	99.9373	
    81	-2.2797	-0.7113	-2.9911	-2.4158	-0.8407	-3.2565	-2.2079	-0.8529	-3.0608	72.6391	99.9340	
    82	-1.9899	-0.5617	-2.5516	-2.2410	-0.6708	-2.9118	-2.0053	-0.6929	-2.6982	72.2778	99.9273	
    83	-1.6775	-0.2973	-1.9748	-1.9852	-0.4634	-2.4485	-1.7752	-0.5483	-2.3236	72.6502	99.9276	
    84	-1.6567	-0.3278	-1.9845	-2.0611	-0.5226	-2.5837	-1.8769	-0.6340	-2.5109	72.6497	99.9231	
    85	-1.8746	-0.4187	-2.2933	-2.2225	-0.5847	-2.8072	-1.9928	-0.6741	-2.6669	72.6198	99.9235	
    86	-1.9062	-0.4381	-2.3443	-2.2293	-0.5889	-2.8182	-2.0137	-0.6436	-2.6573	72.3199	99.9237	
    87	-1.7071	-0.2867	-1.9938	-2.0727	-0.3927	-2.4654	-1.8811	-0.5167	-2.3978	72.1808	99.9363	
    88	-1.3768	-0.0978	-1.4747	-1.7449	-0.1909	-1.9358	-1.6608	-0.3455	-2.0064	71.8988	99.9491	
    89	-1.3078	-0.0842	-1.3920	-1.7168	-0.1611	-1.8779	-1.7216	-0.3183	-2.0399	71.3636	99.9547	
    90	-1.3425	 0.0820	-1.2605	-1.5509	 0.0781	-1.4728	-1.4899	-0.0527	-1.5426	71.3808	99.9643	
    91	-1.2123	 0.1044	-1.1079	-1.5304	 0.0907	-1.4397	-1.5194	-0.0712	-1.5906	71.1508	99.9640	
    92	-1.4786	 0.0847	-1.3939	-1.6801	 0.1105	-1.5696	-1.5951	-0.0097	-1.6048	71.0919	99.9645	
    93	-1.6698	-0.0619	-1.7317	-1.9320	-0.0321	-1.9641	-1.8186	-0.1392	-1.9578	70.9111	99.9588	
    94	-1.9616	-0.2415	-2.2031	-2.2127	-0.2175	-2.4302	-2.0965	-0.3248	-2.4213	71.0118	99.9587	
    95	-2.3136	-0.4149	-2.7285	-2.5432	-0.3589	-2.9021	-2.3801	-0.4157	-2.7958	70.6547	99.9545	
    96	-2.3501	-0.3941	-2.7442	-2.5929	-0.3148	-2.9078	-2.4290	-0.3810	-2.8101	70.4445	99.9566	
    97	-2.2476	-0.3310	-2.5786	-2.5283	-0.2252	-2.7534	-2.3569	-0.3139	-2.6707	70.3003	99.9584	
    98	-2.3156	-0.3297	-2.6453	-2.5463	-0.1989	-2.7452	-2.3843	-0.2984	-2.6827	70.2909	99.9645	
    99	-2.2871	-0.2400	-2.5271	-2.4611	-0.0967	-2.5578	-2.3108	-0.2085	-2.5193	70.3427	99.9698	
   100	-2.1738	-0.1270	-2.3008	-2.3435	 0.0007	-2.3427	-2.2386	-0.1414	-2.3800	70.4203	99.9739	
   101	-2.0939	-0.0634	-2.1574	-2.2896	 0.0214	-2.2682	-2.2341	-0.1603	-2.3945	70.6624	99.9757	
   102	-2.0861	-0.0586	-2.1446	-2.2973	 0.0043	-2.2930	-2.2702	-0.1939	-2.4641	70.7543	99.9764	
   103	-2.1353	-0.1177	-2.2531	-2.3347	-0.0685	-2.4032	-2.3031	-0.2692	-2.5723	70.9738	99.9760	
   104	-2.3629	-0.3588	-2.7217	-2.5825	-0.3582	-2.9407	-2.4831	-0.5241	-3.0072	71.4234	99.9652	
   105	-2.6626	-0.5433	-3.2059	-2.9086	-0.5342	-3.4428	-2.6410	-0.6015	-3.2425	71.2419	99.9430	
   106	-2.6173	-0.4289	-3.0462	-2.8986	-0.4782	-3.3767	-2.6122	-0.5943	-3.2065	71.7625	99.9393	
   107	-2.6499	-0.4633	-3.1132	-2.9685	-0.5461	-3.5146	-2.7066	-0.6536	-3.3602	71.7262	99.9344	
   108	-2.6774	-0.5380	-3.2154	-3.0110	-0.5973	-3.6083	-2.7263	-0.6987	-3.4250	71.6511	99.9331	
   109	-2.6389	-0.5287	-3.1677	-2.8829	-0.5433	-3.4262	-2.6083	-0.6246	-3.2329	71.5296	99.9419	
   110	-2.3806	-0.3985	-2.7792	-2.6115	-0.4009	-3.0124	-2.4446	-0.5435	-2.9880	71.5450	99.9580	
   111	-2.0386	-0.1447	-2.1834	-2.2592	-0.1217	-2.3809	-2.1979	-0.3121	-2.5100	71.2536	99.9710	
   112	-1.8169	 0.0062	-1.8106	-2.0853	 0.0353	-2.0500	-2.0869	-0.1660	-2.2529	70.8363	99.9735	
   113	-1.9066	 0.0230	-1.8836	-2.1487	 0.0709	-2.0778	-2.1234	-0.1126	-2.2360	70.6752	99.9731	
   114	-2.0122	 0.0302	-1.9820	-2.2189	 0.1024	-2.1166	-2.1370	-0.0557	-2.1927	70.5738	99.9712	
   115	-2.2045	-0.0161	-2.2206	-2.3627	 0.1134	-2.2492	-2.1860	-0.0210	-2.2070	70.4616	99.9700	
   116	-2.2764	-0.0748	-2.3512	-2.4462	 0.0371	-2.4092	-2.2797	-0.0690	-2.3486	70.3332	99.9665	
   117	-2.4351	-0.1869	-2.6220	-2.6117	-0.0898	-2.7015	-2.4462	-0.1954	-2.6416	70.4251	99.9652	
   118	-2.6875	-0.3423	-3.0297	-2.8687	-0.2108	-3.0795	-2.6950	-0.2755	-2.9705	69.9395	99.9633	
   119	-2.8157	-0.3347	-3.1504	-3.0185	-0.1910	-3.2094	-2.8239	-0.2473	-3.0712	69.6605	99.9612	
   120	-2.7980	-0.2950	-3.0929	-3.0417	-0.1430	-3.1847	-2.8409	-0.2471	-3.0880	69.7435	99.9637	
   121	-2.8364	-0.3042	-3.1407	-3.0477	-0.1343	-3.1820	-2.8565	-0.2242	-3.0807	69.5936	99.9660	
   122	-2.8779	-0.2433	-3.1212	-3.0549	-0.0391	-3.0940	-2.8510	-0.1335	-2.9845	69.4369	99.9696	
   123	-2.7705	-0.1050	-2.8756	-2.9356	 0.0842	-2.8514	-2.7820	-0.0247	-2.8067	69.3681	99.9731	
   124	-2.7085	 0.0341	-2.6745	-2.8625	 0.2040	-2.6585	-2.7425	 0.0656	-2.6769	69.4424	99.9763	
   125	-2.6583	 0.1082	-2.5501	-2.8592	 0.2558	-2.6035	-2.7758	 0.0774	-2.6985	69.4649	99.9779	
   126	-2.6702	 0.1586	-2.5116	-2.8576	 0.2817	-2.5759	-2.8099	 0.0778	-2.7320	69.6191	99.9805	
   127	-2.7323	 0.1348	-2.5975	-2.9592	 0.2315	-2.7277	-2.9258	 0.0377	-2.8881	69.4953	99.9775	
   128	-2.9156	-0.0069	-2.9225	-3.1476	 0.0532	-3.0944	-3.0774	-0.1230	-3.2004	69.7952	99.9719	
   129	-3.1857	-0.2020	-3.3877	-3.4838	-0.1788	-3.6625	-3.2408	-0.2911	-3.5319	70.0769	99.9484	
   130	-3.3918	-0.2280	-3.6198	-3.6632	-0.2146	-3.8779	-3.3390	-0.3201	-3.6591	70.3503	99.9424	
   131	-3.4322	-0.2673	-3.6995	-3.7930	-0.2945	-4.0875	-3.4799	-0.3977	-3.8776	70.2468	99.9330	
   132	-3.5338	-0.3154	-3.8491	-3.8255	-0.2897	-4.1152	-3.4504	-0.3792	-3.8296	70.2786	99.9363	
   133	-3.3603	-0.2086	-3.5688	-3.5669	-0.1428	-3.7096	-3.2314	-0.2307	-3.4621	70.1700	99.9484	
   134	-2.9275	 0.0434	-2.8841	-3.1427	 0.1309	-3.0118	-2.9639	-0.0299	-2.9938	69.8984	99.9670	
   135	-2.6003	 0.3026	-2.2977	-2.8435	 0.4024	-2.4411	-2.7944	 0.2403	-2.5541	69.1190	99.9739	
   136	-2.5225	 0.4514	-2.0711	-2.7679	 0.5610	-2.2069	-2.7247	 0.3604	-2.3642	69.1156	99.9776	
   137	-2.7000	 0.3998	-2.3002	-2.9458	 0.5511	-2.3947	-2.8639	 0.4038	-2.4601	68.5367	99.9742	
   138	-2.9052	 0.3889	-2.5163	-3.0887	 0.5751	-2.5136	-2.9292	 0.4501	-2.4791	68.5167	99.9733	
   139	-3.0353	 0.3664	-2.6689	-3.1895	 0.5379	-2.6516	-3.0215	 0.4248	-2.5968	68.5872	99.9723	
   140	-3.2344	 0.2150	-3.0194	-3.4285	 0.3907	-3.0377	-3.2554	 0.3105	-2.9449	68.2465	99.9679	
   141	-3.4681	 0.1144	-3.3537	-3.6951	 0.3261	-3.3690	-3.5133	 0.2685	-3.2449	67.6853	99.9665	
   142	-3.5609	 0.2015	-3.3594	-3.8058	 0.4446	-3.3612	-3.6144	 0.3795	-3.2350	67.2584	99.9680	
   143	-3.5678	 0.2116	-3.3562	-3.8640	 0.4586	-3.4055	-3.6818	 0.3917	-3.2901	66.9769	99.9665	
   144	-3.6547	 0.2735	-3.3812	-3.8909	 0.5541	-3.3368	-3.6985	 0.4902	-3.2083	66.8304	99.9708	
   145	-3.6213	 0.4382	-3.1830	-3.8273	 0.7302	-3.0972	-3.6601	 0.6562	-3.0039	66.6161	99.9749	
   146	-3.5573	 0.6074	-2.9500	-3.7715	 0.8891	-2.8823	-3.6467	 0.7846	-2.8620	66.4751	99.9784	
   147	-3.5240	 0.7721	-2.7518	-3.7437	 1.0183	-2.7254	-3.6804	 0.8834	-2.7970	66.4052	99.9812	
   148	-3.5408	 0.8627	-2.6781	-3.8183	 1.0844	-2.7339	-3.7811	 0.9074	-2.8737	66.3350	99.9818	
   149	-3.6375	 0.8897	-2.7478	-3.9372	 1.0734	-2.8637	-3.9290	 0.9018	-3.0272	66.1911	99.9800	
   150	-3.8002	 0.8328	-2.9674	-4.0866	 0.9938	-3.0927	-4.0306	 0.8161	-3.2146	66.5532	99.9774	
   151	-4.0751	 0.5626	-3.5125	-4.4079	 0.6838	-3.7241	-4.1780	 0.5380	-3.6399	67.2770	99.9599	
   152	-4.3748	 0.3781	-3.9967	-4.6887	 0.4984	-4.1902	-4.3216	 0.4150	-3.9066	67.4859	99.9448	
   153	-4.3807	 0.4033	-3.9774	-4.7441	 0.4518	-4.2923	-4.4049	 0.3518	-4.0531	67.7159	99.9390	
   154	-4.4665	 0.3649	-4.1016	-4.8031	 0.4528	-4.3503	-4.4198	 0.3861	-4.0338	67.4897	99.9372	
   155	-4.3128	 0.5172	-3.7956	-4.5958	 0.6179	-3.9780	-4.2297	 0.5273	-3.7023	67.6249	99.9459	
   156	-3.9648	 0.7459	-3.2190	-4.2625	 0.9104	-3.3521	-3.9706	 0.7775	-3.1931	67.1198	99.9598	
   157	-3.5480	 1.1034	-2.4445	-3.8736	 1.2495	-2.6241	-3.7688	 1.1115	-2.6572	66.2629	99.9691	
   158	-3.4002	 1.2809	-2.1193	-3.7282	 1.4761	-2.2521	-3.6675	 1.2842	-2.3833	65.9762	99.9784	
   159	-3.5275	 1.3035	-2.2239	-3.7908	 1.5247	-2.2661	-3.7242	 1.3795	-2.3446	65.6215	99.9789	
   160	-3.6892	 1.2616	-2.4275	-3.9618	 1.5189	-2.4429	-3.8596	 1.3926	-2.4670	65.2667	99.9776	
   161	-3.9111	 1.2260	-2.6851	-4.1140	 1.4999	-2.6141	-3.9498	 1.4013	-2.5485	65.3436	99.9764	
   162	-3.9742	 1.1871	-2.7870	-4.1951	 1.4624	-2.7327	-4.0363	 1.3798	-2.6565	65.1294	99.9748	
   163	-4.1575	 1.0454	-3.1120	-4.4016	 1.3103	-3.0913	-4.2479	 1.2577	-2.9903	64.9097	99.9713	
   164	-4.3596	 0.9643	-3.3953	-4.6666	 1.2716	-3.3950	-4.5038	 1.2496	-3.2542	64.1174	99.9683	
   165	-4.4120	 1.0906	-3.3214	-4.7560	 1.4157	-3.3403	-4.6049	 1.3606	-3.2443	63.7515	99.9711	
   166	-4.5264	 1.0779	-3.4485	-4.8544	 1.4173	-3.4370	-4.6945	 1.3807	-3.3138	63.5395	99.9709	
   167	-4.6123	 1.1548	-3.4575	-4.8796	 1.5388	-3.3408	-4.7209	 1.5058	-3.2151	63.2700	99.9760	
   168	-4.5681	 1.3694	-3.1987	-4.8265	 1.7583	-3.0682	-4.7027	 1.7137	-2.9890	62.9179	99.9792	
   169	-4.5022	 1.5686	-2.9336	-4.7947	 1.9522	-2.8425	-4.6931	 1.8724	-2.8207	62.6965	99.9810	
   170	-4.4846	 1.7236	-2.7610	-4.8062	 2.0820	-2.7242	-4.7549	 1.9753	-2.7796	62.4613	99.9827	
   171	-4.5380	 1.8350	-2.7030	-4.8869	 2.1568	-2.7301	-4.8550	 2.0107	-2.8443	62.5094	99.9832	
   172	-4.6278	 1.8518	-2.7760	-4.9544	 2.1277	-2.8266	-4.9369	 1.9701	-2.9667	62.7859	99.9832	
   173	-4.7786	 1.7445	-3.0340	-5.0873	 1.9960	-3.0913	-5.0197	 1.8199	-3.1998	63.3617	99.9815	
   174	-4.9706	 1.4677	-3.5029	-5.3180	 1.6672	-3.6508	-5.0886	 1.5257	-3.5629	64.2342	99.9655	
   175	-5.1479	 1.1855	-3.9624	-5.5016	 1.3548	-4.1468	-5.1463	 1.2276	-3.9187	65.1049	99.9531	
   176	-5.3332	 1.0138	-4.3194	-5.7045	 1.1551	-4.5493	-5.3267	 1.0597	-4.2670	65.1725	99.9446	
   177	-5.3548	 0.9140	-4.4408	-5.6905	 1.0642	-4.6263	-5.2805	 0.9797	-4.3008	65.4665	99.9439	
   178	-5.1960	 0.9108	-4.2852	-5.4817	 1.0433	-4.4383	-5.1052	 0.9699	-4.1353	65.7578	99.9468	
   179	-5.0983	 0.8988	-4.1995	-5.3902	 1.0375	-4.3527	-5.0208	 0.9574	-4.0634	65.8303	99.9481	
   180	-5.0214	 0.9173	-4.1040	-5.3030	 1.0663	-4.2368	-4.9285	 0.9827	-3.9458	65.9033	99.9496	
   181	-4.9189	 0.9804	-3.9384	-5.2066	 1.1381	-4.0685	-4.8386	 1.0610	-3.7776	65.7604	99.9498	
   182	-4.7326	 1.1672	-3.5654	-5.0311	 1.3209	-3.7101	-4.6582	 1.2289	-3.4293	65.7622	99.9500	
   183	-4.3798	 1.4709	-2.9089	-4.7463	 1.5711	-3.1752	-4.4241	 1.4415	-2.9826	65.7609	99.9490	
   184	-4.1719	 1.6422	-2.5297	-4.6535	 1.6905	-2.9630	-4.3741	 1.5165	-2.8576	65.6841	99.9452	
   185	-4.1759	 1.6974	-2.4785	-4.7153	 1.7521	-2.9632	-4.4440	 1.5817	-2.8622	65.2464	99.9423	
   186	-4.1365	 1.8370	-2.2996	-4.7678	 1.8567	-2.9112	-4.5294	 1.6698	-2.8596	64.8714	99.9375	
   187	-4.1465	 1.9174	-2.2291	-4.8441	 1.8968	-2.9473	-4.6183	 1.7012	-2.9171	64.7142	99.9311	
   188	-4.1938	 1.8882	-2.3056	-4.9072	 1.8331	-3.0741	-4.6755	 1.5998	-3.0757	65.1513	99.9304	
   189	-4.6253	 1.3054	-3.3199	-5.2114	 1.2721	-3.9392	-4.9133	 1.0468	-3.8664	66.2649	99.9347	
   190	-5.1761	 0.7500	-4.4261	-5.5015	 0.8319	-4.6695	-5.1963	 0.6835	-4.5127	66.4109	99.9530	
   191	-5.2461	 0.7213	-4.5247	-5.4870	 0.8533	-4.6337	-5.1404	 0.7623	-4.3782	66.1910	99.9533	
   192	-5.1366	 0.7743	-4.3624	-5.4529	 0.8743	-4.5786	-5.1175	 0.7658	-4.3518	66.1910	99.9487	
   193	-4.9809	 0.8413	-4.1395	-5.1959	 0.9953	-4.2006	-4.7847	 0.9203	-3.8644	66.4054	99.9504	
   194	-4.4130	 1.0756	-3.3374	-4.6048	 1.2100	-3.3947	-4.2471	 1.0836	-3.1635	66.9715	99.9587	
   195	-4.2306	 1.2023	-3.0283	-4.4915	 1.3421	-3.1494	-4.1611	 1.1922	-2.9689	66.6892	99.9594	
   196	-4.0858	 1.3347	-2.7510	-4.4336	 1.4275	-3.0061	-4.1393	 1.2714	-2.8679	66.4777	99.9539	
   197	-4.0384	 1.3638	-2.6746	-4.4260	 1.4447	-2.9813	-4.1497	 1.2867	-2.8631	66.3349	99.9521	
   198	-4.0305	 1.3687	-2.6618	-4.3730	 1.4524	-2.9206	-4.0758	 1.2895	-2.7863	66.6205	99.9539	
   199	-3.9329	 1.3567	-2.5762	-4.2148	 1.4627	-2.7521	-3.9154	 1.3139	-2.6015	66.7593	99.9576	
   200	-3.8037	 1.3642	-2.4395	-4.1148	 1.4870	-2.6279	-3.8408	 1.3281	-2.5127	66.6178	99.9598	
   201	-3.7465	 1.4282	-2.3184	-4.0441	 1.5679	-2.4762	-3.7725	 1.4255	-2.3469	66.4036	99.9604	
   202	-3.6086	 1.5708	-2.0378	-3.9565	 1.7090	-2.2475	-3.7184	 1.5686	-2.1498	65.9784	99.9597	
   203	-3.4618	 1.7333	-1.7285	-3.8544	 1.8715	-1.9830	-3.6362	 1.7075	-1.9287	65.7652	99.9608	
   204	-3.3642	 1.8366	-1.5277	-3.7420	 1.9906	-1.7514	-3.5672	 1.8163	-1.7509	65.5529	99.9663	
   205	-3.2686	 1.9099	-1.3588	-3.6363	 2.1055	-1.5309	-3.5250	 1.9519	-1.5730	64.9170	99.9715	
   206	-3.2894	 1.9403	-1.3490	-3.6186	 2.1786	-1.4400	-3.5424	 2.0392	-1.5032	64.4973	99.9765	
   207	-3.3476	 1.9766	-1.3710	-3.6547	 2.2311	-1.4236	-3.5848	 2.0889	-1.4959	64.3583	99.9788	
   208	-3.5802	 1.7757	-1.8045	-3.8543	 2.0832	-1.7711	-3.7166	 1.9733	-1.7433	64.2965	99.9775	
   209	-3.7349	 1.6084	-2.1265	-3.8343	 1.9835	-1.8508	-3.6382	 1.9572	-1.6810	64.3991	99.9794	
   210	-3.6325	 1.7868	-1.8457	-3.7808	 2.1036	-1.6773	-3.6334	 2.0366	-1.5968	64.4555	99.9795	
   211	-3.5664	 1.7554	-1.8110	-3.7508	 2.0599	-1.6909	-3.6243	 1.9986	-1.6257	64.3800	99.9780	
   212	-3.5861	 1.8009	-1.7852	-3.7953	 2.0822	-1.7131	-3.6805	 2.0069	-1.6736	64.3728	99.9774	
   213	-3.5753	 1.8508	-1.7245	-3.8049	 2.1386	-1.6664	-3.6896	 2.0448	-1.6448	64.3008	99.9782	
   214	-3.5004	 1.8393	-1.6611	-3.7013	 2.1152	-1.5862	-3.5889	 2.0208	-1.5681	64.5844	99.9788	
   215	-3.4510	 1.7832	-1.6678	-3.6797	 2.0414	-1.6383	-3.5479	 1.9484	-1.5994	64.7923	99.9756	
   216	-3.4293	 1.7677	-1.6616	-3.6729	 2.0456	-1.6273	-3.5014	 1.9668	-1.5346	64.7274	99.9730	
   217	-3.3741	 1.8017	-1.5724	-3.6046	 2.0876	-1.5170	-3.4580	 2.0267	-1.4313	64.5211	99.9740	
   218	-3.3198	 1.8207	-1.4992	-3.5584	 2.0912	-1.4673	-3.4077	 2.0147	-1.3930	64.7290	99.9737	
   219	-3.2912	 1.7950	-1.4962	-3.5071	 2.0730	-1.4340	-3.3351	 1.9949	-1.3402	64.9420	99.9741	
   220	-3.1778	 1.7928	-1.3850	-3.3830	 2.0623	-1.3207	-3.2160	 1.9933	-1.2227	65.0833	99.9735	
   221	-3.0949	 1.7861	-1.3088	-3.2983	 2.0522	-1.2461	-3.1435	 1.9735	-1.1700	65.2217	99.9747	
   222	-3.0505	 1.7702	-1.2804	-3.2341	 2.0295	-1.2045	-3.0886	 1.9425	-1.1461	65.4298	99.9761	
   223	-3.0081	 1.7242	-1.2839	-3.2040	 1.9858	-1.2182	-3.0684	 1.9007	-1.1678	65.4290	99.9761	
   224	-2.9715	 1.7034	-1.2681	-3.1398	 1.9631	-1.1766	-2.9900	 1.8845	-1.1055	65.6387	99.9759	
   225	-2.8581	 1.7012	-1.1570	-3.0081	 1.9695	-1.0385	-2.8591	 1.8904	-0.9687	65.7781	99.9771	
   226	-2.8058	 1.6901	-1.1157	-2.9619	 1.9731	-0.9888	-2.8303	 1.8976	-0.9327	65.6405	99.9782	
   227	-2.8522	 1.6760	-1.1762	-2.9892	 1.9562	-1.0330	-2.8813	 1.8983	-0.9831	65.5025	99.9788	
   228	-2.8897	 1.6817	-1.2079	-3.0217	 1.9611	-1.0606	-2.9153	 1.8987	-1.0167	65.5021	99.9793	
   229	-2.9222	 1.6473	-1.2749	-3.0498	 1.9313	-1.1185	-2.9396	 1.8725	-1.0671	65.5021	99.9793	
   230	-2.9093	 1.6120	-1.2974	-3.0129	 1.8918	-1.1211	-2.8907	 1.8378	-1.0528	65.7098	99.9790	
   231	-2.8413	 1.6106	-1.2307	-2.9539	 1.8908	-1.0631	-2.8455	 1.8335	-1.0120	65.7096	99.9795	
   232	-2.8403	 1.6256	-1.2147	-2.9659	 1.9083	-1.0576	-2.8730	 1.8490	-1.0240	65.5710	99.9800	
   233	-2.8610	 1.6561	-1.2049	-3.0037	 1.9349	-1.0688	-2.9056	 1.8721	-1.0335	65.5013	99.9792	
   234	-2.8679	 1.6663	-1.2017	-3.0294	 1.9440	-1.0854	-2.9389	 1.8839	-1.0551	65.3620	99.9787	
   235	-2.8433	 1.6958	-1.1475	-2.9816	 1.9734	-1.0082	-2.8695	 1.9057	-0.9639	65.5713	99.9790	
   236	-2.7476	 1.6538	-1.0938	-2.8949	 1.8898	-1.0051	-2.8136	 1.7990	-1.0145	65.9836	99.9794	
   237	-2.8569	 1.4856	-1.3713	-2.9961	 1.7403	-1.2558	-2.9520	 1.6684	-1.2836	65.7745	99.9811	
   238	-2.7771	 1.5492	-1.2279	-3.0033	 1.8355	-1.1678	-2.7754	 1.8666	-0.9088	65.3013	99.9617	
   239	-2.9605	 1.5228	-1.4378	-3.0519	 1.7931	-1.2588	-2.9590	 1.7404	-1.2186	65.7772	99.9802	
   240	-2.9053	 1.5567	-1.3486	-2.9989	 1.8008	-1.1981	-2.9197	 1.7323	-1.1874	65.9839	99.9804	
   241	-2.8629	 1.5108	-1.3521	-2.9423	 1.7610	-1.1813	-2.8479	 1.7011	-1.1467	66.1222	99.9799	
   242	-2.8017	 1.5196	-1.2821	-2.8954	 1.7775	-1.1179	-2.8072	 1.7157	-1.0915	66.0533	99.9802	
   243	-2.7929	 1.5395	-1.2534	-2.8817	 1.7859	-1.0958	-2.8118	 1.7347	-1.0771	65.9843	99.9799	
   244	-2.8077	 1.5448	-1.2629	-2.9066	 1.8079	-1.0987	-2.8392	 1.7502	-1.0890	65.8462	99.9809	
   245	-2.8373	 1.5554	-1.2819	-2.9323	 1.8170	-1.1153	-2.8614	 1.7580	-1.1034	65.8462	99.9809	
   246	-2.8146	 1.5549	-1.2596	-2.8997	 1.8121	-1.0876	-2.8052	 1.7497	-1.0554	66.0535	99.9802	
   247	-2.7317	 1.5483	-1.1835	-2.8219	 1.7978	-1.0240	-2.7378	 1.7375	-1.0003	66.1223	99.9799	
   248	-2.7169	 1.5430	-1.1740	-2.8090	 1.7933	-1.0157	-2.7385	 1.7262	-1.0123	66.1222	99.9809	
   249	-2.7327	 1.5332	-1.1994	-2.8355	 1.7894	-1.0461	-2.7614	 1.7227	-1.0387	66.0532	99.9807	
   250	-2.7554	 1.5337	-1.2217	-2.8620	 1.7856	-1.0765	-2.7954	 1.7231	-1.0723	65.9841	99.9804	
   251	-2.7781	 1.5341	-1.2439	-2.8749	 1.7901	-1.0848	-2.8007	 1.7308	-1.0699	65.9843	99.9804	
   252	-2.7021	 1.5376	-1.1645	-2.7894	 1.7930	-0.9964	-2.6934	 1.7218	-0.9716	66.2599	99.9805	
   253	-2.6271	 1.5261	-1.1010	-2.7183	 1.7745	-0.9438	-2.6430	 1.7098	-0.9332	66.2599	99.9805	
   254	-2.6419	 1.5314	-1.1105	-2.7251	 1.7703	-0.9548	-2.6601	 1.7100	-0.9500	66.2600	99.9804	
   255	-2.6577	 1.5217	-1.1360	-2.7388	 1.7619	-0.9769	-2.6889	 1.7029	-0.9860	66.1911	99.9811	
   256	-2.6804	 1.5222	-1.1582	-2.7713	 1.7667	-1.0046	-2.7118	 1.6994	-1.0124	66.1911	99.9811	
   257	-2.6646	 1.5319	-1.1327	-2.7320	 1.7661	-0.9659	-2.6548	 1.7024	-0.9524	66.3974	99.9804	
   258	-2.5591	 1.5248	-1.0343	-2.6336	 1.7644	-0.8692	-2.5698	 1.7013	-0.8685	66.3973	99.9809	
   259	-2.5216	 1.5190	-1.0026	-2.6079	 1.7553	-0.8526	-2.5423	 1.6858	-0.8565	66.4662	99.9807	
   260	-2.5374	 1.5093	-1.0281	-2.6216	 1.7469	-0.8746	-2.5712	 1.6786	-0.8925	66.3977	99.9814	
   261	-2.5531	 1.4996	-1.0536	-2.6609	 1.7476	-0.9133	-2.6052	 1.6791	-0.9261	66.2601	99.9809	
   262	-2.5906	 1.5053	-1.0853	-2.6806	 1.7479	-0.9326	-2.6170	 1.6717	-0.9453	66.3978	99.9814	
   263	-2.5522	 1.5146	-1.0376	-2.6216	 1.7469	-0.8746	-2.5430	 1.6745	-0.8685	66.6032	99.9807	
   264	-2.4545	 1.5026	-0.9519	-2.5368	 1.7369	-0.8000	-2.4698	 1.6660	-0.8038	66.6032	99.9807	
   265	-2.4545	 1.5026	-0.9519	-2.5308	 1.7281	-0.8027	-2.4816	 1.6586	-0.8230	66.6037	99.9811	
   266	-2.4703	 1.4929	-0.9774	-2.5573	 1.7242	-0.8331	-2.5104	 1.6514	-0.8590	66.5353	99.9814	
   267	-2.5008	 1.4885	-1.0123	-2.5838	 1.7204	-0.8635	-2.5333	 1.6479	-0.8854	66.5353	99.9814	
   268	-2.5157	 1.4938	-1.0218	-2.6095	 1.7294	-0.8801	-2.5496	 1.6594	-0.8902	66.4665	99.9806	
   269	-2.4614	 1.5128	-0.9486	-2.5300	 1.7411	-0.7890	-2.4639	 1.6697	-0.7942	66.6717	99.9809	
   270	-2.3855	 1.5163	-0.8692	-2.4582	 1.7355	-0.7226	-2.4076	 1.6614	-0.7462	66.7406	99.9811	
   271	-2.3697	 1.5260	-0.8437	-2.4582	 1.7355	-0.7226	-2.4246	 1.6616	-0.7630	66.6730	99.9808	
   272	-2.3766	 1.5362	-0.8405	-2.4762	 1.7618	-0.7145	-2.4181	 1.6767	-0.7414	66.6725	99.9809	
   273	-2.3668	 1.5710	-0.7957	-2.4481	 1.7915	-0.6566	-2.4101	 1.7144	-0.6957	66.6035	99.9816	
   274	-2.3500	 1.5958	-0.7543	-2.4336	 1.8129	-0.6207	-2.3865	 1.7292	-0.6573	66.6719	99.9814	
   275	-2.2593	 1.5940	-0.6653	-2.3292	 1.8025	-0.5268	-2.2792	 1.7203	-0.5590	66.8765	99.9812	
   276	-2.1764	 1.5873	-0.5892	-2.2779	 1.7843	-0.4935	-2.2414	 1.6895	-0.5519	66.9472	99.9809	
   277	-2.1380	 1.5965	-0.5414	-2.2899	 1.8018	-0.4881	-2.2570	 1.7124	-0.5446	66.6733	99.9793	
   278	-2.0995	 1.6058	-0.4937	-2.3019	 1.8193	-0.4826	-2.2452	 1.7198	-0.5254	66.6049	99.9775	
   279	-1.9832	 1.6486	-0.3346	-2.2184	 1.8957	-0.3227	-2.0551	 1.8611	-0.1940	66.3273	99.9676	
   280	-2.0464	 1.7250	-0.3213	-2.1810	 1.9685	-0.2125	-2.1047	 1.8845	-0.2203	66.5324	99.9797	
   281	-1.9231	 1.7577	-0.1655	-2.0818	 1.9798	-0.1020	-2.0360	 1.8949	-0.1411	66.5332	99.9790	
   282	-1.8689	 1.7766	-0.0923	-2.0417	 1.9921	-0.0496	-2.0013	 1.9058	-0.0955	66.5334	99.9785	
   283	-1.9291	 1.7828	-0.1462	-2.1135	 1.9976	-0.1159	-2.0641	 1.8991	-0.1651	66.5340	99.9785	
   284	-2.0139	 1.7595	-0.2544	-2.1939	 1.9731	-0.2208	-2.1512	 1.8661	-0.2851	66.5348	99.9795	
   285	-2.1164	 1.6964	-0.4200	-2.2894	 1.9142	-0.3753	-2.2567	 1.8108	-0.4460	66.4667	99.9802	
   286	-2.2041	 1.6279	-0.5762	-2.3525	 1.8504	-0.5021	-2.2897	 1.7355	-0.5541	66.7416	99.9807	
   287	-2.1794	 1.5422	-0.6371	-2.3000	 1.7458	-0.5542	-2.2441	 1.6442	-0.6000	67.0164	99.9801	
   288	-2.1606	 1.4817	-0.6788	-2.2791	 1.6590	-0.6201	-2.2621	 1.5347	-0.7274	67.2971	99.9820	
   289	-2.2167	 1.4327	-0.7840	-2.3542	 1.6128	-0.7415	-2.3301	 1.5356	-0.7946	66.9514	99.9780	
   290	-2.1034	 1.5457	-0.5577	-2.2538	 1.7494	-0.5044	-2.1976	 1.6625	-0.5351	66.8788	99.9780	
   291	-2.0394	 1.5996	-0.4398	-2.1771	 1.8215	-0.3556	-2.0783	 1.7593	-0.3190	66.8055	99.9757	
   292	-1.8195	 1.7205	-0.0990	-1.9815	 1.9046	-0.0769	-1.9197	 1.8480	-0.0716	66.8059	99.9739	
   293	-1.8432	 1.7059	-0.1372	-1.9654	 1.9519	-0.0135	-1.8555	 1.8775	 0.0220	66.8692	99.9779	
   294	-1.7653	 1.7395	-0.0258	-1.9329	 1.9470	 0.0141	-1.8850	 1.8589	-0.0260	66.8062	99.9779	
   295	-1.8944	 1.6167	-0.2776	-2.0514	 1.8367	-0.2147	-1.9821	 1.7543	-0.2278	66.8750	99.9777	
   296	-2.0028	 1.5788	-0.4240	-2.1265	 1.7904	-0.3361	-2.0588	 1.7061	-0.3527	67.0122	99.9787	
   297	-2.1132	 1.5108	-0.6024	-2.2289	 1.7273	-0.5016	-2.1532	 1.6468	-0.5064	67.0131	99.9786	
   298	-2.1467	 1.4614	-0.6853	-2.2382	 1.6843	-0.5539	-2.1552	 1.6128	-0.5425	67.0802	99.9789	
   299	-2.1408	 1.4362	-0.7046	-2.2466	 1.6542	-0.5925	-2.1573	 1.5787	-0.5785	67.1496	99.9781	
   300	-2.2108	 1.4075	-0.8033	-2.3338	 1.6254	-0.7084	-2.2666	 1.5537	-0.7129	66.9472	99.9783	
   301	-2.3636	 1.3855	-0.9781	-2.4783	 1.6235	-0.8548	-2.4027	 1.5554	-0.8473	66.7413	99.9791	
   302	-2.4613	 1.3975	-1.0638	-2.5750	 1.6511	-0.9240	-2.4798	 1.5942	-0.8856	66.5346	99.9784	
   303	-2.4801	 1.4580	-1.0221	-2.5598	 1.6854	-0.8744	-2.4791	 1.6056	-0.8735	66.8097	99.9804	
   304	-2.4732	 1.4479	-1.0253	-2.5333	 1.6893	-0.8440	-2.4163	 1.6123	-0.8039	66.9438	99.9800	
   305	-2.4228	 1.4068	-1.0161	-2.5289	 1.6546	-0.8742	-2.4294	 1.5822	-0.8472	66.7403	99.9792	
   306	-2.4455	 1.4072	-1.0383	-2.5297	 1.6417	-0.8880	-2.4524	 1.5788	-0.8736	66.7406	99.9796	
   307	-2.4919	 1.3931	-1.0988	-2.5758	 1.6381	-0.9377	-2.4812	 1.5716	-0.9096	66.7403	99.9797	
   308	-2.5057	 1.4134	-1.0923	-2.5742	 1.6640	-0.9102	-2.4628	 1.5940	-0.8688	66.8076	99.9800	
   309	-2.4524	 1.4174	-1.0351	-2.5212	 1.6718	-0.8495	-2.4059	 1.5971	-0.8088	66.8753	99.9803	
   310	-2.3854	 1.4010	-0.9844	-2.4185	 1.6355	-0.7830	-2.3163	 1.5770	-0.7393	67.0787	99.9800	
   311	-2.3183	 1.3846	-0.9337	-2.3603	 1.6215	-0.7387	-2.2555	 1.5497	-0.7058	67.2152	99.9805	
   312	-2.3183	 1.3846	-0.9337	-2.3603	 1.6215	-0.7387	-2.2607	 1.5574	-0.7033	67.1470	99.9803	
   313	-2.3271	 1.3647	-0.9624	-2.3747	 1.6002	-0.7746	-2.2850	 1.5312	-0.7538	67.1486	99.9807	
   314	-2.3587	 1.3453	-1.0134	-2.4020	 1.5833	-0.8187	-2.3086	 1.5164	-0.7922	67.1486	99.9807	
   315	-2.3448	 1.3250	-1.0199	-2.3703	 1.5655	-0.8048	-2.2471	 1.5005	-0.7467	67.3499	99.9800	
   316	-2.2630	 1.3033	-0.9596	-2.2864	 1.5425	-0.7439	-2.1687	 1.4843	-0.6844	67.4167	99.9798	
   317	-2.2324	 1.3077	-0.9247	-2.2599	 1.5464	-0.7136	-2.1517	 1.4841	-0.6676	67.4174	99.9803	
   318	-2.2314	 1.3227	-0.9087	-2.2523	 1.5635	-0.6888	-2.1510	 1.4954	-0.6555	67.4174	99.9813	
   319	-2.2452	 1.3431	-0.9022	-2.2515	 1.5765	-0.6750	-2.1555	 1.5144	-0.6411	67.4167	99.9813	
   320	-2.2304	 1.3377	-0.8927	-2.2455	 1.5677	-0.6777	-2.1510	 1.4954	-0.6555	67.4863	99.9815	
   321	-2.1782	 1.3267	-0.8515	-2.1804	 1.5580	-0.6224	-2.0600	 1.4980	-0.5620	67.6171	99.9801	
   322	-2.0884	 1.3098	-0.7785	-2.1025	 1.5437	-0.5588	-1.9934	 1.4745	-0.5189	67.6858	99.9808	
   323	-2.1051	 1.2851	-0.8200	-2.1238	 1.5181	-0.6057	-2.0235	 1.4446	-0.5789	67.6883	99.9813	
   324	-2.1446	 1.2608	-0.8837	-2.1708	 1.5016	-0.6692	-2.0641	 1.4300	-0.6341	67.6210	99.9811	
   325	-2.1830	 1.2516	-0.9314	-2.1981	 1.4848	-0.7133	-2.0988	 1.4191	-0.6797	67.6218	99.9810	
   326	-2.1909	 1.2467	-0.9442	-2.1913	 1.4890	-0.7023	-2.0700	 1.4263	-0.6437	67.6858	99.9808	
   327	-2.0824	 1.2847	-0.7978	-2.0640	 1.5301	-0.5339	-1.9319	 1.4586	-0.4733	67.8832	99.9817	
   328	-1.9750	 1.3076	-0.6674	-1.9648	 1.5414	-0.4235	-1.8573	 1.4727	-0.3845	67.8841	99.9816	
   329	-1.9355	 1.3319	-0.6037	-1.9496	 1.5757	-0.3739	-1.8330	 1.4989	-0.3341	67.8164	99.9815	
   330	-1.9109	 1.3614	-0.5495	-1.9223	 1.5925	-0.3297	-1.8153	 1.5100	-0.3053	67.8851	99.9817	
   331	-1.8882	 1.3610	-0.5272	-1.9154	 1.5967	-0.3187	-1.8153	 1.5100	-0.3053	67.8191	99.9819	
   332	-1.8567	 1.3804	-0.4763	-1.8556	 1.6087	-0.2469	-1.7407	 1.5242	-0.2165	68.0166	99.9817	
   333	-1.7600	 1.3534	-0.4066	-1.7468	 1.5636	-0.1832	-1.6531	 1.4701	-0.1830	68.2883	99.9826	
   334	-1.7658	 1.2633	-0.5025	-1.7645	 1.4905	-0.2741	-1.6684	 1.4060	-0.2624	68.2217	99.9824	
   335	-1.7973	 1.2439	-0.5535	-1.7730	 1.4603	-0.3126	-1.6756	 1.3796	-0.2960	68.3560	99.9823	
   336	-1.8289	 1.2245	-0.6044	-1.8003	 1.4435	-0.3568	-1.7044	 1.3724	-0.3320	68.2883	99.9820	
   337	-1.8279	 1.2395	-0.5884	-1.7926	 1.4607	-0.3320	-1.6926	 1.3798	-0.3128	68.3548	99.9828	
   338	-1.7125	 1.2673	-0.4453	-1.6662	 1.4888	-0.1774	-1.5434	 1.4082	-0.1352	68.5473	99.9822	
   339	-1.5833	 1.2747	-0.3086	-1.5550	 1.4826	-0.0724	-1.4486	 1.3805	-0.0681	68.7536	99.9829	
   340	-1.5626	 1.2442	-0.3184	-1.5377	 1.4434	-0.0943	-1.4500	 1.3578	-0.0922	68.6889	99.9821	
   341	-1.5793	 1.2195	-0.3599	-1.5590	 1.4178	-0.1412	-1.4631	 1.3277	-0.1354	68.7578	99.9818	
   342	-1.6119	 1.1850	-0.4268	-1.5803	 1.3923	-0.1880	-1.4874	 1.3015	-0.1859	68.7578	99.9828	
   343	-1.6207	 1.1652	-0.4555	-1.5751	 1.3706	-0.2045	-1.4652	 1.2937	-0.1715	68.8196	99.9816	
   344	-1.5231	 1.1532	-0.3699	-1.4707	 1.3602	-0.1105	-1.3416	 1.2732	-0.0684	69.0814	99.9817	
   345	-1.4481	 1.1417	-0.3064	-1.3997	 1.3417	-0.0580	-1.2808	 1.2459	-0.0349	69.2176	99.9821	
   346	-1.4421	 1.1165	-0.3257	-1.3953	 1.3070	-0.0882	-1.3051	 1.2197	-0.0854	69.1568	99.9822	
   347	-1.4658	 1.1019	-0.3639	-1.4286	 1.2990	-0.1296	-1.3339	 1.2126	-0.1214	69.0909	99.9820	
   348	-1.5121	 1.0878	-0.4243	-1.4627	 1.2779	-0.1848	-1.3634	 1.1940	-0.1694	69.1584	99.9817	
   349	-1.4825	 1.0772	-0.4053	-1.4045	 1.2640	-0.1405	-1.2849	 1.1779	-0.1071	69.4176	99.9818	
   350	-1.3770	 1.0701	-0.3069	-1.2933	 1.2578	-0.0355	-1.1718	 1.1726	 0.0009	69.5448	99.9818	
   351	-1.3089	 1.0687	-0.2402	-1.2540	 1.2571	 0.0032	-1.1495	 1.1648	 0.0152	69.4849	99.9821	
   352	-1.3326	 1.0542	-0.2784	-1.2813	 1.2403	-0.0410	-1.1843	 1.1539	-0.0304	69.4212	99.9818	
   353	-1.3632	 1.0498	-0.3134	-1.3078	 1.2364	-0.0713	-1.2131	 1.1467	-0.0664	69.4229	99.9822	
   354	-1.4016	 1.0405	-0.3611	-1.3411	 1.2283	-0.1128	-1.2249	 1.1393	-0.0856	69.4867	99.9816	
   355	-1.3424	 1.0193	-0.3232	-1.2700	 1.2099	-0.0602	-1.1353	 1.1192	-0.0161	69.6790	99.9814	
   356	-1.2980	 1.0033	-0.2947	-1.2255	 1.1875	-0.0380	-1.1196	 1.0963	-0.0233	69.6847	99.9823	
   357	-1.3305	 0.9689	-0.3616	-1.2673	 1.1493	-0.1180	-1.1564	 1.0514	-0.1050	69.7578	99.9820	
   358	-1.3700	 0.9446	-0.4253	-1.3074	 1.1370	-0.1704	-1.1963	 1.0481	-0.1482	69.6231	99.9820	
   359	-1.3927	 0.9451	-0.4476	-1.3211	 1.1286	-0.1925	-1.2199	 1.0333	-0.1866	69.6943	99.9827	
   360	-1.3779	 0.9398	-0.4381	-1.2749	 1.1322	-0.1427	-1.1401	 1.0398	-0.1003	69.8783	99.9826	
   361	-1.2319	 0.9719	-0.2600	-1.1219	 1.1641	 0.0422	-0.9908	 1.0682	 0.0773	70.0021	99.9831	
   362	-1.1481	 0.9803	-0.1678	-1.0569	 1.1544	 0.0975	-0.9575	 1.0564	 0.0989	70.0125	99.9830	
   363	-1.1490	 0.9653	-0.1838	-1.0577	 1.1414	 0.0838	-0.9530	 1.0374	 0.0845	70.0796	99.9832	
   364	-1.1579	 0.9454	-0.2125	-1.0782	 1.1288	 0.0507	-0.9818	 1.0302	 0.0484	69.9495	99.9832	
   365	-1.1737	 0.9357	-0.2380	-1.0790	 1.1159	 0.0369	-0.9766	 1.0226	 0.0460	70.0125	99.9830	
   366	-1.1056	 0.9343	-0.1713	-0.9746	 1.1055	 0.1309	-0.8523	 1.0134	 0.1611	70.3298	99.9827	
   367	-1.0080	 0.9224	-0.0856	-0.8967	 1.0912	 0.1945	-0.7804	 0.9822	 0.2018	70.4680	99.9833	
   368	-1.0109	 0.8773	-0.1336	-0.9060	 1.0481	 0.1422	-0.8054	 0.9447	 0.1394	70.4080	99.9834	
   369	-1.0434	 0.8429	-0.2005	-0.9409	 1.0142	 0.0732	-0.8414	 0.9112	 0.0697	70.4126	99.9834	
   370	-1.0749	 0.8234	-0.2515	-0.9751	 0.9931	 0.0181	-0.8664	 0.8736	 0.0072	70.5514	99.9839	
   371	-1.0996	 0.7939	-0.3057	-0.9707	 0.9585	-0.0122	-0.8508	 0.8507	-0.0000	70.6759	99.9834	
   372	-0.9871	 0.7766	-0.2105	-0.8603	 0.9393	 0.0791	-0.7272	 0.8302	 0.1031	70.8666	99.9827	
   373	-0.9279	 0.7553	-0.1726	-0.8089	 0.9212	 0.1123	-0.6938	 0.8185	 0.1246	70.8023	99.9829	
   374	-0.9446	 0.7306	-0.2140	-0.8430	 0.9002	 0.0571	-0.7299	 0.7849	 0.0550	70.8123	99.9834	
   375	-0.9910	 0.7165	-0.2745	-0.8643	 0.8746	 0.0103	-0.7535	 0.7701	 0.0165	70.8768	99.9831	
   376	-0.9998	 0.6966	-0.3032	-0.8788	 0.8532	-0.0256	-0.7771	 0.7552	-0.0219	70.8148	99.9828	
   377	-0.9850	 0.6913	-0.2937	-0.8394	 0.8526	 0.0131	-0.7091	 0.7544	 0.0453	70.9977	99.9827	
   378	-0.8637	 0.6939	-0.1698	-0.7214	 0.8506	 0.1292	-0.5959	 0.7491	 0.1532	71.1259	99.9827	
   379	-0.8262	 0.6882	-0.1381	-0.6897	 0.8327	 0.1430	-0.5802	 0.7262	 0.1460	71.2007	99.9828	
   380	-0.8578	 0.6687	-0.1891	-0.7238	 0.8117	 0.0879	-0.6268	 0.7079	 0.0811	71.1419	99.9830	
   381	-0.8884	 0.6643	-0.2240	-0.7503	 0.8078	 0.0575	-0.6497	 0.7044	 0.0547	71.1419	99.9830	
   382	-0.8893	 0.6493	-0.2400	-0.7700	 0.8082	 0.0382	-0.6556	 0.7007	 0.0451	71.0750	99.9829	
   383	-0.8430	 0.6634	-0.1796	-0.6973	 0.8156	 0.1182	-0.5587	 0.7070	 0.1483	71.3232	99.9825	
   384	-0.7296	 0.6612	-0.0684	-0.5930	 0.8052	 0.2122	-0.4684	 0.6983	 0.2298	71.3899	99.9822	
   385	-0.7078	 0.6457	-0.0621	-0.5809	 0.7877	 0.2068	-0.4750	 0.6832	 0.2082	71.3316	99.9823	
   386	-0.7315	 0.6311	-0.1004	-0.6014	 0.7751	 0.1737	-0.4934	 0.6608	 0.1674	71.4012	99.9831	
   387	-0.7236	 0.6360	-0.0876	-0.5886	 0.7705	 0.1820	-0.4934	 0.6608	 0.1674	71.4040	99.9830	
   388	-0.7394	 0.6263	-0.1131	-0.6090	 0.7579	 0.1489	-0.5059	 0.6420	 0.1361	71.4737	99.9828	
   389	-0.7029	 0.6055	-0.0974	-0.5645	 0.7356	 0.1711	-0.4392	 0.6185	 0.1793	71.6625	99.9821	
   390	-0.6289	 0.5790	-0.0499	-0.5011	 0.6999	 0.1988	-0.3850	 0.5762	 0.1911	71.8021	99.9821	
   391	-0.6791	 0.5048	-0.1743	-0.5923	 0.6064	 0.0141	-0.5044	 0.4794	-0.0250	71.7745	99.9811	
   392	-0.8201	 0.4324	-0.3877	-0.7408	 0.5398	-0.2011	-0.6335	 0.4091	-0.2243	71.7867	99.9806	
   393	-0.9374	 0.3746	-0.5628	-0.8501	 0.4725	-0.3776	-0.7626	 0.3389	-0.4236	71.8082	99.9814	
   394	-1.0478	 0.3066	-0.7412	-0.9730	 0.3968	-0.5762	-0.8740	 0.2798	-0.5941	71.7527	99.9790	
   395	-1.0320	 0.3163	-0.7157	-0.9192	 0.4175	-0.5017	-0.7698	 0.3126	-0.4573	71.9153	99.9779	
   396	-0.8940	 0.3437	-0.5503	-0.7662	 0.4494	-0.3168	-0.6258	 0.3485	-0.2773	71.9638	99.9787	
   397	-0.8644	 0.3330	-0.5313	-0.7542	 0.4319	-0.3222	-0.6435	 0.3374	-0.3061	71.8449	99.9786	
   398	-0.8949	 0.3286	-0.5663	-0.7867	 0.4368	-0.3499	-0.6664	 0.3339	-0.3325	71.8449	99.9792	
   399	-0.9088	 0.3490	-0.5598	-0.7859	 0.4498	-0.3361	-0.6598	 0.3490	-0.3109	71.9060	99.9789	
   400	-0.8930	 0.3587	-0.5343	-0.7782	 0.4669	-0.3113	-0.6421	 0.3601	-0.2820	71.9029	99.9790	
   401	-0.8151	 0.3922	-0.4229	-0.6714	 0.4954	-0.1760	-0.5321	 0.3965	-0.1356	72.0151	99.9790	
   402	-0.6849	 0.4147	-0.2703	-0.5457	 0.5105	-0.0352	-0.4064	 0.4100	 0.0036	72.1394	99.9785	
   403	-0.6317	 0.4186	-0.2131	-0.5192	 0.5144	-0.0048	-0.3894	 0.4098	 0.0204	72.0821	99.9783	
   404	-0.6622	 0.4142	-0.2480	-0.5457	 0.5105	-0.0352	-0.4294	 0.4065	-0.0228	72.0215	99.9790	
   405	-0.6849	 0.4147	-0.2703	-0.5722	 0.5067	-0.0656	-0.4464	 0.4067	-0.0396	72.0215	99.9779	
   406	-0.7076	 0.4151	-0.2925	-0.5919	 0.5070	-0.0849	-0.4634	 0.4070	-0.0564	72.0215	99.9779	
   407	-0.6613	 0.4292	-0.2320	-0.5184	 0.5274	 0.0089	-0.3710	 0.4322	 0.0612	72.1297	99.9780	
   408	-0.5232	 0.4565	-0.0667	-0.3731	 0.5422	 0.1691	-0.2395	 0.4495	 0.2100	72.2534	99.9780	
   409	-0.4473	 0.4600	 0.0128	-0.3269	 0.5457	 0.2188	-0.2055	 0.4490	 0.2436	72.1965	99.9777	
   410	-0.4700	 0.4605	-0.0095	-0.3526	 0.5548	 0.2022	-0.2277	 0.4569	 0.2292	72.1297	99.9780	
   411	-0.4690	 0.4755	 0.0065	-0.3450	 0.5720	 0.2270	-0.2152	 0.4756	 0.2604	72.1233	99.9781	
   412	-0.4059	 0.5144	 0.1085	-0.2956	 0.6273	 0.3317	-0.1666	 0.5280	 0.3613	71.9837	99.9787	
   413	-0.3349	 0.5580	 0.2231	-0.2076	 0.6690	 0.4614	-0.0671	 0.5796	 0.5126	72.0283	99.9780	
   414	-0.1259	 0.6291	 0.5032	 0.0068	 0.7389	 0.7457	 0.1523	 0.6411	 0.7934	72.2015	99.9784	
   415	-0.0036	 0.6467	 0.6431	 0.1060	 0.7502	 0.8561	 0.2269	 0.6553	 0.8822	72.1418	99.9781	
   416	 0.0201	 0.6612	 0.6813	 0.1136	 0.7673	 0.8809	 0.2276	 0.6666	 0.8942	72.0820	99.9784	
   417	 0.0053	 0.6665	 0.6718	 0.0743	 0.7680	 0.8423	 0.1877	 0.6634	 0.8511	72.0283	99.9775	
   418	-0.0480	 0.6626	 0.6146	 0.0349	 0.7686	 0.8036	 0.1596	 0.6675	 0.8271	72.0220	99.9776	
   419	-0.0470	 0.6776	 0.6306	 0.0358	 0.7816	 0.8173	 0.1426	 0.6677	 0.8103	72.0314	99.9791	
   420	-0.0391	 0.6825	 0.6433	 0.0494	 0.7900	 0.8394	 0.1780	 0.6900	 0.8679	72.0158	99.9776	
   421	 0.0901	 0.6899	 0.7800	 0.1683	 0.8010	 0.9692	 0.2859	 0.6924	 0.9783	72.0788	99.9785	
   422	 0.1354	 0.6890	 0.8244	 0.2068	 0.7873	 0.9941	 0.3134	 0.6769	 0.9902	72.1514	99.9781	
   423	 0.1118	 0.6744	 0.7862	 0.1666	 0.7751	 0.9417	 0.2616	 0.6662	 0.9278	72.0314	99.9781	
   424	 0.0664	 0.6753	 0.7417	 0.1213	 0.7845	 0.9057	 0.2276	 0.6666	 0.8942	72.0314	99.9787	
   425	 0.0437	 0.6758	 0.7195	 0.1008	 0.7719	 0.8726	 0.1988	 0.6594	 0.8582	72.0377	99.9780	
   426	 0.0131	 0.6714	 0.6845	 0.0554	 0.7813	 0.8367	 0.1648	 0.6599	 0.8247	71.9744	99.9784	
   427	-0.0322	 0.6723	 0.6401	 0.0289	 0.7774	 0.8063	 0.1367	 0.6640	 0.8007	71.9713	99.9784	
   428	 0.0220	 0.6913	 0.7133	 0.1024	 0.7978	 0.9002	 0.2342	 0.6817	 0.9159	72.1482	99.9782	
   429	 0.1128	 0.6894	 0.8022	 0.1811	 0.7964	 0.9775	 0.2911	 0.6847	 0.9759	72.0852	99.9784	
   430	 0.1128	 0.6894	 0.8022	 0.1743	 0.7922	 0.9665	 0.2741	 0.6849	 0.9591	72.0252	99.9781	
   431	 0.0901	 0.6899	 0.7800	 0.1357	 0.8058	 0.9416	 0.2512	 0.6815	 0.9327	72.0283	99.9788	
   432	 0.0753	 0.6952	 0.7705	 0.1229	 0.8104	 0.9333	 0.2290	 0.6893	 0.9183	71.9650	99.9790	
   433	 0.0674	 0.6904	 0.7577	 0.1092	 0.8020	 0.9112	 0.2113	 0.6782	 0.8895	71.9713	99.9790	
   434	 0.0299	 0.6961	 0.7260	 0.0699	 0.8026	 0.8725	 0.1714	 0.6749	 0.8463	71.9775	99.9789	
   435	 0.0299	 0.6961	 0.7260	 0.0835	 0.8110	 0.8946	 0.2009	 0.6935	 0.8943	71.9620	99.9785	
   436	 0.1295	 0.7142	 0.8437	 0.1956	 0.8178	 1.0133	 0.3088	 0.6958	 1.0047	72.1514	99.9787	
   437	 0.1601	 0.7186	 0.8786	 0.2084	 0.8132	 1.0217	 0.3029	 0.6921	 0.9951	72.0978	99.9784	
   438	 0.1137	 0.7045	 0.8182	 0.1554	 0.8055	 0.9609	 0.2571	 0.6852	 0.9423	72.0346	99.9781	
   439	 0.0832	 0.7001	 0.7832	 0.1229	 0.8104	 0.9333	 0.2231	 0.6856	 0.9087	71.9713	99.9790	
   440	 0.0605	 0.7005	 0.7610	 0.0904	 0.8152	 0.9056	 0.1950	 0.6897	 0.8847	71.9079	99.9787	
   441	 0.0378	 0.7010	 0.7387	 0.0639	 0.8114	 0.8752	 0.1609	 0.6902	 0.8511	71.8475	99.9784	
   442	 0.0003	 0.7067	 0.7070	 0.0382	 0.8204	 0.8586	 0.1446	 0.7017	 0.8464	71.8414	99.9784	
   443	 0.0930	 0.7350	 0.8279	 0.1382	 0.8447	 0.9828	 0.2651	 0.7229	 0.9880	72.0220	99.9777	
   444	 0.1995	 0.7428	 0.9423	 0.2040	 0.8479	 1.0519	 0.3102	 0.7185	 1.0287	71.9713	99.9774	
   445	 0.1689	 0.7384	 0.9074	 0.1767	 0.8311	 1.0078	 0.2644	 0.7115	 0.9759	71.9140	99.9770	
   446	 0.1226	 0.7243	 0.8469	 0.1237	 0.8233	 0.9470	 0.2238	 0.6969	 0.9207	71.9171	99.9770	
   447	 0.0920	 0.7199	 0.8119	 0.0972	 0.8194	 0.9166	 0.1950	 0.6897	 0.8847	71.9202	99.9776	
   448	 0.0762	 0.7102	 0.7865	 0.0835	 0.8110	 0.8946	 0.1721	 0.6863	 0.8583	71.8566	99.9778	
   449	 0.0614	 0.7155	 0.7770	 0.0835	 0.8110	 0.8946	 0.1727	 0.6976	 0.8703	71.8505	99.9772	
   450	 0.1532	 0.7287	 0.8819	 0.1827	 0.8223	 1.0050	 0.2866	 0.7037	 0.9903	72.0346	99.9770	
   451	 0.2301	 0.7473	 0.9773	 0.2434	 0.8472	 1.0906	 0.3442	 0.7181	 1.0623	72.0346	99.9777	
   452	 0.3158	 0.7856	 1.1015	 0.2843	 0.8725	 1.1568	 0.3567	 0.7368	 1.0935	71.9233	99.9770	
   453	 0.3010	 0.7909	 1.0920	 0.2458	 0.8861	 1.1319	 0.3182	 0.7563	 1.0744	71.7293	99.9762	
   454	 0.1876	 0.7932	 0.9808	 0.2141	 0.9039	 1.1180	 0.3070	 0.7602	 1.0672	71.9682	99.9801	
   455	 0.1788	 0.7733	 0.9521	 0.2177	 0.8563	 1.0740	 0.2807	 0.7000	 0.9807	72.1868	99.9812	
   456	 0.2666	 0.7265	 0.9931	 0.2751	 0.8294	 1.1045	 0.3939	 0.6948	 1.0886	72.1610	99.9772	
   457	 0.4737	 0.7674	 1.2411	 0.4674	 0.8607	 1.3281	 0.5844	 0.7490	 1.3335	72.1418	99.9744	
   458	 0.7202	 0.8327	 1.5529	 0.5750	 0.9021	 1.4771	 0.6375	 0.7824	 1.4199	71.7960	99.9705	
   459	 0.7350	 0.8274	 1.5624	 0.5742	 0.8892	 1.4634	 0.6132	 0.7562	 1.3695	71.8142	99.9716	
   460	 0.6867	 0.7832	 1.4699	 0.5264	 0.8597	 1.3861	 0.5549	 0.7305	 1.2854	71.6863	99.9728	
   461	 0.5713	 0.7555	 1.3268	 0.4658	 0.8348	 1.3006	 0.4973	 0.7161	 1.2134	71.7413	99.9743	
   462	 0.4481	 0.7228	 1.1709	 0.3863	 0.8232	 1.2095	 0.4567	 0.7015	 1.1582	71.8536	99.9757	
   463	 0.3465	 0.6748	 1.0213	 0.3634	 0.7717	 1.1351	 0.4540	 0.6561	 1.1101	72.1610	99.9770	
   464	 0.1434	 0.5786	 0.7220	 0.1935	 0.6795	 0.8730	 0.2902	 0.5750	 0.8652	72.1674	99.9775	
   465	-0.1435	 0.4740	 0.3305	-0.0627	 0.5715	 0.5088	 0.0629	 0.4758	 0.5387	72.2436	99.9765	
   466	-0.3831	 0.3986	 0.0155	-0.2840	 0.4975	 0.2135	-0.1395	 0.4141	 0.2746	72.1868	99.9756	
   467	-0.5606	 0.3470	-0.2136	-0.4703	 0.4574	-0.0129	-0.3012	 0.3670	 0.0658	72.1329	99.9754	
   468	-0.6996	 0.3047	-0.3949	-0.6036	 0.4251	-0.1785	-0.4165	 0.3383	-0.0782	72.0694	99.9751	
   469	-0.7144	 0.3100	-0.4044	-0.5779	 0.4160	-0.1619	-0.3824	 0.3378	-0.0446	72.2534	99.9748	
   470	-0.6690	 0.3091	-0.3600	-0.5574	 0.4286	-0.1288	-0.3647	 0.3489	-0.0158	72.1233	99.9749	
   471	-0.7144	 0.3100	-0.4044	-0.6164	 0.4296	-0.1868	-0.4335	 0.3385	-0.0950	72.0725	99.9757	
   472	-0.7992	 0.2866	-0.5126	-0.7036	 0.4008	-0.3027	-0.5206	 0.3056	-0.2150	72.0853	99.9756	
   473	-0.8998	 0.2536	-0.6462	-0.8044	 0.3637	-0.4407	-0.6306	 0.2691	-0.3614	72.0341	99.9758	
   474	-1.0161	 0.2108	-0.8054	-0.9385	 0.3184	-0.6201	-0.7701	 0.2142	-0.5559	71.9922	99.9760	
   475	-1.1246	 0.1728	-0.9518	-1.0461	 0.2770	-0.7691	-0.8520	 0.1736	-0.6784	72.0629	99.9745	
   476	-1.1344	 0.1379	-0.9965	-1.0682	 0.2385	-0.8297	-0.8881	 0.1401	-0.7480	72.0081	99.9741	
   477	-1.2350	 0.1049	-1.1301	-1.2084	 0.2020	-1.0064	-1.0321	 0.1041	-0.9280	71.8329	99.9725	
   478	-1.3967	 0.0630	-1.3337	-1.3810	 0.1703	-1.2107	-1.1932	 0.0683	-1.1248	71.7121	99.9725	
   479	-1.5496	 0.0410	-1.5086	-1.5211	 0.1338	-1.3874	-1.3365	 0.0437	-1.2928	71.6560	99.9714	
   480	-1.6876	 0.0137	-1.6740	-1.6605	 0.1102	-1.5503	-1.4636	 0.0075	-1.4560	71.6681	99.9720	
   481	-1.8030	-0.0141	-1.8171	-1.7801	 0.0863	-1.6938	-1.5951	-0.0097	-1.6048	71.4773	99.9722	
   482	-1.8534	 0.0270	-1.8264	-1.8299	 0.1303	-1.6995	-1.6212	 0.0285	-1.5927	71.4714	99.9717	
   483	-1.7430	 0.0950	-1.6480	-1.7259	 0.2193	-1.5065	-1.5084	 0.1102	-1.3982	71.3855	99.9729	
   484	-1.6375	 0.2031	-1.4344	-1.6407	 0.3216	-1.3191	-1.4623	 0.2156	-1.2468	71.1175	99.9734	
   485	-1.6317	 0.2932	-1.3385	-1.6402	 0.4340	-1.2063	-1.4686	 0.2989	-1.1698	70.9806	99.9771	
   486	-1.6268	 0.3683	-1.2585	-1.6285	 0.5159	-1.1127	-1.4690	 0.3859	-1.0832	70.7702	99.9780	
   487	-1.6151	 0.4333	-1.1818	-1.5912	 0.5887	-1.0025	-1.4139	 0.4532	-0.9607	70.8207	99.9789	
   488	-1.5658	 0.4924	-1.0734	-1.4948	 0.6605	-0.8342	-1.2907	 0.5197	-0.7710	70.9932	99.9804	
   489	-1.5372	 0.4668	-1.0704	-1.4442	 0.6294	-0.8148	-1.2529	 0.4890	-0.7639	71.1258	99.9814	
   490	-1.5382	 0.4518	-1.0864	-1.3330	 0.6232	-0.7098	-1.1036	 0.5173	-0.5863	71.4040	99.9818	
   491	-1.2768	 0.5117	-0.7651	-1.0475	 0.6746	-0.3729	-0.8124	 0.5476	-0.2647	71.8414	99.9831	
   492	-1.0352	 0.5019	-0.5333	-0.8797	 0.6285	-0.2512	-0.7269	 0.4595	-0.2674	72.0310	99.9847	
   493	-0.9602	 0.4903	-0.4699	-0.8909	 0.6590	-0.2320	-0.7183	 0.5086	-0.2097	71.4967	99.9821	
   494	-0.8548	 0.5985	-0.2563	-0.7989	 0.7654	-0.0335	-0.6375	 0.6248	-0.0126	71.2868	99.9814	
   495	-0.9415	 0.5451	-0.3964	-0.9090	 0.6852	-0.2238	-0.7915	 0.5171	-0.2744	71.3992	99.9828	
   496	-1.3585	 0.3028	-1.0557	-1.2845	 0.4539	-0.8306	-1.1434	 0.3287	-0.8147	71.2778	99.9812	
   497	-1.5271	 0.2711	-1.2560	-1.3640	 0.4423	-0.9217	-1.1781	 0.3178	-0.8603	71.5141	99.9833	
   498	-1.4275	 0.2892	-1.1384	-1.2761	 0.4840	-0.7921	-1.0014	 0.3307	-0.6707	71.8812	99.9822	
   499	-1.3437	 0.2975	-1.0462	-1.1271	 0.4512	-0.6759	-0.8914	 0.3671	-0.5243	71.8566	99.9793	
   500	-1.1908	 0.3195	-0.8713	-0.9954	 0.4576	-0.5378	-0.8063	 0.3660	-0.4403	71.8720	99.9802	
   501	-1.2224	 0.3001	-0.9223	-1.0159	 0.4450	-0.5709	-0.8129	 0.3509	-0.4620	71.9326	99.9805	
   502	-1.1760	 0.3142	-0.8618	-0.9689	 0.4615	-0.5074	-0.7775	 0.3732	-0.4043	71.8628	99.9808	
   503	-1.1287	 0.3433	-0.7854	-0.9143	 0.4952	-0.4192	-0.7074	 0.4063	-0.3011	71.9140	99.9806	
   504	-1.0735	 0.3773	-0.6962	-0.8597	 0.5288	-0.3309	-0.6543	 0.4397	-0.2146	71.9079	99.9807	
   505	-1.0341	 0.4016	-0.6325	-0.8195	 0.5411	-0.2785	-0.6085	 0.4467	-0.1619	72.0377	99.9801	
   506	-0.9433	 0.3998	-0.5436	-0.7152	 0.5307	-0.1845	-0.5064	 0.4453	-0.0611	72.1578	99.9796	
   507	-0.8920	 0.3737	-0.5183	-0.6843	 0.4999	-0.1844	-0.4752	 0.3995	-0.0756	72.3003	99.9796	
   508	-0.9088	 0.3490	-0.5598	-0.6791	 0.4782	-0.2008	-0.4818	 0.3845	-0.0973	72.2970	99.9806	
   509	-0.9167	 0.3441	-0.5725	-0.6799	 0.4653	-0.2146	-0.4936	 0.3771	-0.1165	72.3003	99.9805	
   510	-0.9019	 0.3388	-0.5630	-0.6662	 0.4737	-0.1925	-0.4759	 0.3882	-0.0877	72.2273	99.9808	
   511	-0.8388	 0.3776	-0.4611	-0.5987	 0.5028	-0.0960	-0.4123	 0.4063	-0.0060	72.3567	99.9813	
   512	-0.8082	 0.3820	-0.4261	-0.5791	 0.5025	-0.0766	-0.4071	 0.3987	-0.0085	72.3667	99.9817	
   513	-0.7559	 0.3710	-0.3849	-0.5201	 0.5015	-0.0186	-0.3221	 0.3976	 0.0755	72.4792	99.9814	
   514	-0.6021	 0.4080	-0.1941	-0.3542	 0.5289	 0.1747	-0.1617	 0.4220	 0.2603	72.6605	99.9817	
   515	-0.4798	 0.4256	-0.0542	-0.2619	 0.5360	 0.2741	-0.0937	 0.4211	 0.3274	72.6744	99.9816	
   516	-0.4729	 0.4154	-0.0574	-0.2559	 0.5272	 0.2714	-0.0885	 0.4135	 0.3250	72.6744	99.9816	
   517	-0.4344	 0.4247	-0.0097	-0.2097	 0.5308	 0.3211	-0.0596	 0.4207	 0.3610	72.6744	99.9820	
   518	-0.4048	 0.4141	 0.0093	-0.1968	 0.5262	 0.3294	-0.0544	 0.4130	 0.3586	72.6151	99.9823	
   519	-0.3812	 0.4286	 0.0475	-0.1635	 0.5343	 0.3708	-0.0086	 0.4200	 0.4114	72.7370	99.9818	
   520	-0.2825	 0.4317	 0.1492	-0.0712	 0.5414	 0.4702	 0.1111	 0.4298	 0.5410	72.8479	99.9805	
   521	-0.1227	 0.4435	 0.3208	 0.0794	 0.5345	 0.6139	 0.2118	 0.4058	 0.6177	72.9979	99.9823	
   522	-0.2183	 0.3703	 0.1519	-0.0359	 0.4760	 0.4401	 0.1011	 0.3581	 0.4592	72.8138	99.9816	
   523	-0.2401	 0.3857	 0.1457	-0.0154	 0.4886	 0.4732	 0.1306	 0.3766	 0.5072	72.9246	99.9820	
   524	-0.2095	 0.3901	 0.1806	 0.0035	 0.4753	 0.4788	 0.1181	 0.3579	 0.4760	72.9463	99.9823	
   525	-0.2489	 0.3659	 0.1169	-0.0435	 0.4588	 0.4153	 0.0886	 0.3393	 0.4280	72.9463	99.9819	
   526	-0.2331	 0.3756	 0.1424	-0.0162	 0.4757	 0.4595	 0.1463	 0.3537	 0.5000	73.0567	99.9816	
   527	-0.0961	 0.3879	 0.2918	 0.1283	 0.4775	 0.6059	 0.2830	 0.3633	 0.6463	73.1738	99.9810	
   528	-0.0053	 0.3861	 0.3807	 0.2199	 0.4717	 0.6915	 0.3452	 0.3587	 0.7039	73.1775	99.9819	
   529	 0.0183	 0.4006	 0.4190	 0.2335	 0.4801	 0.7136	 0.3511	 0.3624	 0.7135	73.1850	99.9819	
   530	 0.0095	 0.3807	 0.3902	 0.1994	 0.4591	 0.6584	 0.3157	 0.3402	 0.6559	73.1338	99.9811	
   531	-0.0221	 0.3613	 0.3393	 0.1592	 0.4468	 0.6060	 0.2751	 0.3256	 0.6006	73.0751	99.9814	
   532	-0.0526	 0.3569	 0.3043	 0.1396	 0.4471	 0.5867	 0.2647	 0.3408	 0.6055	72.9979	99.9807	
   533	 0.0105	 0.3958	 0.4062	 0.2275	 0.4888	 0.7163	 0.3747	 0.3772	 0.7519	73.1663	99.9811	
   534	 0.1554	 0.4129	 0.5683	 0.3592	 0.4952	 0.8544	 0.4937	 0.3757	 0.8695	73.2980	99.9810	
   535	 0.2156	 0.4067	 0.6223	 0.3977	 0.4816	 0.8794	 0.5042	 0.3604	 0.8646	73.2510	99.9812	
   536	 0.1771	 0.3974	 0.5746	 0.3516	 0.4781	 0.8296	 0.4754	 0.3533	 0.8286	73.2510	99.9808	
   537	 0.1623	 0.4028	 0.5651	 0.3516	 0.4781	 0.8296	 0.4642	 0.3572	 0.8214	73.2510	99.9812	
   538	 0.1860	 0.4173	 0.6033	 0.3652	 0.4865	 0.8517	 0.4760	 0.3646	 0.8406	73.2547	99.9807	
   539	 0.2008	 0.4120	 0.6128	 0.3652	 0.4865	 0.8517	 0.4701	 0.3609	 0.8310	73.1962	99.9810	
   540	 0.2402	 0.4363	 0.6765	 0.4258	 0.5114	 0.9373	 0.5514	 0.3901	 0.9415	73.3018	99.9805	
   541	 0.3694	 0.4437	 0.8132	 0.5439	 0.5094	 1.0533	 0.6534	 0.3888	 1.0422	73.3676	99.9802	
   542	 0.4148	 0.4428	 0.8576	 0.5636	 0.5091	 1.0726	 0.6697	 0.3772	 1.0470	73.3791	99.9803	
   543	 0.3764	 0.4336	 0.8099	 0.5234	 0.4968	 1.0202	 0.6180	 0.3665	 0.9846	73.3246	99.9804	
   544	 0.3616	 0.4389	 0.8004	 0.5174	 0.5055	 1.0229	 0.6135	 0.3855	 0.9990	73.2510	99.9802	
   545	 0.3842	 0.4384	 0.8227	 0.5182	 0.5185	 1.0367	 0.6194	 0.3892	 1.0086	73.1887	99.9806	
   546	 0.3842	 0.4384	 0.8227	 0.5045	 0.5101	 1.0146	 0.5965	 0.3857	 0.9822	73.1338	99.9797	
   547	 0.3764	 0.4336	 0.8099	 0.5182	 0.5185	 1.0367	 0.6423	 0.3927	 1.0350	73.2397	99.9799	
   548	 0.4838	 0.4565	 0.9403	 0.6370	 0.5294	 1.1665	 0.7569	 0.4101	 1.1670	73.3561	99.9793	
   549	 0.5292	 0.4556	 0.9848	 0.6635	 0.5333	 1.1969	 0.7628	 0.4139	 1.1766	73.2359	99.9798	
   550	 0.5144	 0.4609	 0.9753	 0.6507	 0.5379	 1.1885	 0.7516	 0.4178	 1.1694	73.2359	99.9798	
   551	 0.5144	 0.4609	 0.9753	 0.6439	 0.5336	 1.1775	 0.7280	 0.4030	 1.1310	73.2510	99.9808	
   552	 0.4908	 0.4463	 0.9371	 0.5969	 0.5172	 1.1140	 0.6933	 0.3921	 1.0854	73.1925	99.9790	
   553	 0.4917	 0.4613	 0.9531	 0.6045	 0.5343	 1.1388	 0.6999	 0.4071	 1.1070	73.1887	99.9795	
   554	 0.5233	 0.4807	 1.0040	 0.6387	 0.5553	 1.1940	 0.7634	 0.4252	 1.1886	73.3018	99.9786	
   555	 0.6613	 0.5081	 1.1694	 0.7840	 0.5702	 1.3542	 0.8898	 0.4500	 1.3398	73.3561	99.9783	
   556	 0.7521	 0.5063	 1.2583	 0.8302	 0.5737	 1.4039	 0.9179	 0.4459	 1.3638	73.2434	99.9783	
   557	 0.7294	 0.5067	 1.2361	 0.8037	 0.5698	 1.3735	 0.8728	 0.4503	 1.3230	73.1227	99.9782	
   558	 0.7619	 0.5411	 1.3031	 0.8446	 0.5951	 1.4397	 0.9252	 0.4723	 1.3975	73.2434	99.9777	
   559	 0.8694	 0.5641	 1.4335	 0.8848	 0.6074	 1.4922	 0.9481	 0.4758	 1.4239	73.1413	99.9760	
   560	 0.9157	 0.5782	 1.4939	 0.8924	 0.6245	 1.5169	 0.9436	 0.4947	 1.4383	72.9572	99.9751	
   561	 0.9473	 0.5976	 1.5449	 0.9258	 0.6326	 1.5584	 0.9894	 0.5017	 1.4911	73.0824	99.9740	
   562	 1.0223	 0.5861	 1.6083	 1.0045	 0.6313	 1.6357	 1.0633	 0.5046	 1.5679	73.0714	99.9746	
   563	 1.0223	 0.5861	 1.6083	 1.0113	 0.6355	 1.6467	 1.0751	 0.5120	 1.5871	73.0640	99.9746	
   564	 1.0153	 0.5962	 1.6116	 0.9856	 0.6445	 1.6301	 1.0463	 0.5048	 1.5511	73.0787	99.9752	
   565	 1.0153	 0.5962	 1.6116	 0.9848	 0.6316	 1.6164	 1.0293	 0.5050	 1.5343	73.0198	99.9742	
   566	 0.9996	 0.5865	 1.5861	 0.9515	 0.6235	 1.5750	 0.9887	 0.4904	 1.4791	72.9681	99.9745	
   567	 0.8911	 0.5486	 1.4397	 0.8438	 0.5821	 1.4260	 0.8787	 0.4540	 1.3326	72.9161	99.9741	
   568	 0.7373	 0.5116	 1.2488	 0.7643	 0.5705	 1.3348	 0.8506	 0.4581	 1.3087	73.0016	99.9749	
   569	 0.7757	 0.5208	 1.2966	 0.8302	 0.5737	 1.4039	 0.9127	 0.4535	 1.3662	73.1887	99.9763	
   570	 0.6830	 0.4926	 1.1756	 0.7370	 0.5537	 1.2907	 0.8211	 0.4396	 1.2606	73.0640	99.9763	
   571	 0.5765	 0.4847	 1.0612	 0.6712	 0.5505	 1.2216	 0.7759	 0.4439	 1.2199	73.1116	99.9766	
   572	 0.5913	 0.4794	 1.0707	 0.6772	 0.5417	 1.2189	 0.7641	 0.4365	 1.2007	73.0567	99.9768	
   573	 0.6377	 0.4935	 1.1312	 0.7037	 0.5456	 1.2493	 0.7811	 0.4363	 1.2175	73.0677	99.9762	
   574	 0.7136	 0.4970	 1.2106	 0.7113	 0.5628	 1.2741	 0.7988	 0.4474	 1.2463	72.8836	99.9743	
   575	 0.8744	 0.5239	 1.3982	 0.8498	 0.5734	 1.4232	 0.9134	 0.4649	 1.3783	72.8872	99.9730	
   576	 1.0647	 0.5401	 1.6048	 0.9627	 0.5931	 1.5558	 1.0279	 0.4823	 1.5102	72.7652	99.9701	
   577	 1.1722	 0.5630	 1.7352	 1.0157	 0.6008	 1.6165	 1.0397	 0.4897	 1.5295	72.5969	99.9689	
   578	 1.1574	 0.5683	 1.7257	 0.9960	 0.6012	 1.5972	 1.0168	 0.4862	 1.5031	72.6039	99.9689	
   579	 1.1032	 0.5494	 1.6525	 0.9430	 0.5934	 1.5364	 0.9710	 0.4793	 1.4503	72.5370	99.9692	
   580	 1.0726	 0.5450	 1.6176	 0.9302	 0.5979	 1.5281	 0.9547	 0.4908	 1.4455	72.4634	99.9702	
   581	 1.0351	 0.5507	 1.5858	 0.9302	 0.5979	 1.5281	 0.9769	 0.4830	 1.4599	72.7128	99.9709	
   582	 1.0559	 0.5202	 1.5761	 0.9671	 0.5584	 1.5255	 0.9977	 0.4524	 1.4502	72.7794	99.9711	
   583	 0.9789	 0.5017	 1.4807	 0.9149	 0.5636	 1.4785	 0.9644	 0.4642	 1.4286	72.6953	99.9722	
   584	 0.9020	 0.4832	 1.3852	 0.8542	 0.5387	 1.3930	 0.8884	 0.4274	 1.3158	72.7758	99.9741	
   585	 0.7945	 0.4603	 1.2548	 0.7944	 0.5268	 1.3212	 0.8426	 0.4204	 1.2630	72.8245	99.9756	
   586	 0.7561	 0.4510	 1.2071	 0.7679	 0.5229	 1.2908	 0.8197	 0.4169	 1.2366	72.8209	99.9762	
   587	 0.7728	 0.4758	 1.2486	 0.7960	 0.5527	 1.3487	 0.8669	 0.4466	 1.3134	72.8693	99.9761	
   588	 0.9503	 0.5274	 1.4777	 0.9550	 0.5759	 1.5310	 1.0095	 0.4599	 1.4694	73.0714	99.9751	
   589	 1.0489	 0.5304	 1.5793	 1.0209	 0.5791	 1.6000	 1.0488	 0.4518	 1.5006	73.0235	99.9759	
   590	 1.0243	 0.5008	 1.5251	 0.9791	 0.5409	 1.5201	 0.9839	 0.4110	 1.3949	72.9827	99.9761	
   591	 0.9307	 0.4576	 1.3882	 0.8972	 0.4905	 1.3877	 0.9013	 0.3591	 1.2604	73.0604	99.9762	
   592	 0.7907	 0.4002	 1.1909	 0.7751	 0.4277	 1.2028	 0.7729	 0.3002	 1.0732	73.0752	99.9766	
   593	 0.5362	 0.3301	 0.8664	 0.5667	 0.3491	 0.9158	 0.6032	 0.2154	 0.8186	73.3426	99.9766	
   594	 0.4041	 0.2776	 0.6817	 0.4719	 0.3032	 0.7751	 0.5619	 0.1895	 0.7514	73.4449	99.9744	
   595	 0.3578	 0.2635	 0.6213	 0.4438	 0.2734	 0.7172	 0.5376	 0.1633	 0.7010	73.5780	99.9737	
   596	 0.2730	 0.2401	 0.5131	 0.3695	 0.2401	 0.6096	 0.4505	 0.1304	 0.5809	73.5939	99.9741	
   597	 0.2030	 0.2115	 0.4144	 0.2892	 0.2155	 0.5047	 0.3700	 0.1125	 0.4825	73.4723	99.9734	
   598	 0.1497	 0.2075	 0.3572	 0.2370	 0.2207	 0.4577	 0.3360	 0.1130	 0.4489	73.4684	99.9736	
   599	 0.1122	 0.2133	 0.3255	 0.2113	 0.2298	 0.4411	 0.3138	 0.1208	 0.4346	73.4645	99.9742	
   600	 0.1359	 0.2278	 0.3637	 0.2583	 0.2463	 0.5046	 0.3891	 0.1463	 0.5354	73.5661	99.9731	
   601	 0.2493	 0.2256	 0.4749	 0.3438	 0.2492	 0.5930	 0.4682	 0.1415	 0.6097	73.5701	99.9732	
   602	 0.2424	 0.2357	 0.4781	 0.3438	 0.2492	 0.5930	 0.4519	 0.1531	 0.6050	73.5075	99.9727	
   603	 0.2207	 0.2512	 0.4719	 0.3318	 0.2667	 0.5984	 0.4481	 0.1834	 0.6314	73.4293	99.9718	
   604	 0.2226	 0.2812	 0.5039	 0.3539	 0.3052	 0.6591	 0.4782	 0.2133	 0.6915	73.4800	99.9735	
   605	 0.2217	 0.2662	 0.4879	 0.3334	 0.2926	 0.6260	 0.4435	 0.2024	 0.6459	73.3629	99.9734	
   606	 0.1605	 0.2574	 0.4179	 0.2864	 0.2761	 0.5625	 0.4029	 0.1877	 0.5907	73.4293	99.9731	
   607	 0.2217	 0.2662	 0.4879	 0.3727	 0.2919	 0.6646	 0.5070	 0.2204	 0.7275	73.4606	99.9723	
   608	 0.2917	 0.2949	 0.5866	 0.4213	 0.3343	 0.7556	 0.5595	 0.2425	 0.8019	73.4606	99.9737	
   609	 0.2453	 0.2808	 0.5261	 0.3744	 0.3178	 0.6922	 0.4966	 0.2357	 0.7323	73.3398	99.9735	
   610	 0.1694	 0.2773	 0.4467	 0.2888	 0.3149	 0.6038	 0.4331	 0.2176	 0.6507	73.4138	99.9734	
   611	 0.0678	 0.2292	 0.2970	 0.1864	 0.2518	 0.4383	 0.3054	 0.1701	 0.4755	73.3080	99.9724	
   612	-0.0545	 0.2116	 0.1571	 0.0479	 0.2412	 0.2891	 0.1915	 0.1640	 0.3555	73.1825	99.9707	
   613	-0.0614	 0.2218	 0.1604	 0.0881	 0.2535	 0.3416	 0.2544	 0.1707	 0.4251	73.4177	99.9720	
   614	 0.0126	 0.1952	 0.2078	 0.1258	 0.2269	 0.3527	 0.2693	 0.1365	 0.4058	73.3745	99.9723	
   615	-0.0505	 0.1564	 0.1059	 0.0310	 0.1810	 0.2120	 0.1586	 0.0888	 0.2474	73.2758	99.9715	
   616	-0.1422	 0.1432	 0.0010	-0.0553	 0.1652	 0.1099	 0.0670	 0.0748	 0.1418	73.2203	99.9717	
   617	-0.1885	 0.1291	-0.0595	-0.1091	 0.1445	 0.0354	 0.0035	 0.0567	 0.0602	73.1685	99.9713	
   618	-0.2339	 0.1300	-0.1039	-0.1553	 0.1409	-0.0143	-0.0424	 0.0497	 0.0074	73.1761	99.9712	
   619	-0.2724	 0.1207	-0.1516	-0.2075	 0.1461	-0.0613	-0.0875	 0.0541	-0.0334	73.0455	99.9713	
   620	-0.2408	 0.1401	-0.1007	-0.1416	 0.1494	 0.0077	-0.0129	 0.0683	 0.0554	73.2241	99.9703	
   621	-0.1727	 0.1388	-0.0340	-0.0826	 0.1484	 0.0657	 0.0323	 0.0639	 0.0962	73.2280	99.9709	
   622	-0.2112	 0.1295	-0.0817	-0.1416	 0.1494	 0.0077	-0.0358	 0.0648	 0.0290	73.0417	99.9712	
   623	-0.2802	 0.1159	-0.1644	-0.2143	 0.1419	-0.0724	-0.1038	 0.0657	-0.0382	72.9111	99.9706	
   624	-0.3414	 0.1071	-0.2343	-0.2802	 0.1387	-0.1414	-0.1608	 0.0626	-0.0981	72.8475	99.9704	
   625	-0.4104	 0.0934	-0.3170	-0.3468	 0.1226	-0.2242	-0.2302	 0.0408	-0.1894	72.8584	99.9709	
   626	-0.5169	 0.0855	-0.4314	-0.4528	 0.1071	-0.3457	-0.3447	 0.0234	-0.3213	72.8090	99.9711	
   627	-0.6096	 0.0573	-0.5523	-0.5528	 0.0828	-0.4700	-0.4481	 0.0020	-0.4461	72.6882	99.9710	
   628	-0.7013	 0.0441	-0.6573	-0.6451	 0.0758	-0.5694	-0.5280	-0.0045	-0.5325	72.6240	99.9708	
   629	-0.6787	 0.0436	-0.6350	-0.6058	 0.0751	-0.5307	-0.4711	-0.0015	-0.4725	72.7415	99.9702	
   630	-0.6560	 0.0432	-0.6128	-0.5929	 0.0706	-0.5224	-0.4770	-0.0052	-0.4821	72.6846	99.9704	
   631	-0.7171	 0.0344	-0.6827	-0.6656	 0.0631	-0.6025	-0.5568	-0.0117	-0.5685	72.5632	99.9704	
   632	-0.7861	 0.0207	-0.7654	-0.7254	 0.0512	-0.6743	-0.6196	-0.0185	-0.6381	72.4989	99.9706	
   633	-0.8315	 0.0216	-0.8099	-0.7708	 0.0606	-0.7102	-0.6589	-0.0104	-0.6693	72.4311	99.9710	
   634	-0.8769	 0.0225	-0.8544	-0.8230	 0.0658	-0.7572	-0.7099	-0.0098	-0.7196	72.3700	99.9713	
   635	-0.9380	 0.0137	-0.9243	-0.8828	 0.0538	-0.8290	-0.7786	-0.0202	-0.7988	72.3122	99.9715	
   636	-1.0140	 0.0102	-1.0037	-0.9555	 0.0464	-0.9091	-0.8473	-0.0307	-0.8780	72.3189	99.9715	
   637	-1.0288	 0.0155	-1.0132	-0.9547	 0.0594	-0.8953	-0.8237	-0.0159	-0.8396	72.3700	99.9713	
   638	-0.9371	 0.0287	-0.9083	-0.8555	 0.0707	-0.7848	-0.7210	-0.0058	-0.7268	72.4920	99.9714	
   639	-0.9144	 0.0283	-0.8861	-0.8555	 0.0707	-0.7848	-0.7491	-0.0017	-0.7508	72.3055	99.9716	
   640	-0.9903	 0.0248	-0.9655	-0.9282	 0.0633	-0.8649	-0.8179	-0.0121	-0.8300	72.3122	99.9715	
   641	-1.0515	 0.0160	-1.0355	-0.9812	 0.0555	-0.9257	-0.8748	-0.0152	-0.8900	72.2475	99.9718	
   642	-1.0968	 0.0169	-1.0799	-1.0274	 0.0520	-0.9754	-0.9199	-0.0108	-0.9307	72.1827	99.9708	
   643	-1.1353	 0.0076	-1.1277	-1.0796	 0.0572	-1.0224	-0.9598	-0.0141	-0.9739	72.1179	99.9713	
   644	-1.1807	 0.0085	-1.1721	-1.1249	 0.0666	-1.0583	-1.0050	-0.0097	-1.0147	72.0530	99.9722	
   645	-1.1876	 0.0187	-1.1689	-1.0984	 0.0705	-1.0280	-0.9644	 0.0049	-0.9595	72.1696	99.9716	
   646	-1.1037	 0.0271	-1.0767	-1.0129	 0.0733	-0.9396	-0.8956	 0.0153	-0.8803	72.1663	99.9715	
   647	-1.1037	 0.0271	-1.0767	-1.0326	 0.0737	-0.9589	-0.9133	 0.0042	-0.9091	72.1761	99.9716	
   648	-1.1649	 0.0183	-1.1466	-1.0984	 0.0705	-1.0280	-0.9762	-0.0025	-0.9787	72.1146	99.9719	
   649	-1.2103	 0.0192	-1.1911	-1.1378	 0.0711	-1.0666	-1.0102	-0.0021	-1.0123	72.1146	99.9719	
   650	-1.2330	 0.0196	-1.2133	-1.1643	 0.0672	-1.0970	-1.0442	-0.0017	-1.0459	72.0530	99.9715	
   651	-1.2714	 0.0104	-1.2611	-1.2044	 0.0550	-1.1495	-1.0959	-0.0123	-1.1083	71.9944	99.9717	
   652	-1.2941	 0.0108	-1.2833	-1.2104	 0.0637	-1.1467	-1.0730	-0.0089	-1.0819	72.1146	99.9719	
   653	-1.2182	 0.0143	-1.2038	-1.1378	 0.0711	-1.0666	-0.9991	-0.0060	-1.0051	72.1761	99.9723	
   654	-1.1955	 0.0139	-1.1816	-1.1249	 0.0666	-1.0583	-1.0102	-0.0021	-1.0123	72.0498	99.9722	
   655	-1.2339	 0.0046	-1.2293	-1.1711	 0.0630	-1.1080	-1.0612	-0.0014	-1.0627	71.9198	99.9721	
   656	-1.2714	 0.0104	-1.2611	-1.2036	 0.0679	-1.1357	-1.0782	-0.0012	-1.0794	71.9848	99.9719	
   657	-1.3010	 0.0210	-1.2800	-1.2293	 0.0770	-1.1523	-1.0952	-0.0010	-1.0962	72.0530	99.9722	
   658	-1.3237	 0.0214	-1.3023	-1.2421	 0.0815	-1.1606	-1.1175	 0.0068	-1.1106	71.9848	99.9731	
   659	-1.3464	 0.0219	-1.3245	-1.2618	 0.0819	-1.1800	-1.1397	 0.0147	-1.1250	71.9166	99.9728	
   660	-1.2931	 0.0258	-1.2673	-1.1960	 0.0851	-1.1109	-1.0598	 0.0212	-1.0386	72.0369	99.9722	
   661	-1.2478	 0.0249	-1.2228	-1.1574	 0.0715	-1.0860	-1.0324	 0.0057	-1.0267	72.1114	99.9718	
   662	-1.2793	 0.0055	-1.2738	-1.2044	 0.0550	-1.1495	-1.0848	-0.0163	-1.1011	72.0562	99.9721	
   663	-1.3326	 0.0016	-1.3310	-1.2574	 0.0472	-1.2102	-1.1417	-0.0193	-1.1611	71.9944	99.9717	
   664	-1.3779	 0.0025	-1.3755	-1.2968	 0.0479	-1.2489	-1.1758	-0.0189	-1.1946	71.9944	99.9717	
   665	-1.3937	-0.0072	-1.4009	-1.3233	 0.0440	-1.2793	-1.1987	-0.0224	-1.2210	71.9293	99.9715	
   666	-1.4312	-0.0015	-1.4327	-1.3490	 0.0531	-1.2959	-1.2157	-0.0222	-1.2378	71.9944	99.9725	
   667	-1.4006	 0.0029	-1.3977	-1.2960	 0.0608	-1.2351	-1.1522	-0.0041	-1.1562	72.0433	99.9722	
   668	-1.3089	 0.0161	-1.2928	-1.2165	 0.0724	-1.1440	-1.0723	 0.0025	-1.0698	72.1081	99.9720	
   669	-1.2941	 0.0108	-1.2833	-1.2036	 0.0679	-1.1357	-1.0723	 0.0025	-1.0698	72.0433	99.9722	
   670	-1.3089	 0.0161	-1.2928	-1.2165	 0.0724	-1.1440	-1.0945	 0.0103	-1.0842	71.9784	99.9724	
   671	-1.3237	 0.0214	-1.3023	-1.2225	 0.0812	-1.1413	-1.0998	 0.0180	-1.0818	71.9752	99.9731	
   672	-1.3306	 0.0316	-1.2990	-1.2413	 0.0945	-1.1469	-1.1109	 0.0219	-1.0890	71.9784	99.9732	
   673	-1.3612	 0.0272	-1.3340	-1.2618	 0.0819	-1.1800	-1.1456	 0.0110	-1.1346	71.9848	99.9736	
   674	-1.3691	 0.0223	-1.3467	-1.2686	 0.0777	-1.1910	-1.1175	 0.0068	-1.1106	72.1081	99.9720	
   675	-1.2783	 0.0205	-1.2578	-1.1703	 0.0760	-1.0943	-1.0213	 0.0018	-1.0195	72.2342	99.9726	
   676	-1.2487	 0.0099	-1.2388	-1.1574	 0.0715	-1.0860	-1.0161	-0.0058	-1.0219	72.1728	99.9729	
   677	-1.2793	 0.0055	-1.2738	-1.1847	 0.0546	-1.1301	-1.0619	-0.0128	-1.0747	72.1146	99.9724	
   678	-1.3030	-0.0091	-1.3120	-1.2241	 0.0553	-1.1688	-1.1018	-0.0161	-1.1179	71.9848	99.9731	
   679	-1.3404	-0.0033	-1.3437	-1.2506	 0.0514	-1.1992	-1.1247	-0.0195	-1.1443	72.0530	99.9727	
   680	-1.3641	-0.0179	-1.3820	-1.2839	 0.0433	-1.2406	-1.1476	-0.0230	-1.1707	71.9848	99.9719	
   681	-1.3474	 0.0069	-1.3405	-1.2173	 0.0595	-1.1578	-1.0671	-0.0052	-1.0723	72.2309	99.9725	
   682	-1.2260	 0.0095	-1.2166	-1.1181	 0.0708	-1.0473	-0.9703	 0.0012	-0.9691	72.2276	99.9726	
   683	-1.2182	 0.0143	-1.2038	-1.1181	 0.0708	-1.0473	-0.9821	-0.0062	-0.9883	72.2375	99.9732	
   684	-1.2566	 0.0050	-1.2516	-1.1514	 0.0627	-1.0887	-1.0272	-0.0019	-1.0291	72.1049	99.9731	
   685	-1.2714	 0.0104	-1.2611	-1.1635	 0.0802	-1.0833	-1.0213	 0.0018	-1.0195	72.1663	99.9742	
   686	-1.2556	 0.0201	-1.2356	-1.1370	 0.0841	-1.0529	-1.0147	 0.0169	-0.9978	72.0984	99.9743	
   687	-1.2626	 0.0302	-1.2323	-1.1498	 0.0886	-1.0612	-1.0258	 0.0208	-1.0050	72.1016	99.9737	
   688	-1.2093	 0.0342	-1.1751	-1.0711	 0.0873	-0.9838	-0.9297	 0.0158	-0.9139	72.3531	99.9738	
   689	-1.1422	 0.0178	-1.1244	-1.0266	 0.0649	-0.9616	-0.8970	-0.0073	-0.9043	72.3632	99.9731	
   690	-1.1659	 0.0032	-1.1626	-1.0659	 0.0656	-1.0003	-0.9421	-0.0030	-0.9451	72.1663	99.9735	
   691	-1.1955	 0.0139	-1.1816	-1.0848	 0.0789	-1.0059	-0.9473	 0.0047	-0.9427	72.2276	99.9739	
   692	-1.1866	 0.0337	-1.1529	-1.0703	 0.1002	-0.9701	-0.9401	 0.0310	-0.9090	72.1564	99.9741	
   693	-1.1856	 0.0487	-1.1369	-1.0619	 0.1303	-0.9315	-0.9099	 0.0609	-0.8490	72.1401	99.9743	
   694	-1.1373	 0.0929	-1.0445	-0.9928	 0.1853	-0.8074	-0.8495	 0.1207	-0.7289	72.0565	99.9758	
   695	-1.0812	 0.1419	-0.9393	-0.9169	 0.2446	-0.6723	-0.7552	 0.1800	-0.5752	72.0981	99.9763	
   696	-0.9017	 0.2235	-0.6782	-0.7024	 0.3144	-0.3880	-0.5358	 0.2414	-0.2944	72.4001	99.9772	
   697	-0.7420	 0.2354	-0.5066	-0.5896	 0.3341	-0.2555	-0.4278	 0.2438	-0.1840	72.4068	99.9774	
   698	-0.6956	 0.2495	-0.4461	-0.5366	 0.3418	-0.1948	-0.3990	 0.2510	-0.1480	72.4101	99.9784	
   699	-0.6641	 0.2689	-0.3952	-0.4956	 0.3671	-0.1285	-0.3459	 0.2844	-0.0616	72.3934	99.9779	
   700	-0.5783	 0.3073	-0.2710	-0.4085	 0.3959	-0.0126	-0.2706	 0.3099	 0.0393	72.4567	99.9781	
   701	-0.5152	 0.3461	-0.1691	-0.3539	 0.4295	 0.0756	-0.2241	 0.3282	 0.1041	72.5268	99.9790	
   702	-0.4689	 0.3602	-0.1086	-0.3205	 0.4376	 0.1170	-0.2012	 0.3317	 0.1305	72.5336	99.9789	
   703	-0.3920	 0.3787	-0.0132	-0.2539	 0.4537	 0.1999	-0.1325	 0.3422	 0.2097	72.5969	99.9787	
   704	-0.2381	 0.4158	 0.1776	-0.0812	 0.4854	 0.4042	 0.0345	 0.3816	 0.4161	72.7058	99.9787	
   705	-0.1474	 0.4140	 0.2666	-0.0367	 0.4630	 0.4264	 0.0383	 0.3513	 0.3896	72.6742	99.9782	
   706	-0.1858	 0.4047	 0.2189	-0.0752	 0.4767	 0.4014	 0.0390	 0.3627	 0.4016	72.6567	99.9780	
   707	-0.1543	 0.4241	 0.2698	-0.0359	 0.4760	 0.4401	 0.0501	 0.3587	 0.4088	72.7339	99.9786	
   708	-0.1631	 0.4042	 0.2411	-0.0443	 0.4459	 0.4016	 0.0317	 0.3363	 0.3680	72.7410	99.9779	
   709	-0.1631	 0.4042	 0.2411	-0.0512	 0.4417	 0.3905	 0.0310	 0.3249	 0.3560	72.8114	99.9776	
   710	-0.1631	 0.4042	 0.2411	-0.0512	 0.4417	 0.3905	 0.0310	 0.3249	 0.3560	72.8114	99.9776	
   711	-0.1020	 0.4130	 0.3110	 0.0223	 0.4620	 0.4844	 0.1463	 0.3537	 0.5000	72.9089	99.9762	
   712	 0.0203	 0.4307	 0.4509	 0.1352	 0.4817	 0.6169	 0.2327	 0.3753	 0.6080	72.8423	99.9770	
   713	 0.0361	 0.4404	 0.4764	 0.1412	 0.4730	 0.6142	 0.2195	 0.3452	 0.5647	72.9974	99.9780	
   714	-0.0261	 0.4165	 0.3905	 0.0813	 0.4610	 0.5424	 0.1796	 0.3419	 0.5215	72.9233	99.9773	
   715	-0.0330	 0.4267	 0.3937	 0.0813	 0.4610	 0.5424	 0.1796	 0.3419	 0.5215	72.9900	99.9769	
   716	-0.0487	 0.4170	 0.3682	 0.0617	 0.4614	 0.5231	 0.1626	 0.3422	 0.5047	72.9233	99.9773	
   717	-0.0793	 0.4126	 0.3333	 0.0412	 0.4488	 0.4900	 0.1338	 0.3350	 0.4687	72.9270	99.9771	
   718	-0.0951	 0.4029	 0.3078	 0.0275	 0.4403	 0.4679	 0.1279	 0.3312	 0.4591	72.9233	99.9766	
   719	-0.0191	 0.4064	 0.3872	 0.1070	 0.4520	 0.5590	 0.2306	 0.3413	 0.5719	73.0345	99.9762	
   720	 0.0183	 0.4006	 0.4190	 0.1524	 0.4426	 0.5950	 0.2588	 0.3371	 0.5959	73.0345	99.9767	
   721	-0.0043	 0.4011	 0.3967	 0.1131	 0.4432	 0.5563	 0.2247	 0.3376	 0.5623	72.9754	99.9759	
   722	-0.0280	 0.3865	 0.3585	 0.0926	 0.4306	 0.5232	 0.1841	 0.3230	 0.5071	72.9197	99.9772	
   723	-0.0645	 0.4073	 0.3428	 0.0745	 0.4568	 0.5314	 0.1921	 0.3607	 0.5528	72.8980	99.9762	
   724	-0.0339	 0.4117	 0.3777	 0.0874	 0.4523	 0.5397	 0.1789	 0.3306	 0.5095	72.9900	99.9780	
   725	-0.0891	 0.3777	 0.2886	 0.0267	 0.4274	 0.4541	 0.1331	 0.3236	 0.4567	72.8531	99.9764	
   726	-0.0576	 0.3971	 0.3395	 0.0874	 0.4523	 0.5397	 0.2195	 0.3452	 0.5647	73.0235	99.9769	
   727	-0.0043	 0.4011	 0.3967	 0.1464	 0.4513	 0.5977	 0.2758	 0.3369	 0.6127	73.1524	99.9774	
   728	-0.0201	 0.3914	 0.3712	 0.1191	 0.4345	 0.5536	 0.2411	 0.3260	 0.5671	73.0973	99.9765	
   729	-0.0438	 0.3768	 0.3330	 0.0926	 0.4306	 0.5232	 0.2011	 0.3227	 0.5239	72.9717	99.9776	
   730	-0.0743	 0.3724	 0.2980	 0.0661	 0.4267	 0.4928	 0.1782	 0.3193	 0.4975	72.9717	99.9776	
   731	-0.0970	 0.3728	 0.2758	 0.0404	 0.4358	 0.4762	 0.1671	 0.3232	 0.4903	72.9681	99.9777	
   732	-0.1039	 0.3830	 0.2791	 0.0275	 0.4403	 0.4679	 0.1560	 0.3271	 0.4831	72.9717	99.9771	
   733	-0.0951	 0.4029	 0.3078	 0.0745	 0.4568	 0.5314	 0.2254	 0.3489	 0.5743	73.1413	99.9769	
   734	 0.0114	 0.4108	 0.4222	 0.1669	 0.4639	 0.6308	 0.2994	 0.3517	 0.6511	73.1450	99.9774	
   735	 0.0035	 0.4059	 0.4095	 0.1600	 0.4597	 0.6198	 0.2823	 0.3520	 0.6343	73.0824	99.9777	
   736	-0.0191	 0.4064	 0.3872	 0.1335	 0.4558	 0.5894	 0.2424	 0.3487	 0.5911	73.0272	99.9778	
   737	-0.0270	 0.4015	 0.3745	 0.1207	 0.4604	 0.5811	 0.2424	 0.3487	 0.5911	73.0235	99.9780	
   738	-0.0349	 0.3967	 0.3618	 0.1010	 0.4607	 0.5617	 0.2306	 0.3413	 0.5719	73.0272	99.9780	
   739	-0.0734	 0.3874	 0.3140	 0.0677	 0.4526	 0.5203	 0.1907	 0.3380	 0.5287	72.9644	99.9783	
   740	-0.0576	 0.3971	 0.3395	 0.1078	 0.4649	 0.5728	 0.2483	 0.3524	 0.6007	73.0751	99.9783	
   741	 0.0578	 0.4249	 0.4827	 0.2199	 0.4717	 0.6915	 0.3504	 0.3511	 0.7015	73.2737	99.9780	
   742	 0.0805	 0.4244	 0.5049	 0.2267	 0.4759	 0.7026	 0.3511	 0.3624	 0.7135	73.1450	99.9774	
   743	 0.0578	 0.4249	 0.4827	 0.2070	 0.4762	 0.6832	 0.3230	 0.3666	 0.6895	73.0824	99.9777	
   744	 0.0351	 0.4253	 0.4604	 0.1873	 0.4765	 0.6639	 0.3112	 0.3592	 0.6703	73.1487	99.9780	
   745	 0.0193	 0.4156	 0.4349	 0.1677	 0.4769	 0.6445	 0.2941	 0.3594	 0.6535	73.0824	99.9783	
   746	 0.0203	 0.4307	 0.4509	 0.1745	 0.4811	 0.6556	 0.2941	 0.3594	 0.6535	73.1524	99.9785	
   747	 0.0124	 0.4258	 0.4382	 0.1677	 0.4769	 0.6445	 0.2889	 0.3670	 0.6559	73.0824	99.9777	
   748	 0.1120	 0.4439	 0.5559	 0.2737	 0.4924	 0.7660	 0.4035	 0.3844	 0.7879	73.1962	99.9772	
   749	 0.1643	 0.4328	 0.5971	 0.3122	 0.4788	 0.7910	 0.4250	 0.3652	 0.7903	73.2075	99.9777	
   750	 0.1416	 0.4332	 0.5748	 0.2865	 0.4878	 0.7743	 0.3969	 0.3694	 0.7663	73.1450	99.9785	
   751	 0.1110	 0.4288	 0.5399	 0.2532	 0.4797	 0.7329	 0.3681	 0.3622	 0.7303	73.1487	99.9780	
   752	 0.1110	 0.4288	 0.5399	 0.2600	 0.4840	 0.7440	 0.3688	 0.3735	 0.7423	73.0787	99.9782	
   753	 0.1031	 0.4240	 0.5271	 0.2335	 0.4801	 0.7136	 0.3511	 0.3624	 0.7135	73.0861	99.9777	
   754	 0.0883	 0.4293	 0.5176	 0.2275	 0.4888	 0.7163	 0.3459	 0.3701	 0.7159	73.0824	99.9783	
   755	 0.1505	 0.4531	 0.6036	 0.3070	 0.5004	 0.8074	 0.4434	 0.3877	 0.8311	73.2585	99.9770	
   756	 0.2728	 0.4707	 0.7435	 0.4198	 0.5201	 0.9400	 0.5357	 0.4130	 0.9487	73.1887	99.9772	
   757	 0.2964	 0.4853	 0.7817	 0.4267	 0.5244	 0.9510	 0.5298	 0.4093	 0.9391	73.2037	99.9771	
   758	 0.2964	 0.4853	 0.7817	 0.4206	 0.5331	 0.9537	 0.5246	 0.4169	 0.9415	73.1375	99.9775	
   759	 0.3358	 0.5096	 0.8454	 0.4419	 0.5587	 1.0006	 0.5482	 0.4318	 0.9800	73.1413	99.9776	
   760	 0.3970	 0.5184	 0.9153	 0.4813	 0.5580	 1.0393	 0.5541	 0.4355	 0.9896	73.0272	99.9774	
   761	 0.4433	 0.5325	 0.9758	 0.4821	 0.5709	 1.0530	 0.5482	 0.4318	 0.9800	72.9827	99.9772	
   762	 0.5281	 0.5558	 1.0840	 0.5548	 0.5784	 1.1331	 0.6221	 0.4346	 1.0567	73.1159	99.9760	
   763	 0.7264	 0.5769	 1.3033	 0.6728	 0.5764	 1.2492	 0.7013	 0.4298	 1.1311	73.0195	99.9735	
   764	 0.9177	 0.6082	 1.5259	 0.7086	 0.6233	 1.3319	 0.7145	 0.4599	 1.1743	72.5354	99.9706	
   765	 0.8358	 0.6299	 1.4657	 0.6194	 0.6680	 1.2875	 0.6335	 0.5290	 1.1625	72.1239	99.9694	
   766	 0.7391	 0.6569	 1.3960	 0.4962	 0.6917	 1.1879	 0.5158	 0.5532	 1.0690	71.9373	99.9677	
   767	 0.6583	 0.5783	 1.2366	 0.3187	 0.5824	 0.9010	 0.3048	 0.4425	 0.7473	71.7335	99.9630	
   768	 0.2748	 0.3855	 0.6603	-0.0468	 0.4070	 0.3603	-0.0404	 0.2691	 0.2287	71.6925	99.9639	
   769	-0.1767	 0.1940	 0.0172	-0.3524	 0.2437	-0.1087	-0.2875	 0.1248	-0.1627	72.0008	99.9678	
   770	-0.4094	 0.1084	-0.3010	-0.4548	 0.1806	-0.2742	-0.3406	 0.0914	-0.2492	72.2176	99.9700	
   771	-0.4321	 0.1089	-0.3233	-0.4676	 0.1851	-0.2825	-0.3635	 0.0879	-0.2756	72.2209	99.9718	
   772	-0.5327	 0.0758	-0.4569	-0.5752	 0.1437	-0.4315	-0.4631	 0.0362	-0.4269	72.3055	99.9715	
   773	-0.6254	 0.0476	-0.5778	-0.6547	 0.1321	-0.5226	-0.5305	 0.0485	-0.4820	72.0919	99.9706	
   774	-0.6205	 0.1227	-0.4979	-0.6294	 0.2224	-0.4070	-0.4916	 0.1274	-0.3642	72.0725	99.9727	
   775	-0.6580	 0.1284	-0.5296	-0.6679	 0.2360	-0.4319	-0.5191	 0.1429	-0.3762	72.0017	99.9724	
   776	-0.6236	 0.1929	-0.4307	-0.5912	 0.3082	-0.2830	-0.4358	 0.2061	-0.2297	72.1110	99.9750	
   777	-0.5614	 0.2167	-0.3447	-0.5049	 0.3240	-0.1809	-0.3501	 0.2164	-0.1337	72.2995	99.9758	
   778	-0.5920	 0.2123	-0.3797	-0.5238	 0.3373	-0.1864	-0.3775	 0.2318	-0.1457	72.1620	99.9776	
   779	-0.6808	 0.2442	-0.4367	-0.5675	 0.3726	-0.1949	-0.3977	 0.2737	-0.1239	72.2062	99.9779	
   780	-0.6769	 0.3042	-0.3727	-0.5309	 0.4325	-0.0984	-0.3550	 0.3223	-0.0327	72.3233	99.9796	
   781	-0.7410	 0.2504	-0.4906	-0.6000	 0.3775	-0.2225	-0.4101	 0.2550	-0.1552	72.4668	99.9796	
   782	-0.9708	 0.2099	-0.7609	-0.7683	 0.3112	-0.4571	-0.5542	 0.2190	-0.3352	72.5900	99.9772	
   783	-1.0004	 0.2205	-0.7799	-0.7675	 0.3241	-0.4433	-0.5254	 0.2262	-0.2992	72.7687	99.9776	
   784	-0.8781	 0.2381	-0.6400	-0.6707	 0.2966	-0.3741	-0.4365	 0.1948	-0.2417	73.0493	99.9745	
   785	-0.9658	 0.1697	-0.7961	-0.7731	 0.2335	-0.5396	-0.5590	 0.1396	-0.4194	72.8747	99.9747	
   786	-1.0604	 0.1114	-0.9490	-0.8611	 0.1918	-0.6693	-0.6187	 0.0912	-0.5275	72.9379	99.9751	
   787	-1.1481	 0.0430	-1.1052	-0.9173	 0.1322	-0.7851	-0.6613	 0.0426	-0.6187	72.9937	99.9754	
   788	-1.0870	 0.0518	-1.0352	-0.8234	 0.1652	-0.6582	-0.5669	 0.1019	-0.4651	72.8245	99.9761	
   789	-0.9243	 0.1087	-0.8156	-0.6824	 0.2147	-0.4677	-0.4628	 0.1346	-0.3282	72.8352	99.9777	
   790	-0.8622	 0.1325	-0.7297	-0.6149	 0.2438	-0.3712	-0.3816	 0.1638	-0.2178	72.8836	99.9776	
   791	-0.7024	 0.1443	-0.5581	-0.4704	 0.2457	-0.2247	-0.2566	 0.1660	-0.0907	72.9499	99.9772	
   792	-0.5880	 0.1571	-0.4309	-0.3841	 0.2615	-0.1226	-0.1938	 0.1727	-0.0211	72.8944	99.9781	
   793	-0.6117	 0.1425	-0.4691	-0.4174	 0.2534	-0.1640	-0.2226	 0.1655	-0.0571	72.8316	99.9778	
   794	-0.5959	 0.1522	-0.4437	-0.4106	 0.2576	-0.1530	-0.2278	 0.1732	-0.0547	72.7723	99.9775	
   795	-0.6117	 0.1425	-0.4691	-0.4371	 0.2537	-0.1833	-0.2514	 0.1583	-0.0931	72.7794	99.9781	
   796	-0.6649	 0.1386	-0.5263	-0.4756	 0.2674	-0.2083	-0.2900	 0.1778	-0.1122	72.6393	99.9792	
   797	-0.6768	 0.1889	-0.4879	-0.4724	 0.3192	-0.1532	-0.2806	 0.2382	-0.0425	72.5591	99.9790	
   798	-0.6058	 0.2326	-0.3732	-0.3844	 0.3609	-0.0235	-0.1824	 0.2672	 0.0847	72.7405	99.9799	
   799	-0.5299	 0.2361	-0.2938	-0.3314	 0.3686	 0.0372	-0.1366	 0.2741	 0.1375	72.6778	99.9796	
   800	-0.5497	 0.2816	-0.2680	-0.3153	 0.4159	 0.1006	-0.1110	 0.3230	 0.2120	72.7230	99.9805	
   801	-0.4521	 0.3850	-0.0672	-0.2643	 0.4971	 0.2328	-0.0794	 0.3755	 0.2961	72.7476	99.9804	
   802	-0.6000	 0.3227	-0.2773	-0.3594	 0.5506	 0.1912	-0.0679	 0.2846	 0.2167	73.4334	99.9911	
   803	-0.5546	 0.3218	-0.2328	-0.3976	 0.4648	 0.0672	-0.1710	 0.3616	 0.1905	72.4792	99.9780	
   804	-0.6000	 0.3227	-0.2773	-0.4017	 0.4001	-0.0016	-0.3171	 0.2916	-0.0255	72.5439	99.9822	
   805	-0.7381	 0.2954	-0.4426	-0.4065	 0.3224	-0.0842	-0.2317	 0.2035	-0.0282	73.6126	99.9809	
   806	-0.5112	 0.2909	-0.2203	-0.2604	 0.3501	 0.0898	-0.0581	 0.2580	 0.1999	73.2623	99.9768	
   807	-0.5614	 0.2167	-0.3447	-0.2961	 0.3032	 0.0071	-0.1015	 0.1980	 0.0965	73.2661	99.9801	
   808	-0.6245	 0.1779	-0.4467	-0.3901	 0.2702	-0.1199	-0.1872	 0.1878	 0.0006	73.0125	99.9775	
   809	-0.6551	 0.1735	-0.4816	-0.4234	 0.2622	-0.1613	-0.2160	 0.1806	-0.0354	73.0162	99.9769	
   810	-0.6788	 0.1589	-0.5199	-0.4636	 0.2499	-0.2137	-0.2684	 0.1586	-0.1099	72.9681	99.9777	
   811	-0.7172	 0.1497	-0.5676	-0.5097	 0.2463	-0.2634	-0.3195	 0.1592	-0.1602	72.8423	99.9777	
   812	-0.7320	 0.1550	-0.5771	-0.5089	 0.2593	-0.2497	-0.2907	 0.1664	-0.1242	72.9572	99.9778	
   813	-0.6482	 0.1633	-0.4849	-0.4037	 0.2618	-0.1419	-0.1938	 0.1727	-0.0211	73.0751	99.9783	
   814	-0.5801	 0.1620	-0.4182	-0.3516	 0.2566	-0.0949	-0.1546	 0.1647	 0.0101	73.0824	99.9783	
   815	-0.5870	 0.1721	-0.4149	-0.3636	 0.2741	-0.0895	-0.1598	 0.1723	 0.0125	73.0824	99.9789	
   816	-0.5644	 0.1717	-0.3927	-0.3499	 0.2825	-0.0674	-0.1643	 0.1913	 0.0270	72.8872	99.9792	
   817	-0.5555	 0.1915	-0.3640	-0.3363	 0.2909	-0.0454	-0.1577	 0.2063	 0.0486	72.8872	99.9785	
   818	-0.5624	 0.2017	-0.3607	-0.3423	 0.2997	-0.0426	-0.1577	 0.2063	 0.0486	72.9535	99.9788	
   819	-0.5703	 0.1968	-0.3735	-0.3491	 0.2955	-0.0537	-0.1636	 0.2026	 0.0390	72.9535	99.9788	
   820	-0.4944	 0.2003	-0.2940	-0.2712	 0.2812	 0.0099	-0.0970	 0.1791	 0.0821	73.1562	99.9790	
   821	-0.3878	 0.2082	-0.1796	-0.1857	 0.2841	 0.0983	-0.0289	 0.1782	 0.1493	73.1637	99.9790	
   822	-0.3277	 0.2020	-0.1256	-0.1934	 0.2669	 0.0735	-0.0754	 0.1599	 0.0844	72.9416	99.9777	
   823	-0.3582	 0.1976	-0.1606	-0.2464	 0.2592	 0.0128	-0.1271	 0.1492	 0.0220	72.8892	99.9769	
   824	-0.3730	 0.2029	-0.1701	-0.2729	 0.2553	-0.0176	-0.1559	 0.1420	-0.0140	72.9001	99.9763	
   825	-0.3504	 0.2025	-0.1479	-0.2729	 0.2553	-0.0176	-0.1671	 0.1459	-0.0212	72.7766	99.9757	
   826	-0.3504	 0.2025	-0.1479	-0.2865	 0.2469	-0.0396	-0.1795	 0.1272	-0.0524	72.8547	99.9754	
   827	-0.3494	 0.2175	-0.1319	-0.2584	 0.2766	 0.0182	-0.1303	 0.1908	 0.0605	72.6847	99.9737	
   828	-0.2794	 0.2462	-0.0332	-0.1303	 0.3307	 0.2004	 0.0196	 0.2305	 0.2502	72.9052	99.9775	
   829	-0.2419	 0.2404	-0.0015	-0.0841	 0.3342	 0.2501	 0.0596	 0.2338	 0.2933	72.8980	99.9786	
   830	-0.2725	 0.2360	-0.0365	-0.1106	 0.3303	 0.2197	 0.0367	 0.2303	 0.2669	72.8980	99.9786	
   831	-0.2952	 0.2365	-0.0587	-0.1235	 0.3349	 0.2114	 0.0255	 0.2342	 0.2598	72.8944	99.9791	
   832	-0.3178	 0.2369	-0.0809	-0.1371	 0.3265	 0.1893	 0.0078	 0.2231	 0.2309	72.9644	99.9793	
   833	-0.2804	 0.2311	-0.0492	-0.1379	 0.3135	 0.1756	 0.0072	 0.2118	 0.2189	72.9125	99.9774	
   834	-0.2261	 0.2501	 0.0240	-0.1166	 0.3391	 0.2224	 0.0144	 0.2381	 0.2526	72.7234	99.9772	
   835	-0.2261	 0.2501	 0.0240	-0.0841	 0.3342	 0.2501	 0.0766	 0.2336	 0.3101	72.9644	99.9767	
   836	-0.1255	 0.2832	 0.1576	 0.0407	 0.3364	 0.3771	 0.1970	 0.2547	 0.4517	73.1450	99.9745	
   837	 0.4622	 0.3567	 0.8189	 0.2563	 0.3198	 0.5761	 0.3487	 0.2301	 0.5788	72.6917	99.9551	
   838	 0.6320	 0.2881	 0.9201	 0.0941	 0.2448	 0.3388	 0.1037	 0.1197	 0.2235	71.7575	99.9449	
   839	 0.1143	 0.1280	 0.2423	-0.3757	 0.0799	-0.2959	-0.3717	-0.0482	-0.4199	71.7315	99.9482	
   840	-0.2920	 0.0509	-0.2411	-0.6733	 0.0460	-0.6273	-0.6054	-0.0641	-0.6694	71.6941	99.9521	
   841	-0.4902	 0.0298	-0.4604	-0.7793	 0.0305	-0.7488	-0.7095	-0.0968	-0.8062	71.9598	99.9592	
   842	-0.6362	-0.0023	-0.6385	-0.8664	 0.0017	-0.8647	-0.7678	-0.1225	-0.8903	72.1483	99.9604	
   843	-0.5662	 0.0263	-0.5398	-0.7186	 0.0554	-0.6632	-0.5988	-0.0490	-0.6478	72.2260	99.9631	
   844	-0.4558	 0.0943	-0.3615	-0.5359	 0.1431	-0.3928	-0.4357	 0.0208	-0.4149	72.3939	99.9704	
   845	-0.5248	 0.0807	-0.4442	-0.5684	 0.1479	-0.4205	-0.4579	 0.0286	-0.4293	72.3768	99.9724	
   846	-0.5534	 0.1063	-0.4472	-0.5540	 0.1693	-0.3847	-0.4329	 0.0661	-0.3668	72.4208	99.9721	
   847	-0.5130	 0.1456	-0.3675	-0.4993	 0.2029	-0.2964	-0.3739	 0.1032	-0.2707	72.4748	99.9718	
   848	-0.5052	 0.1504	-0.3547	-0.4977	 0.2288	-0.2689	-0.3791	 0.1108	-0.2683	72.4106	99.9747	
   849	-0.5742	 0.1368	-0.4374	-0.5387	 0.2036	-0.3351	-0.4250	 0.1038	-0.3211	72.4072	99.9739	
   850	-0.5821	 0.1319	-0.4502	-0.5395	 0.1907	-0.3488	-0.3760	 0.0692	-0.3068	72.7982	99.9729	
   851	-0.7643	-0.1100	-0.8744	-0.8010	-0.1074	-0.9084	-0.6504	-0.2451	-0.8954	73.1707	99.9677	
   852	-0.9782	-0.2561	-1.2344	-1.1247	-0.2446	-1.3692	-0.9790	-0.3316	-1.3106	72.4114	99.9588	
   853	-0.9032	-0.2677	-1.1709	-1.1982	-0.2649	-1.4631	-1.0891	-0.3680	-1.4571	71.9990	99.9541	
   854	-1.0275	-0.3153	-1.3428	-1.3520	-0.3099	-1.6618	-1.2678	-0.4149	-1.6827	71.7536	99.9546	
   855	-1.1567	-0.3228	-1.4794	-1.4708	-0.3208	-1.7916	-1.3824	-0.4323	-1.8147	71.7631	99.9553	
   856	-1.2868	-0.3452	-1.6321	-1.5836	-0.3405	-1.9241	-1.5153	-0.4722	-1.9875	71.7823	99.9598	
   857	-1.4239	-0.3575	-1.7814	-1.6623	-0.3392	-2.0015	-1.5820	-0.4487	-2.0306	71.6895	99.9611	
   858	-1.4141	-0.3226	-1.7367	-1.5728	-0.2716	-1.8443	-1.4352	-0.3673	-1.8025	71.8334	99.9628	
   859	-1.1637	-0.1973	-1.3610	-1.2439	-0.1561	-1.4000	-1.1110	-0.2618	-1.3728	72.2630	99.9669	
   860	-1.0464	-0.1395	-1.1859	-1.1013	-0.0807	-1.1820	-0.9753	-0.1766	-1.1519	72.1640	99.9688	
   861	-1.0188	-0.0649	-1.0837	-1.0358	 0.0219	-1.0139	-0.8900	-0.0793	-0.9693	72.1277	99.9717	
   862	-1.0494	-0.0693	-1.1187	-1.0503	 0.0005	-1.0498	-0.9313	-0.1053	-1.0366	72.2093	99.9730	
   863	-1.1036	-0.0882	-1.1919	-1.0981	-0.0289	-1.1270	-0.9785	-0.1349	-1.1134	72.2844	99.9726	
   864	-1.1253	-0.0728	-1.1981	-1.1169	-0.0157	-1.1326	-0.9823	-0.1046	-1.0869	72.2059	99.9704	
   865	-1.0771	-0.0286	-1.1057	-1.0615	 0.0309	-1.0306	-0.9227	-0.0562	-0.9788	72.1926	99.9705	
   866	-1.0140	 0.0102	-1.0037	-0.9675	 0.0639	-0.9036	-0.8074	-0.0274	-0.8348	72.4379	99.9706	
   867	-0.8690	 0.0274	-0.8416	-0.8214	 0.0917	-0.7297	-0.6693	 0.0049	-0.6644	72.4208	99.9714	
   868	-0.8315	 0.0216	-0.8099	-0.8025	 0.0784	-0.7241	-0.6700	-0.0065	-0.6765	72.3666	99.9709	
   869	-0.9252	-0.0216	-0.9468	-0.9186	 0.0069	-0.9117	-0.7997	-0.0880	-0.8878	72.4724	99.9697	
   870	-1.0819	-0.1037	-1.1856	-1.1005	-0.0678	-1.1683	-0.9452	-0.1467	-1.0918	72.3461	99.9657	
   871	-1.1677	-0.1421	-1.3098	-1.1884	-0.1095	-1.2980	-1.0611	-0.1868	-1.2479	72.2327	99.9668	
   872	-1.2831	-0.1699	-1.4529	-1.3089	-0.1464	-1.4553	-1.1770	-0.2269	-1.4039	72.2495	99.9660	
   873	-1.3688	-0.2082	-1.5771	-1.4089	-0.1706	-1.5795	-1.2752	-0.2559	-1.5311	72.1250	99.9667	
   874	-1.4073	-0.2175	-1.6248	-1.4225	-0.1790	-1.6016	-1.2752	-0.2559	-1.5311	72.1806	99.9664	
   875	-1.3314	-0.2140	-1.5454	-1.3370	-0.1761	-1.5132	-1.1902	-0.2570	-1.4472	72.3081	99.9672	
   876	-1.3629	-0.2334	-1.5963	-1.3780	-0.2014	-1.5794	-1.2485	-0.2827	-1.5312	72.2562	99.9673	
   877	-1.4162	-0.2374	-1.6535	-1.4362	-0.1874	-1.6236	-1.2929	-0.2670	-1.5599	72.1151	99.9675	
   878	-1.4527	-0.2166	-1.6693	-1.4543	-0.1612	-1.6155	-1.3086	-0.2441	-1.5527	72.1085	99.9689	
   879	-1.4527	-0.2166	-1.6693	-1.4603	-0.1525	-1.6127	-1.3138	-0.2365	-1.5503	72.0396	99.9693	
   880	-1.4350	-0.1768	-1.6118	-1.4245	-0.1055	-1.5300	-1.2711	-0.1879	-1.4590	72.0234	99.9700	
   881	-1.4103	-0.1473	-1.5576	-1.3904	-0.0845	-1.4749	-1.2527	-0.1654	-1.4181	72.0234	99.9706	
   882	-1.3699	-0.1080	-1.4779	-1.3093	-0.0470	-1.3562	-1.1368	-0.1253	-1.2621	72.2609	99.9701	
   883	-1.2102	-0.0961	-1.3063	-1.1442	-0.0325	-1.1767	-0.9889	-0.1196	-1.1086	72.3870	99.9721	
   884	-1.1825	-0.1368	-1.3193	-1.1603	-0.0797	-1.2401	-1.0257	-0.1646	-1.1902	72.2777	99.9707	
   885	-1.2210	-0.1460	-1.3670	-1.1997	-0.0791	-1.2788	-1.0597	-0.1641	-1.2238	72.2093	99.9710	
   886	-1.1313	-0.0476	-1.1789	-1.0607	 0.0439	-1.0168	-0.9056	-0.0564	-0.9621	72.3021	99.9750	
   887	-1.1105	-0.0781	-1.1886	-1.0708	-0.0121	-1.0829	-0.9424	-0.1013	-1.0437	72.2609	99.9726	
   888	-1.1332	-0.0776	-1.2108	-1.0904	-0.0118	-1.1022	-0.9646	-0.0935	-1.0581	72.1926	99.9723	
   889	-1.1382	-0.0374	-1.1756	-1.0615	 0.0309	-1.0306	-0.9286	-0.0599	-0.9885	72.3122	99.9742	
   890	-1.1224	-0.0277	-1.1501	-1.0599	 0.0568	-1.0030	-0.9213	-0.0335	-0.9548	72.1728	99.9743	
   891	-1.1145	-0.0229	-1.1374	-1.0531	 0.0610	-0.9920	-0.9154	-0.0298	-0.9452	72.1728	99.9743	
   892	-1.0751	 0.0014	-1.0737	-0.9856	 0.0902	-0.8954	-0.8061	-0.0047	-0.8108	72.4106	99.9740	
   893	-0.9301	 0.0186	-0.9116	-0.8282	 0.0875	-0.7407	-0.6745	 0.0125	-0.6620	72.4679	99.9729	
   894	-0.8611	 0.0322	-0.8289	-0.7676	 0.1124	-0.6552	-0.6058	 0.0229	-0.5828	72.5285	99.9740	
   895	-0.8611	 0.0322	-0.8289	-0.7684	 0.0994	-0.6689	-0.6339	 0.0271	-0.6068	72.4038	99.9731	
   896	-0.8690	 0.0274	-0.8416	-0.7881	 0.0998	-0.6883	-0.6457	 0.0197	-0.6260	72.4072	99.9732	
   897	-0.8838	 0.0327	-0.8511	-0.7949	 0.0956	-0.6993	-0.6405	 0.0120	-0.6284	72.5389	99.9726	
   898	-0.8838	 0.0327	-0.8511	-0.8017	 0.0914	-0.7103	-0.6582	 0.0009	-0.6572	72.5493	99.9731	
   899	-0.9223	 0.0234	-0.8988	-0.8487	 0.0749	-0.7738	-0.7040	-0.0060	-0.7100	72.4885	99.9715	
   900	-0.9065	 0.0331	-0.8733	-0.8085	 0.0872	-0.7214	-0.6523	 0.0046	-0.6476	72.6064	99.9722	
   901	-0.7704	 0.0304	-0.7399	-0.6845	 0.0764	-0.6081	-0.5450	-0.0043	-0.5493	72.6740	99.9718	
   902	-0.7171	 0.0344	-0.6827	-0.6435	 0.1017	-0.5419	-0.5089	 0.0293	-0.4797	72.4645	99.9723	
   903	-0.7152	 0.0644	-0.6508	-0.6214	 0.1402	-0.4812	-0.4957	 0.0594	-0.4364	72.4576	99.9747	
   904	-0.7073	 0.0693	-0.6380	-0.6146	 0.1444	-0.4702	-0.4912	 0.0404	-0.4508	72.5994	99.9765	
   905	-0.7783	 0.0256	-0.7527	-0.7033	 0.0897	-0.6136	-0.5790	-0.0039	-0.5829	72.5493	99.9743	
   906	-0.8157	 0.0313	-0.7844	-0.7298	 0.0858	-0.6440	-0.6019	-0.0074	-0.6093	72.6169	99.9740	
   907	-0.8640	-0.0128	-0.8768	-0.8186	 0.0312	-0.7874	-0.7185	-0.0588	-0.7774	72.4517	99.9728	
   908	-0.9242	-0.0066	-0.9308	-0.8700	 0.0493	-0.8207	-0.7519	-0.0470	-0.7989	72.4448	99.9736	
   909	-0.8700	 0.0124	-0.8576	-0.7905	 0.0609	-0.7296	-0.6536	-0.0180	-0.6717	72.5528	99.9718	
   910	-0.6698	 0.0635	-0.6063	-0.5905	 0.1094	-0.4811	-0.4756	 0.0175	-0.4581	72.6775	99.9737	
   911	-0.6402	 0.0529	-0.5873	-0.5845	 0.1007	-0.4838	-0.4815	 0.0138	-0.4677	72.5528	99.9730	
   912	-0.6313	 0.0728	-0.5586	-0.5897	 0.1224	-0.4674	-0.4919	 0.0290	-0.4629	72.4920	99.9734	
   913	-0.6304	 0.0878	-0.5426	-0.5821	 0.1395	-0.4426	-0.4742	 0.0402	-0.4340	72.5528	99.9737	
   914	-0.6146	 0.0975	-0.5171	-0.5684	 0.1479	-0.4205	-0.4676	 0.0552	-0.4124	72.4851	99.9734	
   915	-0.6067	 0.1023	-0.5044	-0.5600	 0.1780	-0.3819	-0.4433	 0.0814	-0.3620	72.4038	99.9745	
   916	-0.6373	 0.0979	-0.5393	-0.5813	 0.1525	-0.4288	-0.4912	 0.0404	-0.4508	72.5598	99.9760	
   917	-0.6935	 0.0489	-0.6445	-0.6315	 0.0842	-0.5473	-0.5103	 0.0066	-0.5037	72.6169	99.9708	
   918	-0.5012	 0.0952	-0.4059	-0.4375	 0.1414	-0.2961	-0.3204	 0.0495	-0.2709	72.7308	99.9729	
   919	-0.4587	 0.0493	-0.4094	-0.4689	 0.0598	-0.4091	-0.3769	-0.0405	-0.4175	72.7847	99.9694	
   920	-0.2585	 0.1004	-0.1581	-0.3938	 0.1061	-0.2877	-0.3402	 0.0044	-0.3358	72.3529	99.9657	
   921	-0.2270	 0.1198	-0.1072	-0.3641	 0.1618	-0.2023	-0.3138	 0.0646	-0.2493	72.0659	99.9680	
   922	-0.3029	 0.1163	-0.1866	-0.3769	 0.1663	-0.2106	-0.3256	 0.0572	-0.2685	72.2542	99.9722	
   923	-0.3868	 0.1080	-0.2788	-0.4307	 0.1456	-0.2851	-0.3604	 0.0463	-0.3141	72.3802	99.9709	
   924	-0.3700	 0.1327	-0.2373	-0.4162	 0.1670	-0.2493	-0.3479	 0.0650	-0.2828	72.3802	99.9709	
   925	-0.3079	 0.1565	-0.1514	-0.3283	 0.2087	-0.1196	-0.2372	 0.1128	-0.1244	72.4140	99.9714	
   926	-0.1777	 0.1790	 0.0013	-0.1701	 0.2190	 0.0489	-0.0886	 0.1298	 0.0412	72.5959	99.9717	
   927	-0.1393	 0.1882	 0.0490	-0.1360	 0.2400	 0.1040	-0.0709	 0.1409	 0.0700	72.5319	99.9738	
   928	-0.2083	 0.1746	-0.0337	-0.1838	 0.2106	 0.0268	-0.1181	 0.1112	-0.0069	72.6704	99.9737	
   929	-0.2014	 0.1644	-0.0370	-0.2239	 0.1983	-0.0256	-0.1299	 0.1038	-0.0261	72.6099	99.9698	
   930	-0.1856	 0.1741	-0.0115	-0.2307	 0.1941	-0.0367	-0.1646	 0.0929	-0.0717	72.5667	99.9699	
   931	-0.2083	 0.1746	-0.0337	-0.2625	 0.2119	-0.0506	-0.1861	 0.1121	-0.0740	72.4276	99.9701	
   932	-0.3089	 0.1415	-0.1674	-0.3411	 0.2132	-0.1279	-0.2830	 0.1058	-0.1772	72.2276	99.9747	
   933	-0.2981	 0.1914	-0.1067	-0.2327	 0.2676	 0.0349	-0.1317	 0.1682	 0.0365	72.5681	99.9761	
   934	-0.1363	 0.2333	 0.0969	-0.0721	 0.3167	 0.2446	 0.0353	 0.2076	 0.2429	72.6812	99.9768	
   935	-0.0890	 0.2624	 0.1734	-0.0054	 0.3329	 0.3274	 0.0766	 0.2336	 0.3101	72.6777	99.9772	
   936	-0.0881	 0.2774	 0.1894	-0.0038	 0.3588	 0.3550	 0.0891	 0.2523	 0.3414	72.6707	99.9779	
   937	-0.0555	 0.3119	 0.2563	 0.0440	 0.3882	 0.4322	 0.1362	 0.2820	 0.4182	72.7269	99.9782	
   938	 0.0066	 0.3357	 0.3423	 0.0910	 0.4047	 0.4957	 0.1592	 0.2855	 0.4446	72.7410	99.9792	
   939	 0.0223	 0.3454	 0.3677	 0.1106	 0.4044	 0.5150	 0.1703	 0.2815	 0.4518	72.8114	99.9794	
   940	 0.0460	 0.3600	 0.4060	 0.1311	 0.4170	 0.5481	 0.1932	 0.2850	 0.4782	72.8783	99.9797	
   941	 0.1308	 0.3833	 0.5141	 0.2311	 0.4412	 0.6723	 0.3136	 0.3062	 0.6198	73.0530	99.9795	
   942	 0.3290	 0.4044	 0.7335	 0.4150	 0.4424	 0.8574	 0.4785	 0.3116	 0.7901	73.1825	99.9784	
   943	 0.4277	 0.4075	 0.8351	 0.4800	 0.4327	 0.9127	 0.5223	 0.2846	 0.8068	73.2719	99.9786	
   944	 0.4336	 0.3823	 0.8159	 0.4784	 0.4068	 0.8852	 0.5084	 0.2431	 0.7515	73.3542	99.9799	
   945	 0.4632	 0.3717	 0.8349	 0.5033	 0.3848	 0.8880	 0.5070	 0.2204	 0.7275	73.3698	99.9802	
   946	 0.4938	 0.3761	 0.8699	 0.4981	 0.4065	 0.9045	 0.5320	 0.2580	 0.7900	73.1572	99.9775	
   947	 0.6219	 0.4838	 1.1057	 0.6037	 0.5214	 1.1251	 0.6180	 0.3665	 0.9846	72.9525	99.9784	
   948	 0.6337	 0.5487	 1.1824	 0.6026	 0.6078	 1.2104	 0.6333	 0.4307	 1.0639	72.8783	99.9800	
   949	 0.6416	 0.5536	 1.1951	 0.6419	 0.6071	 1.2490	 0.6784	 0.4263	 1.1047	73.0641	99.9808	
   950	 0.8457	 0.5495	 1.3952	 0.7736	 0.6136	 1.3871	 0.8689	 0.4806	 1.3495	72.8316	99.9724	
   951	 0.9375	 0.5627	 1.5002	 0.8659	 0.6206	 1.4866	 0.9179	 0.4459	 1.3638	73.0530	99.9772	
   952	 1.0153	 0.5962	 1.6116	 0.9274	 0.6585	 1.5859	 0.9776	 0.4943	 1.4719	72.9125	99.9762	
   953	 0.9907	 0.5666	 1.5574	 0.9583	 0.6277	 1.5860	 0.9939	 0.4828	 1.4767	72.9608	99.9775	
   954	 0.9680	 0.5671	 1.5351	 0.9651	 0.6319	 1.5970	 1.0161	 0.4749	 1.4910	73.1450	99.9789	
   955	 0.9769	 0.5870	 1.5639	 0.9599	 0.6536	 1.6135	 1.0064	 0.5015	 1.5079	73.0162	99.9783	
   956	 0.8467	 0.5645	 1.4112	 0.8744	 0.6507	 1.5251	 0.9318	 0.4873	 1.4191	73.0714	99.9813	
   957	 0.9246	 0.5980	 1.5226	 0.9583	 0.6277	 1.5860	 0.9776	 0.4943	 1.4719	73.1487	99.9780	
   958	 0.9267	 0.5128	 1.4394	 1.0080	 0.5837	 1.5917	 1.0991	 0.4398	 1.5389	73.4876	99.9795	
   959	 1.0430	 0.5556	 1.5986	 1.1148	 0.6121	 1.7270	 1.1914	 0.4651	 1.6565	73.5534	99.9792	
   960	 1.0411	 0.5255	 1.5666	 1.0875	 0.5953	 1.6828	 1.1626	 0.4579	 1.6205	73.3638	99.9784	
   961	 1.0253	 0.5158	 1.5411	 1.0671	 0.5827	 1.6497	 1.1443	 0.4354	 1.5797	73.4373	99.9787	
   962	 0.9632	 0.4920	 1.4552	 1.0124	 0.5490	 1.5615	 1.0919	 0.4134	 1.5053	73.4412	99.9775	
   963	 0.8320	 0.4545	 1.2866	 0.9116	 0.5118	 1.4235	 0.9995	 0.3881	 1.3876	73.4373	99.9774	
   964	 0.6703	 0.4127	 1.0830	 0.7980	 0.4792	 1.2772	 0.9131	 0.3665	 1.2796	73.4837	99.9777	
   965	 0.6397	 0.4082	 1.0480	 0.8109	 0.4746	 1.2855	 0.9641	 0.3659	 1.3300	73.7106	99.9773	
   966	 0.6841	 0.3923	 1.0765	 0.8494	 0.4610	 1.3104	 0.9864	 0.3580	 1.3444	73.6491	99.9775	
   967	 0.6230	 0.3835	 1.0065	 0.7964	 0.4533	 1.2497	 0.9346	 0.3473	 1.2820	73.6531	99.9780	
   968	 0.5461	 0.3650	 0.9111	 0.7169	 0.4417	 1.1586	 0.8600	 0.3332	 1.1932	73.5955	99.9783	
   969	 0.4849	 0.3562	 0.8411	 0.6639	 0.4339	 1.0978	 0.8142	 0.3262	 1.1404	73.5955	99.9783	
   970	 0.4465	 0.3469	 0.7934	 0.6245	 0.4346	 1.0591	 0.7750	 0.3343	 1.1092	73.4644	99.9783	
   971	 0.4090	 0.3527	 0.7617	 0.5989	 0.4437	 1.0425	 0.7527	 0.3421	 1.0949	73.4605	99.9789	
   972	 0.4257	 0.3774	 0.8032	 0.6398	 0.4689	 1.1087	 0.8169	 0.3715	 1.1885	73.5642	99.9785	
   973	 0.5638	 0.4048	 0.9685	 0.7920	 0.4879	 1.2799	 0.9544	 0.3925	 1.3469	73.6788	99.9789	
   974	 0.6713	 0.4277	 1.0989	 0.8526	 0.5128	 1.3655	 0.9884	 0.3920	 1.3805	73.6412	99.9803	
   975	 0.6713	 0.4277	 1.0989	 0.8518	 0.4999	 1.3517	 0.9655	 0.3885	 1.3541	73.5876	99.9798	
   976	 0.6949	 0.4422	 1.1372	 0.8534	 0.5258	 1.3792	 0.9780	 0.4073	 1.3853	73.5221	99.9797	
   977	 0.6959	 0.4573	 1.1532	 0.8671	 0.5342	 1.4013	 0.9846	 0.4223	 1.4069	73.5183	99.9797	
   978	 0.6959	 0.4573	 1.1532	 0.8542	 0.5387	 1.3930	 0.9683	 0.4339	 1.4022	73.3912	99.9791	
   979	 0.6663	 0.4679	 1.1342	 0.8482	 0.5475	 1.3957	 0.9801	 0.4413	 1.4214	73.5066	99.9792	
   980	 0.7423	 0.4714	 1.2136	 0.9406	 0.5546	 1.4951	 1.0880	 0.4437	 1.5317	73.6788	99.9795	
   981	 0.8113	 0.4850	 1.2963	 1.0064	 0.5578	 1.5642	 1.1338	 0.4507	 1.5845	73.6828	99.9794	
   982	 0.8034	 0.4802	 1.2836	 0.9799	 0.5539	 1.5338	 1.1050	 0.4435	 1.5485	73.6294	99.9792	
   983	 0.7807	 0.4806	 1.2613	 0.9602	 0.5542	 1.5145	 1.0821	 0.4400	 1.5221	73.6333	99.9797	
   984	 0.7807	 0.4806	 1.2613	 0.9542	 0.5630	 1.5172	 1.0769	 0.4476	 1.5245	73.5681	99.9800	
   985	 0.7817	 0.4956	 1.2773	 0.9611	 0.5672	 1.5282	 1.0828	 0.4513	 1.5341	73.6333	99.9797	
   986	 0.7975	 0.5053	 1.3028	 0.9679	 0.5714	 1.5393	 1.0887	 0.4551	 1.5438	73.6373	99.9792	
   987	 0.8971	 0.5234	 1.4205	 1.0739	 0.5869	 1.6608	 1.2144	 0.4686	 1.6829	73.8091	99.9785	
   988	 1.0184	 0.5260	 1.5444	 1.1791	 0.5894	 1.7685	 1.2942	 0.4751	 1.7693	73.7479	99.9787	
   989	 1.0411	 0.5255	 1.5666	 1.1791	 0.5894	 1.7685	 1.2772	 0.4753	 1.7525	73.6333	99.9786	
   990	 1.0105	 0.5211	 1.5316	 1.1397	 0.5901	 1.7298	 1.2484	 0.4681	 1.7165	73.6373	99.9787	
   991	 0.9878	 0.5216	 1.5094	 1.1201	 0.5904	 1.7105	 1.2314	 0.4683	 1.6997	73.6373	99.9787	
   992	 0.9799	 0.5167	 1.4967	 1.1064	 0.5820	 1.6884	 1.2085	 0.4649	 1.6733	73.5798	99.9784	
   993	 0.9572	 0.5172	 1.4744	 1.0799	 0.5781	 1.6580	 1.1797	 0.4577	 1.6373	73.5876	99.9784	
   994	 0.9878	 0.5216	 1.5094	 1.1329	 0.5859	 1.7188	 1.2543	 0.4718	 1.7261	73.6907	99.9779	
   995	 1.1022	 0.5343	 1.6365	 1.2389	 0.6014	 1.8403	 1.3570	 0.4819	 1.8389	73.7479	99.9783	
   996	 1.1328	 0.5387	 1.6715	 1.2578	 0.5881	 1.8459	 1.3511	 0.4781	 1.8293	73.6986	99.9772	
   997	 1.1022	 0.5343	 1.6365	 1.2056	 0.5933	 1.7989	 1.3053	 0.4712	 1.7765	73.6452	99.9776	
   998	 1.0716	 0.5299	 1.6016	 1.1919	 0.5849	 1.7768	 1.2935	 0.4638	 1.7573	73.7066	99.9779	
   999	 1.0637	 0.5251	 1.5888	 1.1783	 0.5765	 1.7547	 1.2706	 0.4603	 1.7309	73.6491	99.9775	
  1000	 1.0332	 0.5207	 1.5539	 1.1389	 0.5771	 1.7161	 1.2307	 0.4570	 1.6877	73.5915	99.9778	
  1001	 0.9947	 0.5114	 1.5061	 1.1056	 0.5691	 1.6746	 1.2078	 0.4535	 1.6613	73.5876	99.9773	
  1002	 1.0411	 0.5255	 1.5666	 1.1851	 0.5807	 1.7658	 1.2994	 0.4675	 1.7669	73.7559	99.9776	
  1003	 1.1397	 0.5286	 1.6683	 1.2578	 0.5881	 1.8459	 1.3734	 0.4703	 1.8436	73.7559	99.9771	
  1004	 1.1397	 0.5286	 1.6683	 1.2381	 0.5884	 1.8265	 1.3445	 0.4631	 1.8076	73.7066	99.9774	
  1005	 1.0943	 0.5295	 1.6238	 1.2048	 0.5803	 1.7851	 1.3157	 0.4559	 1.7716	73.7719	99.9771	
  1006	 1.0785	 0.5198	 1.5983	 1.1979	 0.5761	 1.7741	 1.2876	 0.4601	 1.7477	73.6452	99.9781	
  1007	 1.0637	 0.5251	 1.5888	 1.1783	 0.5765	 1.7547	 1.2706	 0.4603	 1.7309	73.6491	99.9775	
  1008	 1.0480	 0.5154	 1.5634	 1.1518	 0.5726	 1.7244	 1.2529	 0.4492	 1.7021	73.6531	99.9776	
  1009	 1.0253	 0.5158	 1.5411	 1.1321	 0.5729	 1.7050	 1.2307	 0.4570	 1.6877	73.5876	99.9773	
  1010	 1.1022	 0.5343	 1.6365	 1.2252	 0.5930	 1.8182	 1.3504	 0.4668	 1.8173	73.8211	99.9774	
  1011	 1.2008	 0.5374	 1.7382	 1.3168	 0.5871	 1.9039	 1.4133	 0.4736	 1.8868	73.7599	99.9770	
  1012	 1.2008	 0.5374	 1.7382	 1.2971	 0.5874	 1.8845	 1.3904	 0.4701	 1.8604	73.7066	99.9768	
  1013	 1.1703	 0.5330	 1.7032	 1.2646	 0.5923	 1.8569	 1.3563	 0.4705	 1.8269	73.6452	99.9776	
  1014	 1.1703	 0.5330	 1.7032	 1.2578	 0.5881	 1.8459	 1.3504	 0.4668	 1.8173	73.6491	99.9771	
  1015	 1.1624	 0.5281	 1.6905	 1.2381	 0.5884	 1.8265	 1.3386	 0.4594	 1.7980	73.6531	99.9771	
  1016	 1.1397	 0.5286	 1.6683	 1.2116	 0.5846	 1.7961	 1.3046	 0.4598	 1.7645	73.5955	99.9768	
  1017	 1.0943	 0.5295	 1.6238	 1.1783	 0.5765	 1.7547	 1.2699	 0.4489	 1.7189	73.6649	99.9770	
  1018	 1.0637	 0.5251	 1.5888	 1.1389	 0.5771	 1.7161	 1.2248	 0.4533	 1.6781	73.5416	99.9770	
  1019	 1.0943	 0.5295	 1.6238	 1.1919	 0.5849	 1.7768	 1.2994	 0.4675	 1.7669	73.6452	99.9765	
  1020	 1.2166	 0.5471	 1.7637	 1.3168	 0.5871	 1.9039	 1.4074	 0.4699	 1.8772	73.7719	99.9764	
  1021	 1.2393	 0.5466	 1.7859	 1.3236	 0.5913	 1.9149	 1.4126	 0.4622	 1.8748	73.7800	99.9770	
  1022	 1.2087	 0.5422	 1.7510	 1.2903	 0.5832	 1.8735	 1.3727	 0.4590	 1.8316	73.7225	99.9767	
  1023	 1.2008	 0.5374	 1.7382	 1.2706	 0.5836	 1.8542	 1.3557	 0.4592	 1.8148	73.6610	99.9764	
  1024	 1.1860	 0.5427	 1.7287	 1.2638	 0.5793	 1.8431	 1.3386	 0.4594	 1.7980	73.6649	99.9763	
  1025	 1.1703	 0.5330	 1.7032	 1.2373	 0.5755	 1.8128	 1.3098	 0.4522	 1.7620	73.6073	99.9766	
  1026	 1.1397	 0.5286	 1.6683	 1.2040	 0.5674	 1.7713	 1.2699	 0.4489	 1.7189	73.5494	99.9763	
  1027	 1.0943	 0.5295	 1.6238	 1.1518	 0.5726	 1.7244	 1.2411	 0.4417	 1.6828	73.6151	99.9761	
  1028	 1.0864	 0.5246	 1.6111	 1.1518	 0.5726	 1.7244	 1.2418	 0.4531	 1.6949	73.5416	99.9759	
  1029	 1.1860	 0.5427	 1.7287	 1.2706	 0.5836	 1.8542	 1.3616	 0.4629	 1.8244	73.7185	99.9761	
  1030	 1.2620	 0.5462	 1.8082	 1.3168	 0.5871	 1.9039	 1.4067	 0.4585	 1.8652	73.7265	99.9756	
  1031	 1.2541	 0.5413	 1.7954	 1.2971	 0.5874	 1.8845	 1.3727	 0.4590	 1.8316	73.6073	99.9762	
  1032	 1.2245	 0.5519	 1.7764	 1.2835	 0.5790	 1.8625	 1.3498	 0.4555	 1.8052	73.6769	99.9757	
  1033	 1.2245	 0.5519	 1.7764	 1.2706	 0.5836	 1.8542	 1.3498	 0.4555	 1.8052	73.6769	99.9752	
  1034	 1.2245	 0.5519	 1.7764	 1.2578	 0.5881	 1.8459	 1.3216	 0.4596	 1.7812	73.5573	99.9758	
  1035	 1.2018	 0.5524	 1.7542	 1.2313	 0.5842	 1.8155	 1.2987	 0.4561	 1.7549	73.5612	99.9752	
  1036	 1.1791	 0.5529	 1.7320	 1.2048	 0.5803	 1.7851	 1.2699	 0.4489	 1.7189	73.5691	99.9752	
  1037	 1.1712	 0.5480	 1.7192	 1.1919	 0.5849	 1.7768	 1.2588	 0.4529	 1.7117	73.5032	99.9755	
  1038	 1.2482	 0.5665	 1.8147	 1.2911	 0.5962	 1.8873	 1.3734	 0.4703	 1.8436	73.6729	99.9747	
  1039	 1.3399	 0.5797	 1.9196	 1.3638	 0.6036	 1.9673	 1.4303	 0.4733	 1.9036	73.6808	99.9746	
  1040	 1.3468	 0.5696	 1.9163	 1.3373	 0.5997	 1.9370	 1.4015	 0.4662	 1.8676	73.5651	99.9741	
  1041	 1.3241	 0.5700	 1.8941	 1.3236	 0.5913	 1.9149	 1.3786	 0.4627	 1.8412	73.5691	99.9740	
  1042	 1.3093	 0.5753	 1.8846	 1.3108	 0.5958	 1.9066	 1.3675	 0.4666	 1.8340	73.5691	99.9740	
  1043	 1.3014	 0.5705	 1.8719	 1.2911	 0.5962	 1.8873	 1.3445	 0.4631	 1.8076	73.5110	99.9743	
  1044	 1.2787	 0.5709	 1.8496	 1.2646	 0.5923	 1.8569	 1.3157	 0.4559	 1.7716	73.5188	99.9743	
  1045	 1.2482	 0.5665	 1.8147	 1.2313	 0.5842	 1.8155	 1.2758	 0.4526	 1.7285	73.4606	99.9739	
  1046	 1.2176	 0.5621	 1.7797	 1.1919	 0.5849	 1.7768	 1.2470	 0.4454	 1.6925	73.4644	99.9740	
  1047	 1.2255	 0.5670	 1.7924	 1.2321	 0.5972	 1.8292	 1.3046	 0.4598	 1.7645	73.5691	99.9747	
  1048	 1.3399	 0.5797	 1.9196	 1.3373	 0.5997	 1.9370	 1.4015	 0.4662	 1.8676	73.6310	99.9737	
  1049	 1.3774	 0.5740	 1.9513	 1.3501	 0.5952	 1.9453	 1.3956	 0.4624	 1.8580	73.5149	99.9737	
  1050	 1.3468	 0.5696	 1.9163	 1.3108	 0.5958	 1.9066	 1.3616	 0.4629	 1.8244	73.4528	99.9734	
  1051	 1.3172	 0.5802	 1.8974	 1.3039	 0.5916	 1.8956	 1.3445	 0.4631	 1.8076	73.5188	99.9736	
  1052	 1.3172	 0.5802	 1.8974	 1.2911	 0.5962	 1.8873	 1.3386	 0.4594	 1.7980	73.5227	99.9737	
  1053	 1.3093	 0.5753	 1.8846	 1.2714	 0.5965	 1.8679	 1.3105	 0.4635	 1.7741	73.3983	99.9736	
  1054	 1.2787	 0.5709	 1.8496	 1.2449	 0.5926	 1.8375	 1.2817	 0.4563	 1.7381	73.4022	99.9742	
  1055	 1.2412	 0.5767	 1.8179	 1.2184	 0.5888	 1.8072	 1.2529	 0.4492	 1.7021	73.4722	99.9744	
  1056	 1.2412	 0.5767	 1.8179	 1.2124	 0.5975	 1.8099	 1.2654	 0.4679	 1.7333	73.3945	99.9731	
  1057	 1.3556	 0.5894	 1.9451	 1.3312	 0.6085	 1.9397	 1.3851	 0.4777	 1.8629	73.5110	99.9731	
  1058	 1.4089	 0.5934	 2.0023	 1.3706	 0.6078	 1.9784	 1.4185	 0.4659	 1.8844	73.5848	99.9734	
  1059	 1.3931	 0.5837	 1.9768	 1.3441	 0.6039	 1.9480	 1.3786	 0.4627	 1.8412	73.4644	99.9740	
  1060	 1.3704	 0.5841	 1.9546	 1.3244	 0.6043	 1.9287	 1.3563	 0.4705	 1.8269	73.3983	99.9736	
  1061	 1.3783	 0.5890	 1.9673	 1.3244	 0.6043	 1.9287	 1.3563	 0.4705	 1.8269	73.4022	99.9730	
  1062	 1.3704	 0.5841	 1.9546	 1.3176	 0.6000	 1.9176	 1.3334	 0.4670	 1.8005	73.3437	99.9738	
  1063	 1.3478	 0.5846	 1.9323	 1.2851	 0.6049	 1.8900	 1.3105	 0.4635	 1.7741	73.3475	99.9739	
  1064	 1.3251	 0.5850	 1.9101	 1.2457	 0.6056	 1.8513	 1.2765	 0.4640	 1.7405	73.2889	99.9730	
  1065	 1.2945	 0.5806	 1.8751	 1.2321	 0.5972	 1.8292	 1.2647	 0.4566	 1.7213	73.3514	99.9733	
  1066	 1.3635	 0.5943	 1.9578	 1.3056	 0.6175	 1.9231	 1.3511	 0.4781	 1.8293	73.3983	99.9731	
  1067	 1.4700	 0.6022	 2.0722	 1.4039	 0.6159	 2.0198	 1.4251	 0.4810	 1.9060	73.4022	99.9730	
  1068	 1.4700	 0.6022	 2.0722	 1.3842	 0.6162	 2.0004	 1.4022	 0.4775	 1.8797	73.3475	99.9727	
  1069	 1.4395	 0.5978	 2.0372	 1.3577	 0.6123	 1.9701	 1.3793	 0.4740	 1.8533	73.3475	99.9727	
  1070	 1.4316	 0.5929	 2.0245	 1.3509	 0.6081	 1.9590	 1.3734	 0.4703	 1.8436	73.3475	99.9727	
  1071	 1.4237	 0.5881	 2.0118	 1.3441	 0.6039	 1.9480	 1.3563	 0.4705	 1.8269	73.2850	99.9730	
  1072	 1.3931	 0.5837	 1.9768	 1.3116	 0.6088	 1.9204	 1.3275	 0.4633	 1.7909	73.2889	99.9742	
  1073	 1.3626	 0.5793	 1.9418	 1.2782	 0.6007	 1.8790	 1.2824	 0.4677	 1.7501	73.1637	99.9735	
  1074	 1.3478	 0.5846	 1.9323	 1.2851	 0.6049	 1.8900	 1.3053	 0.4712	 1.7765	73.2813	99.9736	
  1075	 1.4395	 0.5978	 2.0372	 1.3842	 0.6162	 2.0004	 1.4140	 0.4849	 1.8989	73.3945	99.9731	
  1076	 1.5006	 0.6066	 2.1072	 1.4304	 0.6197	 2.0502	 1.4369	 0.4884	 1.9253	73.3398	99.9733	
  1077	 1.4927	 0.6017	 2.0945	 1.4039	 0.6159	 2.0198	 1.4081	 0.4812	 1.8893	73.2850	99.9730	
  1078	 1.4700	 0.6022	 2.0722	 1.3911	 0.6204	 2.0115	 1.3969	 0.4851	 1.8821	73.2813	99.9736	
  1079	 1.4700	 0.6022	 2.0722	 1.3842	 0.6162	 2.0004	 1.3910	 0.4814	 1.8725	73.2850	99.9730	
  1080	 1.4622	 0.5973	 2.0595	 1.3646	 0.6165	 1.9811	 1.3629	 0.4856	 1.8485	73.1599	99.9730	
  1081	 1.4395	 0.5978	 2.0372	 1.3381	 0.6127	 1.9507	 1.3341	 0.4784	 1.8125	73.1674	99.9729	
  1082	 1.4010	 0.5885	 1.9895	 1.2987	 0.6133	 1.9121	 1.2942	 0.4751	 1.7693	73.1047	99.9738	
  1083	 1.3704	 0.5841	 1.9546	 1.2594	 0.6140	 1.8734	 1.2713	 0.4716	 1.7429	73.1047	99.9733	
  1084	 1.3941	 0.5987	 1.9928	 1.3252	 0.6172	 1.9424	 1.3459	 0.4858	 1.8317	73.2774	99.9730	
  1085	 1.5006	 0.6066	 2.1072	 1.4176	 0.6243	 2.0419	 1.4258	 0.4923	 1.9181	73.2774	99.9730	
  1086	 1.5154	 0.6013	 2.1167	 1.4176	 0.6243	 2.0419	 1.4199	 0.4886	 1.9085	73.2188	99.9733	
  1087	 1.4779	 0.6070	 2.0850	 1.3911	 0.6204	 2.0115	 1.3858	 0.4891	 1.8749	73.2225	99.9732	
  1088	 1.4700	 0.6022	 2.0722	 1.3782	 0.6249	 2.0032	 1.3799	 0.4853	 1.8653	73.2225	99.9739	
  1089	 1.4552	 0.6075	 2.0627	 1.3586	 0.6253	 1.9838	 1.3629	 0.4856	 1.8485	73.2263	99.9733	
  1090	 1.4395	 0.5978	 2.0372	 1.3381	 0.6127	 1.9507	 1.3341	 0.4784	 1.8125	73.1674	99.9729	
  1091	 1.3941	 0.5987	 1.9928	 1.2987	 0.6133	 1.9121	 1.2942	 0.4751	 1.7693	73.1712	99.9735	
  1092	 1.3704	 0.5841	 1.9546	 1.2594	 0.6140	 1.8734	 1.2654	 0.4679	 1.7333	73.1084	99.9739	
  1093	 1.3399	 0.5797	 1.9196	 1.2397	 0.6143	 1.8540	 1.2491	 0.4795	 1.7285	73.0345	99.9736	
  1094	 1.4089	 0.5934	 2.0023	 1.3321	 0.6214	 1.9535	 1.3518	 0.4895	 1.8413	73.2112	99.9734	
  1095	 1.4770	 0.5920	 2.0690	 1.3911	 0.6204	 2.0115	 1.3969	 0.4851	 1.8821	73.2150	99.9739	
  1096	 1.4543	 0.5925	 2.0467	 1.3646	 0.6165	 1.9811	 1.3681	 0.4779	 1.8461	73.2225	99.9739	
  1097	 1.4237	 0.5881	 2.0118	 1.3381	 0.6127	 1.9507	 1.3400	 0.4821	 1.8221	73.1562	99.9736	
  1098	 1.4089	 0.5934	 2.0023	 1.3252	 0.6172	 1.9424	 1.3289	 0.4860	 1.8149	73.1562	99.9736	
  1099	 1.4010	 0.5885	 1.9895	 1.3056	 0.6175	 1.9231	 1.3171	 0.4786	 1.7957	73.1599	99.9736	
  1100	 1.3783	 0.5890	 1.9673	 1.2791	 0.6137	 1.8927	 1.2772	 0.4753	 1.7525	73.1047	99.9738	
  1101	 1.3399	 0.5797	 1.9196	 1.2397	 0.6143	 1.8540	 1.2432	 0.4758	 1.7189	73.0382	99.9742	
  1102	 1.3093	 0.5753	 1.8846	 1.2064	 0.6062	 1.8126	 1.2144	 0.4686	 1.6829	73.0419	99.9736	
  1103	 1.2945	 0.5806	 1.8751	 1.2132	 0.6105	 1.8237	 1.2321	 0.4797	 1.7117	73.0935	99.9733	
  1104	 1.3862	 0.5938	 1.9800	 1.3124	 0.6217	 1.9341	 1.3348	 0.4897	 1.8245	73.2112	99.9734	
  1105	 1.4395	 0.5978	 2.0372	 1.3517	 0.6211	 1.9728	 1.3629	 0.4856	 1.8485	73.2188	99.9733	
  1106	 1.4089	 0.5934	 2.0023	 1.3252	 0.6172	 1.9424	 1.3230	 0.4823	 1.8053	73.1599	99.9741	
  1107	 1.3931	 0.5837	 1.9768	 1.2927	 0.6221	 1.9148	 1.3060	 0.4825	 1.7885	73.0935	99.9740	
  1108	 1.3783	 0.5890	 1.9673	 1.2987	 0.6133	 1.9121	 1.2949	 0.4864	 1.7813	73.0935	99.9738	
  1109	 1.3556	 0.5894	 1.9451	 1.2662	 0.6182	 1.8844	 1.2720	 0.4830	 1.7549	73.0973	99.9739	
  1110	 1.3251	 0.5850	 1.9101	 1.2329	 0.6101	 1.8430	 1.2321	 0.4797	 1.7117	73.0382	99.9735	
  1111	 1.2866	 0.5758	 1.8624	 1.1935	 0.6108	 1.8043	 1.2032	 0.4725	 1.6757	73.0382	99.9742	
  1112	 1.2560	 0.5714	 1.8274	 1.1474	 0.6072	 1.7546	 1.1633	 0.4692	 1.6325	72.9790	99.9733	
  1113	 1.2107	 0.5723	 1.7829	 1.1140	 0.5992	 1.7132	 1.1286	 0.4583	 1.5869	73.0493	99.9735	
  1114	 1.1801	 0.5679	 1.7480	 1.1012	 0.6037	 1.7049	 1.1293	 0.4697	 1.5990	73.0345	99.9736	
  1115	 1.2570	 0.5864	 1.8434	 1.2004	 0.6150	 1.8154	 1.2321	 0.4797	 1.7117	73.2150	99.9739	
  1116	 1.3320	 0.5749	 1.9068	 1.2397	 0.6143	 1.8540	 1.2602	 0.4755	 1.7357	73.0935	99.9740	
  1117	 1.2945	 0.5806	 1.8751	 1.2004	 0.6150	 1.8154	 1.2150	 0.4799	 1.6949	73.0345	99.9736	
  1118	 1.2787	 0.5709	 1.8496	 1.1867	 0.6066	 1.7933	 1.2032	 0.4725	 1.6757	73.0345	99.9736	
  1119	 1.2639	 0.5762	 1.8401	 1.1610	 0.6157	 1.7767	 1.1973	 0.4688	 1.6661	73.1010	99.9734	
  1120	 1.2334	 0.5718	 1.8052	 1.1534	 0.5985	 1.7519	 1.1633	 0.4692	 1.6325	73.0382	99.9735	
  1121	 1.2028	 0.5674	 1.7702	 1.1140	 0.5992	 1.7132	 1.1234	 0.4660	 1.5894	72.9790	99.9738	
  1122	 1.1574	 0.5683	 1.7257	 1.0747	 0.5998	 1.6745	 1.0946	 0.4588	 1.5534	73.0456	99.9742	
  1123	 1.1189	 0.5591	 1.6780	 1.0285	 0.5963	 1.6248	 1.0547	 0.4555	 1.5102	72.9827	99.9739	
  1124	 1.0736	 0.5600	 1.6336	 1.0020	 0.5924	 1.5944	 1.0207	 0.4559	 1.4766	72.9827	99.9744	
  1125	 1.0815	 0.5648	 1.6463	 1.0285	 0.5963	 1.6248	 1.0613	 0.4705	 1.5318	73.0308	99.9736	
  1126	 1.1801	 0.5679	 1.7480	 1.1080	 0.6079	 1.7159	 1.1463	 0.4694	 1.6158	73.0935	99.9740	
  1127	 1.1880	 0.5727	 1.7607	 1.1080	 0.6079	 1.7159	 1.1404	 0.4657	 1.6062	73.1010	99.9740	
  1128	 1.1574	 0.5683	 1.7257	 1.0687	 0.6086	 1.6772	 1.1064	 0.4662	 1.5726	73.0382	99.9737	
  1129	 1.1347	 0.5688	 1.7035	 1.0550	 0.6002	 1.6552	 1.0894	 0.4664	 1.5558	73.0382	99.9730	
  1130	 1.1268	 0.5639	 1.6908	 1.0422	 0.6047	 1.6469	 1.0724	 0.4666	 1.5390	72.9754	99.9739	
  1131	 1.1041	 0.5644	 1.6685	 1.0157	 0.6008	 1.6165	 1.0384	 0.4670	 1.5054	72.9161	99.9736	
  1132	 1.0805	 0.5498	 1.6303	 0.9952	 0.5882	 1.5834	 1.0036	 0.4561	 1.4598	72.8567	99.9744	
  1133	 1.0351	 0.5507	 1.5858	 0.9558	 0.5889	 1.5447	 0.9696	 0.4566	 1.4262	72.8567	99.9744	
  1134	 1.0124	 0.5512	 1.5636	 0.9165	 0.5895	 1.5060	 0.9408	 0.4494	 1.3902	72.8639	99.9738	
  1135	 1.0055	 0.5613	 1.5669	 0.9430	 0.5934	 1.5364	 0.9814	 0.4640	 1.4454	72.9754	99.9733	
  1136	 1.1041	 0.5644	 1.6685	 1.0353	 0.6005	 1.6358	 1.0672	 0.4742	 1.5414	72.9681	99.9733	
  1137	 1.1495	 0.5635	 1.7130	 1.0422	 0.6047	 1.6469	 1.0783	 0.4703	 1.5486	72.9125	99.9725	
  1138	 1.1120	 0.5692	 1.6813	 1.0097	 0.6096	 1.6192	 1.0443	 0.4708	 1.5150	72.9161	99.9731	
  1139	 1.0972	 0.5745	 1.6718	 1.0028	 0.6054	 1.6082	 1.0384	 0.4670	 1.5054	72.9827	99.9727	
  1140	 1.0972	 0.5745	 1.6718	 1.0028	 0.6054	 1.6082	 1.0272	 0.4710	 1.4982	72.9197	99.9730	
  1141	 1.0815	 0.5648	 1.6463	 0.9892	 0.5970	 1.5861	 0.9984	 0.4638	 1.4622	72.8603	99.9738	
  1142	 1.0588	 0.5653	 1.6241	 0.9498	 0.5976	 1.5474	 0.9644	 0.4642	 1.4286	72.8007	99.9729	
  1143	 1.0203	 0.5560	 1.5763	 0.9105	 0.5983	 1.5088	 0.9356	 0.4570	 1.3926	72.8007	99.9736	
  1144	 0.9976	 0.5565	 1.5541	 0.9037	 0.5941	 1.4977	 0.9304	 0.4647	 1.3950	72.7936	99.9729	
  1145	 1.0588	 0.5653	 1.6241	 0.9703	 0.6102	 1.5805	 1.0272	 0.4710	 1.4982	72.9717	99.9728	
  1146	 1.1120	 0.5692	 1.6813	 1.0225	 0.6050	 1.6275	 1.0613	 0.4705	 1.5318	72.9754	99.9727	
  1147	 1.0893	 0.5697	 1.6590	 1.0028	 0.6054	 1.6082	 1.0272	 0.4710	 1.4982	72.9161	99.9736	
  1148	 1.0667	 0.5701	 1.6368	 0.9832	 0.6057	 1.5889	 1.0102	 0.4712	 1.4814	72.9161	99.9736	
  1149	 1.0519	 0.5754	 1.6273	 0.9703	 0.6102	 1.5805	 0.9991	 0.4751	 1.4742	72.9161	99.9736	
  1150	 1.0440	 0.5706	 1.6146	 0.9567	 0.6018	 1.5585	 0.9873	 0.4677	 1.4550	72.9197	99.9730	
  1151	 1.0213	 0.5710	 1.5923	 0.9370	 0.6022	 1.5391	 0.9592	 0.4719	 1.4311	72.8567	99.9732	
  1152	 1.0055	 0.5613	 1.5669	 0.9105	 0.5983	 1.5088	 0.9415	 0.4607	 1.4022	72.8603	99.9733	
  1153	 0.9907	 0.5666	 1.5574	 0.9045	 0.6070	 1.5115	 0.9481	 0.4758	 1.4239	72.8495	99.9727	
  1154	 1.0824	 0.5798	 1.6623	 1.0036	 0.6183	 1.6220	 1.0619	 0.4819	 1.5438	73.0308	99.9725	
  1155	 1.1357	 0.5838	 1.7195	 1.0558	 0.6131	 1.6689	 1.0849	 0.4854	 1.5702	72.9717	99.9727	
  1156	 1.1130	 0.5843	 1.6973	 1.0233	 0.6180	 1.6413	 1.0508	 0.4858	 1.5366	72.9125	99.9730	
  1157	 1.1051	 0.5794	 1.6845	 1.0165	 0.6138	 1.6303	 1.0449	 0.4821	 1.5270	72.9125	99.9730	
  1158	 1.1051	 0.5794	 1.6845	 1.0036	 0.6183	 1.6220	 1.0338	 0.4860	 1.5198	72.8495	99.9727	
  1159	 1.0824	 0.5798	 1.6623	 0.9840	 0.6186	 1.6026	 1.0220	 0.4786	 1.5006	72.9161	99.9731	
  1160	 1.0667	 0.5701	 1.6368	 0.9703	 0.6102	 1.5805	 0.9880	 0.4790	 1.4671	72.7900	99.9736	
  1161	 1.0292	 0.5759	 1.6051	 0.9310	 0.6109	 1.5419	 0.9540	 0.4795	 1.4335	72.7936	99.9729	
  1162	 1.0144	 0.5812	 1.5956	 0.9446	 0.6193	 1.5639	 0.9828	 0.4867	 1.4695	72.9089	99.9736	
  1163	 1.1061	 0.5944	 1.7005	 1.0498	 0.6219	 1.6717	 1.0855	 0.4967	 1.5822	73.0272	99.9730	
  1164	 1.1515	 0.5935	 1.7450	 1.0763	 0.6257	 1.7020	 1.1078	 0.4889	 1.5966	73.0345	99.9736	
  1165	 1.1357	 0.5838	 1.7195	 1.0498	 0.6219	 1.6717	 1.0737	 0.4893	 1.5630	72.9089	99.9736	
  1166	 1.1130	 0.5843	 1.6973	 1.0370	 0.6264	 1.6634	 1.0626	 0.4932	 1.5559	72.9052	99.9742	
  1167	 1.1130	 0.5843	 1.6973	 1.0370	 0.6264	 1.6634	 1.0626	 0.4932	 1.5559	72.9052	99.9742	
  1168	 1.1051	 0.5794	 1.6845	 1.0173	 0.6267	 1.6440	 1.0397	 0.4897	 1.5295	72.8459	99.9745	
  1169	 1.0676	 0.5852	 1.6528	 0.9976	 0.6271	 1.6247	 1.0116	 0.4939	 1.5055	72.8459	99.9750	
  1170	 1.0597	 0.5803	 1.6400	 0.9780	 0.6274	 1.6053	 1.0057	 0.4902	 1.4959	72.8459	99.9745	
  1171	 1.1140	 0.5993	 1.7132	 1.0575	 0.6390	 1.6965	 1.1032	 0.5078	 1.6111	73.0198	99.9737	
  1172	 1.2205	 0.6072	 1.8277	 1.1498	 0.6461	 1.7959	 1.1772	 0.5107	 1.6878	73.0235	99.9743	
  1173	 1.2353	 0.6019	 1.8372	 1.1430	 0.6419	 1.7849	 1.1602	 0.5109	 1.6710	72.9016	99.9737	
  1174	 1.2126	 0.6023	 1.8149	 1.1301	 0.6464	 1.7765	 1.1543	 0.5072	 1.6614	72.9644	99.9746	
  1175	 1.2057	 0.6125	 1.8182	 1.1301	 0.6464	 1.7765	 1.1491	 0.5148	 1.6639	72.9644	99.9739	
  1176	 1.2057	 0.6125	 1.8182	 1.1173	 0.6510	 1.7682	 1.1320	 0.5150	 1.6471	72.9052	99.9742	
  1177	 1.1899	 0.6028	 1.7927	 1.0908	 0.6471	 1.7379	 1.0980	 0.5155	 1.6135	72.7794	99.9742	
  1178	 1.1593	 0.5984	 1.7577	 1.0643	 0.6432	 1.7075	 1.0751	 0.5120	 1.5871	72.7794	99.9742	
  1179	 1.1140	 0.5993	 1.7132	 1.0378	 0.6393	 1.6771	 1.0463	 0.5048	 1.5511	72.8459	99.9750	
  1180	 1.1367	 0.5988	 1.7355	 1.0711	 0.6474	 1.7185	 1.1039	 0.5192	 1.6231	72.8908	99.9743	
  1181	 1.2215	 0.6222	 1.8436	 1.1831	 0.6542	 1.8373	 1.2067	 0.5292	 1.7359	73.0751	99.9745	
  1182	 1.2738	 0.6111	 1.8849	 1.1968	 0.6626	 1.8594	 1.2178	 0.5253	 1.7430	72.9535	99.9752	
  1183	 1.2511	 0.6116	 1.8626	 1.1831	 0.6542	 1.8373	 1.1949	 0.5218	 1.7167	72.9572	99.9751	
  1184	 1.2363	 0.6169	 1.8531	 1.1703	 0.6587	 1.8290	 1.1838	 0.5257	 1.7095	72.9572	99.9751	
  1185	 1.2363	 0.6169	 1.8531	 1.1634	 0.6545	 1.8180	 1.1779	 0.5220	 1.6999	72.9608	99.9745	
  1186	 1.2205	 0.6072	 1.8277	 1.1438	 0.6548	 1.7986	 1.1550	 0.5185	 1.6735	72.8980	99.9754	
  1187	 1.1751	 0.6081	 1.7832	 1.1044	 0.6555	 1.7599	 1.1209	 0.5189	 1.6399	72.8980	99.9754	
  1188	 1.1445	 0.6037	 1.7482	 1.0840	 0.6429	 1.7268	 1.0921	 0.5117	 1.6039	72.9016	99.9753	
  1189	 1.1061	 0.5944	 1.7005	 1.0506	 0.6348	 1.6854	 1.0522	 0.5085	 1.5607	72.8387	99.9756	
  1190	 1.0676	 0.5852	 1.6528	 1.0113	 0.6355	 1.6467	 1.0293	 0.5050	 1.5343	72.8352	99.9757	
  1191	 1.1061	 0.5944	 1.7005	 1.0711	 0.6474	 1.7185	 1.1098	 0.5229	 1.6327	72.9427	99.9752	
  1192	 1.1978	 0.6076	 1.8054	 1.1634	 0.6545	 1.8180	 1.1949	 0.5218	 1.7167	73.0714	99.9758	
  1193	 1.2126	 0.6023	 1.8149	 1.1634	 0.6545	 1.8180	 1.1890	 0.5181	 1.7070	73.0125	99.9761	
  1194	 1.1899	 0.6028	 1.7927	 1.1438	 0.6548	 1.7986	 1.1609	 0.5222	 1.6831	72.9499	99.9763	
  1195	 1.1830	 0.6129	 1.7959	 1.1309	 0.6594	 1.7903	 1.1556	 0.5298	 1.6855	72.9499	99.9752	
  1196	 1.1751	 0.6081	 1.7832	 1.1241	 0.6552	 1.7793	 1.1386	 0.5301	 1.6687	72.8872	99.9754	
  1197	 1.1672	 0.6032	 1.7705	 1.0976	 0.6513	 1.7489	 1.1209	 0.5189	 1.6399	72.8944	99.9749	
  1198	 1.1367	 0.5988	 1.7355	 1.0711	 0.6474	 1.7185	 1.0869	 0.5194	 1.6063	72.8316	99.9751	
  1199	 1.1061	 0.5944	 1.7005	 1.0446	 0.6435	 1.6882	 1.0581	 0.5122	 1.5703	72.8352	99.9757	
  1200	 1.0607	 0.5953	 1.6560	 1.0113	 0.6355	 1.6467	 1.0182	 0.5089	 1.5271	72.8387	99.9756	
  1201	 1.0223	 0.5861	 1.6083	 0.9651	 0.6319	 1.5970	 0.9783	 0.5056	 1.4839	72.7758	99.9753	
  1202	 0.9996	 0.5865	 1.5861	 0.9523	 0.6365	 1.5887	 0.9842	 0.5094	 1.4935	72.8316	99.9751	
  1203	 1.0686	 0.6002	 1.6688	 1.0514	 0.6478	 1.6992	 1.0817	 0.5270	 1.6087	72.9427	99.9757	
  1204	 1.1367	 0.5988	 1.7355	 1.0908	 0.6471	 1.7379	 1.1209	 0.5189	 1.6399	72.9499	99.9752	
  1205	 1.1140	 0.5993	 1.7132	 1.0711	 0.6474	 1.7185	 1.0869	 0.5194	 1.6063	72.8908	99.9760	
  1206	 1.0913	 0.5997	 1.6910	 1.0446	 0.6435	 1.6882	 1.0699	 0.5196	 1.5895	72.8908	99.9748	
  1207	 1.0913	 0.5997	 1.6910	 1.0318	 0.6481	 1.6798	 1.0640	 0.5159	 1.5799	72.8944	99.9749	
  1208	 1.0607	 0.5953	 1.6560	 1.0053	 0.6442	 1.6495	 1.0300	 0.5163	 1.5463	72.8316	99.9751	
  1209	 1.0301	 0.5909	 1.6211	 0.9788	 0.6403	 1.6191	 1.0012	 0.5091	 1.5103	72.8352	99.9757	
  1210	 0.9996	 0.5865	 1.5861	 0.9454	 0.6323	 1.5777	 0.9613	 0.5059	 1.4671	72.7758	99.9753	
  1211	 0.9690	 0.5821	 1.5511	 0.9061	 0.6329	 1.5390	 0.9325	 0.4987	 1.4311	72.7794	99.9754	
  1212	 0.9236	 0.5830	 1.5067	 0.8728	 0.6248	 1.4976	 0.8925	 0.4954	 1.3879	72.7829	99.9753	
  1213	 0.8931	 0.5786	 1.4717	 0.8402	 0.6297	 1.4700	 0.8755	 0.4956	 1.3711	72.7794	99.9754	
  1214	 0.9463	 0.5826	 1.5289	 0.9129	 0.6371	 1.5500	 0.9613	 0.5059	 1.4671	72.8908	99.9755	
  1215	 1.0075	 0.5914	 1.5988	 0.9591	 0.6407	 1.5998	 1.0012	 0.5091	 1.5103	72.8944	99.9749	
  1216	 0.9917	 0.5817	 1.5733	 0.9454	 0.6323	 1.5777	 0.9724	 0.5019	 1.4743	72.8352	99.9757	
  1217	 0.9769	 0.5870	 1.5639	 0.9258	 0.6326	 1.5584	 0.9442	 0.5061	 1.4503	72.7758	99.9753	
  1218	 0.9690	 0.5821	 1.5511	 0.9061	 0.6329	 1.5390	 0.9383	 0.5024	 1.4407	72.7758	99.9748	
  1219	 0.9463	 0.5826	 1.5289	 0.8864	 0.6333	 1.5197	 0.9102	 0.5065	 1.4168	72.7128	99.9751	
  1220	 0.9157	 0.5782	 1.4939	 0.8531	 0.6252	 1.4783	 0.8866	 0.4917	 1.3783	72.7829	99.9748	
  1221	 0.8704	 0.5791	 1.4494	 0.8137	 0.6258	 1.4396	 0.8467	 0.4884	 1.3351	72.7865	99.9753	
  1222	 0.8398	 0.5747	 1.4145	 0.7933	 0.6132	 1.4065	 0.8179	 0.4812	 1.2991	72.7900	99.9752	
  1223	 0.8013	 0.5654	 1.3668	 0.7411	 0.6184	 1.3595	 0.7839	 0.4817	 1.2656	72.7234	99.9751	
  1224	 0.8250	 0.5800	 1.4050	 0.8069	 0.6216	 1.4286	 0.8474	 0.4998	 1.3472	72.8352	99.9750	
