OxySoft export of:	C:\Users\TO3 TechSupport\Documents\Train2Adapt\T2A_33
Export date:	2022/09/10 13:24:34
Start of measurement:	2022-09-10 12:24:24.173

Datafile sample rate:	10.00	Hz
Datafile duration:	3573.400	s
Datafile total number of samples:	35734

Description:	

Optode-template:	PortaMon TSI Fit Factor
Optode distance (mm):	 35.00
Optode gradients (mm):	 5.00
DPF:	6.56

Device id:	291
# Receivers:	1
# Light sources:	6
# ADC:	2

Light source wavelengths:
device	index	wavelength
1	1	847	nm
1	2	761	nm
1	3	848	nm
1	4	761	nm
1	5	848	nm
1	6	762	nm

Export sample rate:	10.00	Hz
Selected time span:	0	3573.400
Selected time span (sample numbers):	0	35734


Legend:
Column	Trace (Measurement)
1	(Sample number)
2	Rx1-Tx1 O2Hb (T2A_33)
3	Rx1-Tx1 HHb (T2A_33)
4	Rx1-Tx1 tHb (T2A_33)
5	Rx1-Tx2 O2Hb (T2A_33)
6	Rx1-Tx2 HHb (T2A_33)
7	Rx1-Tx2 tHb (T2A_33)
8	Rx1-Tx3 O2Hb (T2A_33)
9	Rx1-Tx3 HHb (T2A_33)
10	Rx1-Tx3 tHb (T2A_33)
11	Rx1-Tx1,Tx2,Tx3 TSI% (T2A_33)
12	Rx1-Tx1,Tx2,Tx3 TSI Fit Factor (T2A_33)
13	(Event)


1	2	3	4	5	6	7	8	9	10	11	12	13
     0	125.9220	66.5852	192.5072	101.1992	53.9894	155.1884	84.5538	48.4181	132.9720	43.7250	98.5201	
     1	 0.0997	 0.0165	 0.1162	 0.0924	 0.0312	 0.1235	 0.0411	 0.0249	 0.0659	68.8587	99.9999	
     2	 0.0918	 0.0118	 0.1036	 0.0797	 0.0359	 0.1156	 0.0470	 0.0284	 0.0754	68.8569	99.9998	
     3	 0.1452	 0.0149	 0.1601	 0.1379	 0.0340	 0.1718	 0.0816	 0.0384	 0.1200	68.8133	99.9999	
     4	 0.1600	 0.0095	 0.1695	 0.1446	 0.0381	 0.1826	 0.0874	 0.0420	 0.1294	68.7697	99.9999	
     5	 0.1452	 0.0149	 0.1601	 0.1438	 0.0253	 0.1690	 0.0868	 0.0307	 0.1175	68.8569	99.9999	
     6	 0.1373	 0.0102	 0.1475	 0.1185	 0.0347	 0.1531	 0.0698	 0.0313	 0.1011	68.8142	99.9999	
     7	 0.1146	 0.0110	 0.1256	 0.1051	 0.0266	 0.1315	 0.0692	 0.0200	 0.0893	68.9005	99.9999	
     8	 0.1067	 0.0063	 0.1130	 0.0857	 0.0272	 0.1128	 0.0464	 0.0171	 0.0635	68.8587	99.9998	
     9	 0.0988	 0.0016	 0.1004	 0.0596	 0.0237	 0.0833	 0.0294	 0.0178	 0.0471	68.8159	99.9998	
    10	 0.0682	-0.0024	 0.0659	 0.0462	 0.0156	 0.0618	 0.0341	-0.0013	 0.0328	68.9450	99.9998	
    11	 0.0603	-0.0071	 0.0533	 0.0269	 0.0163	 0.0430	 0.0229	 0.0029	 0.0258	68.9014	99.9997	
    12	 0.0910	-0.0031	 0.0878	 0.0656	 0.0150	 0.0805	 0.0628	 0.0052	 0.0680	68.9431	99.9998	
    13	 0.0840	 0.0071	 0.0910	 0.0850	 0.0144	 0.0993	 0.0575	 0.0129	 0.0704	68.9431	99.9999	
    14	 0.0910	-0.0031	 0.0878	 0.0529	 0.0197	 0.0725	 0.0569	 0.0016	 0.0586	68.9440	99.9997	
    15	 0.0682	-0.0024	 0.0659	 0.0462	 0.0156	 0.0618	 0.0458	 0.0058	 0.0516	68.9431	99.9998	
    16	 0.0752	-0.0126	 0.0627	 0.0522	 0.0069	 0.0590	 0.0452	-0.0055	 0.0398	68.9440	99.9998	
    17	 0.0455	-0.0016	 0.0439	 0.0269	 0.0163	 0.0430	 0.0393	-0.0090	 0.0303	69.0303	99.9997	
    18	 0.0376	-0.0063	 0.0313	 0.0261	 0.0035	 0.0295	 0.0282	-0.0048	 0.0234	68.9867	99.9998	
    19	 0.0149	-0.0055	 0.0094	 0.0008	 0.0128	 0.0135	 0.0000	 0.0000	 0.0000	68.9440	99.9998	
    20	 0.0000	-0.0000	-0.0000	 0.0000	 0.0000	-0.0000	 0.0000	 0.0000	 0.0000	68.9867	99.9998	
    21	 0.0455	-0.0016	 0.0439	 0.0395	 0.0116	 0.0510	 0.0458	 0.0058	 0.0516	68.9848	99.9998	
    22	 0.0831	-0.0078	 0.0752	 0.0656	 0.0150	 0.0805	 0.0575	 0.0129	 0.0704	68.8987	99.9998	
    23	 0.0761	 0.0024	 0.0785	 0.0529	 0.0197	 0.0725	 0.0628	 0.0052	 0.0680	68.9858	99.9997	
    24	 0.0612	 0.0079	 0.0691	 0.0403	 0.0244	 0.0645	 0.0405	 0.0136	 0.0541	68.9431	99.9998	
    25	 0.0464	 0.0133	 0.0597	 0.0462	 0.0156	 0.0618	 0.0405	 0.0136	 0.0541	68.9858	99.9998	
    26	 0.0455	-0.0016	 0.0439	 0.0336	 0.0203	 0.0538	 0.0235	 0.0142	 0.0377	68.8996	99.9998	
    27	 0.0306	 0.0039	 0.0345	 0.0201	 0.0122	 0.0323	 0.0229	 0.0029	 0.0258	68.9867	99.9998	
    28	 0.0227	-0.0008	 0.0219	-0.0052	 0.0216	 0.0163	 0.0059	 0.0036	 0.0095	68.9440	99.9997	
    29	 0.0000	-0.0000	-0.0000	-0.0059	 0.0088	 0.0027	 0.0112	-0.0042	 0.0070	69.0293	99.9997	
    30	 0.0227	-0.0008	 0.0219	 0.0269	 0.0163	 0.0430	 0.0294	 0.0178	 0.0471	68.9404	99.9998	
    31	 0.0612	 0.0079	 0.0691	 0.0596	 0.0237	 0.0833	 0.0634	 0.0165	 0.0799	68.9839	99.9998	
    32	 0.0761	 0.0024	 0.0785	 0.0596	 0.0237	 0.0833	 0.0634	 0.0165	 0.0799	68.9413	99.9998	
    33	 0.0761	 0.0024	 0.0785	 0.0343	 0.0331	 0.0673	 0.0522	 0.0207	 0.0729	68.8987	99.9997	
    34	 0.0534	 0.0031	 0.0565	 0.0403	 0.0244	 0.0645	 0.0575	 0.0129	 0.0704	68.9839	99.9997	
    35	 0.0534	 0.0031	 0.0565	 0.0403	 0.0244	 0.0645	 0.0464	 0.0171	 0.0635	68.9413	99.9998	
    36	 0.0385	 0.0086	 0.0471	 0.0209	 0.0250	 0.0458	 0.0405	 0.0136	 0.0541	68.9848	99.9997	
    37	 0.0306	 0.0039	 0.0345	 0.0015	 0.0256	 0.0270	 0.0176	 0.0107	 0.0283	68.9431	99.9997	
    38	 0.0227	-0.0008	 0.0219	-0.0112	 0.0303	 0.0190	 0.0170	-0.0006	 0.0164	68.9867	99.9997	
    39	 0.0227	-0.0008	 0.0219	 0.0015	 0.0256	 0.0270	 0.0346	 0.0100	 0.0447	68.9839	99.9997	
    40	 0.0542	 0.0181	 0.0723	 0.0410	 0.0372	 0.0781	 0.0528	 0.0320	 0.0848	68.9404	99.9997	
    41	 0.0840	 0.0071	 0.0910	 0.0604	 0.0365	 0.0968	 0.0640	 0.0278	 0.0917	68.8978	99.9997	
    42	 0.0691	 0.0126	 0.0817	 0.0537	 0.0325	 0.0860	 0.0528	 0.0320	 0.0848	68.8978	99.9998	
    43	 0.0542	 0.0181	 0.0723	 0.0537	 0.0325	 0.0860	 0.0581	 0.0242	 0.0823	68.9839	99.9998	
    44	 0.0612	 0.0079	 0.0691	 0.0470	 0.0284	 0.0753	 0.0522	 0.0207	 0.0729	68.9413	99.9998	
    45	 0.0385	 0.0086	 0.0471	 0.0209	 0.0250	 0.0458	 0.0294	 0.0178	 0.0471	68.9422	99.9997	
    46	 0.0306	 0.0039	 0.0345	 0.0075	 0.0169	 0.0243	 0.0235	 0.0142	 0.0377	68.9422	99.9997	
    47	-0.0070	 0.0102	 0.0032	-0.0119	 0.0175	 0.0055	 0.0170	-0.0006	 0.0164	69.0719	99.9997	
    48	-0.0149	 0.0055	-0.0094	-0.0380	 0.0141	-0.0240	 0.0000	 0.0000	 0.0000	69.0293	99.9996	
    49	 0.0079	 0.0047	 0.0126	-0.0052	 0.0216	 0.0163	 0.0235	 0.0142	 0.0377	68.9839	99.9997	
    50	 0.0385	 0.0086	 0.0471	 0.0082	 0.0297	 0.0378	 0.0405	 0.0136	 0.0541	68.9848	99.9996	
    51	 0.0157	 0.0094	 0.0252	 0.0015	 0.0256	 0.0270	 0.0346	 0.0100	 0.0447	69.0274	99.9997	
    52	 0.0227	-0.0008	 0.0219	-0.0059	 0.0088	 0.0027	 0.0118	 0.0071	 0.0189	68.9431	99.9996	
    53	 0.0149	-0.0055	 0.0094	-0.0059	 0.0088	 0.0027	 0.0059	 0.0036	 0.0095	68.9431	99.9997	
    54	 0.0000	-0.0000	-0.0000	-0.0253	 0.0094	-0.0160	 0.0000	 0.0000	 0.0000	68.9867	99.9996	
    55	-0.0297	 0.0110	-0.0188	-0.0447	 0.0100	-0.0348	-0.0005	-0.0113	-0.0118	69.1164	99.9996	
    56	-0.0306	-0.0040	-0.0346	-0.0514	 0.0060	-0.0455	-0.0228	-0.0029	-0.0258	68.9867	99.9996	
    57	-0.0455	 0.0015	-0.0439	-0.0707	 0.0066	-0.0643	-0.0287	-0.0065	-0.0352	69.0303	99.9996	
    58	-0.0376	 0.0062	-0.0313	-0.0506	 0.0187	-0.0320	-0.0164	 0.0119	-0.0045	68.9848	99.9996	
    59	-0.0070	 0.0102	 0.0032	-0.0179	 0.0262	 0.0083	 0.0176	 0.0107	 0.0283	69.0274	99.9997	
    60	 0.0079	 0.0047	 0.0126	-0.0305	 0.0309	 0.0003	 0.0229	 0.0029	 0.0258	69.0284	99.9995	
    61	-0.0149	 0.0055	-0.0094	-0.0313	 0.0181	-0.0132	 0.0059	 0.0036	 0.0095	69.0284	99.9996	
    62	-0.0472	-0.0283	-0.0755	-0.1132	-0.0561	-0.1694	-0.0733	-0.0990	-0.1723	69.2157	99.9994	
    63	-0.2327	-0.2112	-0.4439	-0.4692	-0.2838	-0.7531	-0.4116	-0.3803	-0.7919	69.3412	99.9984	
    64	-0.8606	-0.5584	-1.4190	-1.0853	-0.6440	-1.7294	-0.8855	-0.7545	-1.6400	69.7964	99.9967	
    65	-1.2026	-0.8206	-2.0232	-1.3847	-0.7881	-2.1730	-1.2040	-0.8708	-2.0748	69.3086	99.9980	
    66	-1.0093	-0.7625	-1.7718	-1.1426	-0.7404	-1.8831	-0.9471	-0.8465	-1.7935	69.6501	99.9983	
    67	-0.7688	-0.5466	-1.3154	-0.8193	-0.5202	-1.3396	-0.6133	-0.6554	-1.2688	69.8893	99.9988	
    68	-0.4321	-0.3738	-0.8058	-0.4052	-0.2944	-0.6997	-0.2914	-0.3622	-0.6536	69.3820	99.9995	
    69	-0.3814	-0.5449	-0.9262	-0.3582	-0.3770	-0.7353	-0.4350	-0.7224	-1.1574	69.9132	99.9911	
    70	-2.0589	-1.3044	-3.3633	-1.8503	-0.8970	-2.7475	-2.0762	-1.0379	-3.1141	67.9378	99.9852	
    71	-2.1726	-1.3005	-3.4731	-1.8422	-0.8674	-2.7096	-2.0451	-1.0956	-3.1407	68.4663	99.9776	
    72	-2.3650	-1.3437	-3.7087	-2.1372	-0.9348	-3.0720	-2.4006	-1.1577	-3.5583	68.0836	99.9792	
    73	-2.0641	-1.1349	-3.1990	-2.1446	-0.9516	-3.0963	-2.4909	-1.1468	-3.6377	67.9329	99.9919	
    74	-2.0195	-1.0218	-3.0413	-2.2765	-0.8833	-3.1599	-2.3965	-0.9694	-3.3660	67.6968	99.9990	
    75	-2.1550	-1.0022	-3.1573	-2.5045	-0.9101	-3.4147	-2.5068	-0.9050	-3.4119	67.4682	99.9982	
    76	-2.9885	-1.2278	-4.2163	-3.4067	-1.0733	-4.4801	-3.3574	-0.9826	-4.3400	66.5162	99.9962	
    77	-3.7581	-1.4007	-5.1588	-4.0831	-1.3590	-5.4422	-3.9275	-1.2401	-5.1676	67.0677	99.9931	
    78	-4.3266	-1.6403	-5.9669	-4.6671	-1.7245	-6.3917	-4.5263	-1.6135	-6.1398	67.4502	99.9904	
    79	-4.8846	-1.9599	-6.8445	-5.1602	-2.0845	-7.2448	-4.9209	-1.9944	-6.9154	68.1076	99.9885	
    80	-5.1916	-2.1437	-7.3353	-5.2957	-2.3022	-7.5980	-4.9309	-2.1862	-7.1171	68.8809	99.9867	
    81	-5.2109	-2.2128	-7.4236	-5.2033	-2.3820	-7.5854	-4.8147	-2.2471	-7.0618	69.2356	99.9876	
    82	-5.2152	-2.2873	-7.5026	-5.1601	-2.4176	-7.5777	-4.7419	-2.2687	-7.0106	69.2688	99.9884	
    83	-5.1995	-2.2779	-7.4774	-5.1079	-2.4107	-7.5187	-4.6610	-2.2415	-6.9025	69.3496	99.9876	
    84	-5.1628	-2.2991	-7.4619	-5.0565	-2.4166	-7.4732	-4.6035	-2.2286	-6.8321	69.2974	99.9875	
    85	-4.8707	-2.2393	-7.1100	-4.6855	-2.2663	-6.9519	-4.2363	-2.0501	-6.2865	69.0859	99.9909	
    86	-4.5995	-2.0195	-6.6190	-4.3928	-1.9042	-6.2971	-3.6939	-1.4486	-5.1425	68.0882	99.9786	
    87	-4.3196	-1.7800	-6.0996	-4.1910	-1.7698	-5.9608	-3.6259	-1.5604	-5.1863	68.9614	99.9880	
    88	-4.7657	-2.0038	-6.7695	-4.5366	-1.9294	-6.4662	-3.8059	-1.6366	-5.4425	68.9371	99.9840	
    89	-4.6756	-2.0219	-6.6975	-4.5917	-1.9875	-6.5793	-3.9766	-1.7508	-5.7274	68.7927	99.9850	
    90	-5.0840	-2.1225	-7.2065	-4.8100	-2.0701	-6.8802	-4.2282	-1.7829	-6.0111	68.7393	99.9889	
    91	-5.2012	-2.1782	-7.3795	-4.8949	-2.0845	-6.9795	-4.3168	-1.7381	-6.0549	68.3774	99.9888	
    92	-4.6336	-1.9536	-6.5872	-4.4234	-1.8733	-6.2968	-3.9056	-1.8062	-5.7118	69.3342	99.9958	
    93	-4.3870	-1.7628	-6.1497	-4.0421	-1.5439	-5.5861	-3.5285	-1.4359	-4.9644	68.8478	99.9982	
    94	-3.3366	-1.4649	-4.8015	-3.3157	-1.2897	-4.6056	-3.2153	-1.3120	-4.5273	68.1390	99.9993	
    95	-2.8529	-1.1179	-3.9708	-2.6267	-0.8977	-3.5245	-2.3942	-0.9243	-3.3185	68.7145	99.9990	
    96	-1.9407	-0.7157	-2.6564	-1.6538	-0.5190	-2.1729	-1.4557	-0.5750	-2.0307	69.1213	99.9986	
    97	-1.0206	-0.3088	-1.3294	-0.4686	-0.0489	-0.5176	-0.3108	-0.1881	-0.4989	69.8306	99.9929	
    98	-0.8781	-0.5976	-1.4757	-0.2495	-0.1756	-0.4252	-0.2327	-0.3267	-0.5594	69.4428	99.9828	
    99	-1.3137	-1.0310	-2.3447	-0.6427	-0.5985	-1.2413	-0.5810	-0.7998	-1.3808	69.9738	99.9802	
   100	-2.0388	-1.6089	-3.6478	-1.5440	-1.0819	-2.6261	-1.6362	-1.2089	-2.8451	68.6934	99.9794	
   101	-2.5190	-1.7669	-4.2858	-2.0559	-1.2064	-3.2624	-2.0744	-1.3319	-3.4063	68.5261	99.9812	
   102	-2.7315	-1.7646	-4.4960	-2.2816	-1.1949	-3.4766	-2.4205	-1.3228	-3.7432	68.0566	99.9768	
   103	-2.7419	-1.5550	-4.2969	-2.6065	-1.2186	-3.8251	-2.9759	-1.4076	-4.3835	67.7464	99.9824	
   104	-2.9221	-1.5190	-4.4410	-3.1585	-1.3674	-4.5260	-3.2563	-1.5554	-4.8117	68.1323	99.9976	
   105	-3.6856	-1.8465	-5.5321	-3.9719	-1.8964	-5.8684	-3.9724	-1.8904	-5.8628	68.1489	99.9973	
   106	-4.7474	-2.2087	-6.9560	-4.9574	-2.3814	-7.3389	-4.8099	-2.3754	-7.1854	68.9628	99.9936	
   107	-5.2827	-2.6586	-7.9413	-5.4222	-2.8106	-8.2328	-5.1395	-2.7060	-7.8455	69.0945	99.9888	
   108	-5.3378	-2.6916	-8.0293	-5.3305	-2.7921	-8.1228	-4.8644	-2.6598	-7.5242	69.5571	99.9872	
   109	-5.2503	-2.6248	-7.8751	-5.1242	-2.6920	-7.8163	-4.5219	-2.5181	-7.0399	69.8274	99.9854	
   110	-5.1829	-2.5126	-7.6955	-5.1079	-2.4107	-7.5187	-4.5426	-2.0387	-6.5813	67.9968	99.9827	
   111	-4.8558	-1.9858	-6.8416	-4.4309	-1.7791	-6.2101	-3.7274	-1.4360	-5.1634	68.5137	99.9911	
   112	-3.1083	-1.1988	-4.3071	-2.7169	-0.8905	-3.6074	-2.1490	-0.9071	-3.0561	69.4009	99.9985	
   113	-2.4078	-1.0384	-3.4462	-2.2438	-0.7648	-3.0087	-2.0042	-0.7429	-2.7471	68.3490	99.9991	
   114	-1.5446	-0.8239	-2.3684	-1.0965	-0.5028	-1.5994	-0.9219	-0.6891	-1.6110	69.7880	99.9916	
   115	-1.9102	-1.2298	-3.1400	-1.3147	-0.8075	-2.1223	-1.3852	-0.9695	-2.3547	69.2471	99.9799	
   116	-2.5609	-1.7056	-4.2666	-2.0156	-1.1821	-3.1978	-2.0292	-1.3374	-3.3666	68.9169	99.9793	
   117	-3.0026	-1.8549	-4.8575	-2.3784	-1.3028	-3.6813	-2.3541	-1.4685	-3.8226	69.0055	99.9768	
   118	-3.1898	-1.9382	-5.1279	-2.5587	-1.3995	-3.9583	-2.6321	-1.5711	-4.2033	68.8478	99.9730	
   119	-3.2449	-1.9712	-5.2160	-2.7435	-1.4619	-4.2054	-2.9037	-1.7683	-4.6719	69.0204	99.9654	
   120	-3.3795	-1.9367	-5.3162	-3.1680	-1.8667	-5.0348	-3.5447	-2.0797	-5.6245	69.1589	99.9883	
   121	-3.7058	-2.0600	-5.7658	-3.9286	-2.0429	-5.9717	-4.0827	-2.0446	-6.1272	67.8758	99.9996	
   122	-4.3835	-2.0916	-6.4752	-4.6267	-2.1443	-6.7711	-4.5778	-2.0600	-6.6378	67.8747	99.9955	
   123	-5.3045	-2.3839	-7.6884	-5.5161	-2.5342	-8.0505	-5.2599	-2.3963	-7.6562	68.3954	99.9868	
   124	-5.5275	-2.6901	-8.2176	-5.5436	-2.7853	-8.3290	-5.0210	-2.6125	-7.6335	69.3245	99.9833	
   125	-5.3395	-2.5919	-7.9314	-5.2077	-2.5698	-7.7775	-4.4868	-2.2782	-6.7650	69.1609	99.9794	
   126	-5.2669	-2.3902	-7.6570	-4.8494	-2.3037	-7.1532	-4.0469	-2.0120	-6.0589	69.5896	99.9865	
   127	-5.1261	-2.4498	-7.5758	-4.7540	-2.4434	-7.1975	-4.0451	-2.1967	-6.2418	69.9284	99.9876	
   128	-5.1112	-2.5848	-7.6960	-4.8612	-2.6193	-7.4807	-4.2398	-2.3364	-6.5762	69.6055	99.9845	
   129	-4.8540	-2.2150	-7.0691	-4.7363	-2.0255	-6.7619	-4.0171	-1.5458	-5.5629	67.5663	99.9768	
   130	-3.6488	-1.3497	-4.9984	-3.3277	-1.0502	-4.3780	-2.7221	-0.8932	-3.6153	68.4998	99.9970	
   131	-2.2529	-0.8594	-3.1124	-1.9212	-0.6684	-2.5897	-1.7525	-0.7109	-2.4634	69.0874	99.9985	
   132	-1.9941	-0.8484	-2.8424	-1.5443	-0.5268	-2.0712	-1.4809	-0.6230	-2.1040	68.9413	99.9923	
   133	-2.1489	-1.0274	-3.1763	-1.4936	-0.6565	-2.1502	-1.6193	-0.7724	-2.3917	68.9450	99.9808	
   134	-2.7760	-1.4891	-4.2651	-2.1670	-1.0021	-3.1692	-2.2117	-1.1309	-3.3425	68.6968	99.9795	
   135	-3.3340	-1.6792	-5.0132	-2.6735	-1.1481	-3.8217	-2.6850	-1.2752	-3.9603	68.5708	99.9775	
   136	-3.5527	-1.7813	-5.3340	-2.9119	-1.2429	-4.1550	-2.9906	-1.3618	-4.3524	68.2758	99.9756	
   137	-3.5378	-1.7868	-5.3246	-2.9842	-1.2620	-4.2462	-3.1584	-1.4196	-4.5780	68.0710	99.9725	
   138	-3.4171	-1.6714	-5.0885	-3.1912	-1.4859	-4.6772	-3.4340	-1.8050	-5.2389	69.1812	99.9831	
   139	-3.7538	-1.8442	-5.5980	-3.8542	-1.8745	-5.7288	-4.0845	-1.8598	-5.9443	67.8724	100.0000	
   140	-4.4430	-1.9402	-6.3831	-4.6618	-1.9681	-6.6300	-4.6030	-1.8895	-6.4925	67.6844	99.9962	
   141	-5.3490	-2.2379	-7.5870	-5.4894	-2.4070	-7.8965	-5.2147	-2.2925	-7.5072	68.6222	99.9883	
   142	-5.5555	-2.5198	-8.0753	-5.4900	-2.6418	-8.1320	-4.9513	-2.4719	-7.4232	69.4949	99.9842	
   143	-5.4934	-2.3675	-7.8608	-5.2733	-2.3627	-7.6361	-4.5678	-2.0868	-6.6545	69.1548	99.9826	
   144	-5.4732	-2.1540	-7.6272	-5.1021	-2.0863	-7.1885	-4.3373	-1.8052	-6.1425	69.1631	99.9865	
   145	-5.4076	-2.2011	-7.6087	-4.9851	-2.1883	-7.1735	-4.2651	-1.9473	-6.2124	69.6571	99.9888	
   146	-5.3980	-2.4255	-7.8236	-5.0900	-2.4369	-7.5270	-4.4405	-2.1518	-6.5923	69.3736	99.9857	
   147	-5.2519	-2.1366	-7.3886	-5.0604	-1.9254	-6.9859	-4.2577	-1.4728	-5.7304	67.6507	99.9779	
   148	-4.1901	-1.2564	-5.4465	-3.7249	-0.9819	-4.7069	-2.8852	-0.7515	-3.6367	68.7735	99.9933	
   149	-2.9832	-0.8793	-3.8625	-2.6476	-0.7006	-3.3483	-2.3122	-0.6560	-2.9682	68.7775	99.9995	
   150	-2.5293	-0.6507	-3.1800	-2.2037	-0.4074	-2.6112	-2.0788	-0.4273	-2.5061	68.3023	99.9979	
   151	-2.3666	-0.5965	-2.9631	-1.9236	-0.2626	-2.1864	-2.0442	-0.3080	-2.3522	67.7785	99.9898	
   152	-2.8686	-0.7388	-3.6073	-2.1911	-0.3010	-2.4922	-2.2190	-0.3920	-2.6109	68.1564	99.9822	
   153	-3.4091	-1.0191	-4.4282	-2.7543	-0.5306	-3.2849	-2.8008	-0.6566	-3.4575	67.9540	99.9782	
   154	-3.8490	-1.1386	-4.9876	-3.1089	-0.6217	-3.7306	-3.1510	-0.7265	-3.8775	67.8229	99.9761	
   155	-4.0047	-1.2030	-5.2077	-3.2809	-0.6887	-3.9698	-3.4097	-0.7846	-4.1943	67.5235	99.9737	
   156	-3.9697	-1.2540	-5.2237	-3.4925	-0.7673	-4.2599	-3.6959	-0.9360	-4.6319	67.2300	99.9744	
   157	-3.9566	-1.2893	-5.2459	-3.8195	-1.0515	-4.8711	-4.0741	-1.3289	-5.4030	67.8099	99.9848	
   158	-4.3764	-1.4543	-5.8307	-4.4973	-1.4738	-5.9712	-4.6724	-1.4724	-6.1448	67.1751	99.9999	
   159	-5.1093	-1.5189	-6.6282	-5.2200	-1.5530	-6.7731	-5.1593	-1.4391	-6.5984	66.9847	99.9967	
   160	-5.8807	-1.7216	-7.6023	-6.0417	-1.7786	-7.8204	-5.7840	-1.5439	-7.3279	66.6595	99.9872	
   161	-6.1527	-1.9564	-8.1091	-5.9991	-2.0490	-8.0482	-5.5164	-1.7536	-7.2701	67.9762	99.9841	
   162	-5.8580	-1.9814	-7.8394	-5.6572	-1.9532	-7.6105	-4.9263	-1.6588	-6.5852	68.3921	99.9813	
   163	-5.6927	-1.8825	-7.5751	-5.2974	-1.7726	-7.0701	-4.4953	-1.4526	-5.9478	68.5772	99.9858	
   164	-5.5921	-1.8511	-7.4431	-5.1186	-1.7015	-6.8202	-4.2812	-1.3777	-5.6588	68.6917	99.9876	
   165	-5.5545	-1.8573	-7.4118	-5.0694	-1.7458	-6.8153	-4.3287	-1.4174	-5.7460	68.6579	99.9893	
   166	-5.5772	-1.9861	-7.5633	-5.2445	-1.8640	-7.1085	-4.5451	-1.5374	-6.0825	68.2807	99.9875	
   167	-5.8125	-1.9830	-7.7955	-5.5828	-1.7848	-7.3676	-4.9018	-1.4035	-6.3053	67.3099	99.9858	
   168	-5.7730	-1.4414	-7.2144	-5.4236	-1.1579	-6.5815	-4.6463	-0.6367	-5.2830	66.4178	99.9830	
   169	-4.5346	-0.6569	-5.1914	-4.0463	-0.2755	-4.3219	-3.1559	-0.0517	-3.2077	67.7770	99.9945	
   170	-3.1780	-0.0607	-3.2388	-2.7426	 0.2292	-2.5136	-2.4187	 0.3616	-2.0570	67.2783	99.9996	
   171	-2.6314	 0.4536	-2.1778	-2.1200	 0.8155	-1.3046	-1.8598	 0.8420	-1.0178	67.2692	99.9970	
   172	-2.8623	 0.4017	-2.4606	-2.2236	 0.8146	-1.4091	-2.3244	 0.7576	-1.5668	66.7631	99.9833	
   173	-3.6336	 0.1989	-3.4347	-2.8740	 0.7544	-2.1197	-2.9004	 0.7150	-2.1854	66.3299	99.9784	
   174	-4.0280	 0.2074	-3.8206	-3.2689	 0.7500	-2.5190	-3.2453	 0.6375	-2.6079	66.5471	99.9766	
   175	-4.4059	 0.1108	-4.2951	-3.6652	 0.6090	-3.0563	-3.7386	 0.5466	-3.1920	66.1122	99.9780	
   176	-4.5677	 0.0715	-4.4962	-3.8112	 0.5454	-3.2659	-3.9650	 0.4533	-3.5117	66.1113	99.9736	
   177	-4.4811	-0.0062	-4.4873	-3.9482	 0.3021	-3.6462	-4.2418	 0.1546	-4.0872	66.2427	99.9780	
   178	-4.5642	-0.2574	-4.8216	-4.6461	-0.1324	-4.7786	-4.9814	-0.1946	-5.1760	65.1708	99.9968	
   179	-5.2446	-0.4633	-5.7079	-5.5066	-0.2456	-5.7524	-5.4571	-0.1655	-5.6227	64.4860	99.9983	
   180	-6.2006	-0.8340	-7.0346	-6.4377	-0.9075	-7.3453	-6.2366	-0.7356	-6.9722	65.5392	99.9892	
   181	-6.5172	-1.1818	-7.6991	-6.4182	-1.1302	-7.5485	-5.8840	-0.8392	-6.7232	66.3784	99.9863	
   182	-6.3091	-1.1292	-7.4383	-6.1061	-0.9907	-7.0970	-5.5450	-0.5466	-6.0917	65.7962	99.9847	
   183	-6.2644	-1.0162	-7.2806	-5.9020	-0.8180	-6.7201	-5.2805	-0.2663	-5.5469	65.5836	99.9843	
   184	-6.1472	-0.8309	-6.9781	-5.6905	-0.5173	-6.2079	-4.8066	-0.1107	-4.9173	66.4600	99.9878	
   185	-6.0606	-0.7790	-6.8397	-5.6057	-0.3919	-5.9977	-4.6266	-0.0345	-4.6611	66.5879	99.9885	
   186	-5.9469	-0.7829	-6.7299	-5.4835	-0.4044	-5.8879	-4.5597	-0.0596	-4.6193	66.6314	99.9904	
   187	-5.9557	-0.8026	-6.7583	-5.6116	-0.4942	-6.1059	-4.8318	-0.1587	-4.9906	66.3308	99.9903	
   188	-6.1586	-0.8952	-7.0538	-5.8797	-0.6564	-6.5362	-5.3586	-0.1278	-5.4864	65.0055	99.9876	
   189	-6.3807	-0.5390	-6.9196	-6.2093	-0.0907	-6.3000	-5.4978	 0.3673	-5.1305	64.1821	99.9882	
   190	-5.6721	 0.2736	-5.3985	-5.2567	 0.7200	-4.5368	-4.3272	 1.0321	-3.2951	65.5609	99.9917	
   191	-4.3506	 0.9208	-3.4298	-3.8554	 1.2343	-2.6212	-3.4216	 1.4053	-2.0163	65.8142	99.9995	
   192	-3.6964	 1.3268	-2.3696	-3.3512	 1.6750	-1.6763	-3.1823	 1.7468	-1.4355	65.0736	99.9981	
   193	-3.7401	 1.6172	-2.1229	-3.3372	 2.0290	-1.3082	-3.5374	 2.1331	-1.4042	63.6225	99.9916	
   194	-4.2866	 1.7505	-2.5362	-3.6733	 2.3686	-1.3048	-3.8408	 2.4196	-1.4212	63.1722	99.9794	
   195	-5.0859	 1.7180	-3.3679	-4.4385	 2.3377	-2.1009	-4.5605	 2.3447	-2.2158	63.0651	99.9775	
   196	-5.7086	 1.8489	-3.8597	-4.9057	 2.4254	-2.4804	-4.9882	 2.4247	-2.5634	63.2422	99.9760	
   197	-5.9823	 1.8433	-4.1390	-5.2111	 2.4010	-2.8102	-5.3495	 2.3591	-2.9904	63.0857	99.9730	
   198	-5.8896	 1.7405	-4.1491	-5.1574	 2.2114	-2.9461	-5.3764	 2.1679	-3.2085	63.2832	99.9744	
   199	-5.5276	 1.5687	-3.9589	-5.1595	 1.8399	-3.3197	-5.4613	 1.7339	-3.7274	63.5723	99.9850	
   200	-5.5994	 1.3819	-4.2174	-5.6057	 1.5084	-4.0974	-5.8074	 1.5245	-4.2828	63.0733	99.9988	
   201	-6.0454	 1.1581	-4.8873	-6.3067	 1.2448	-5.0620	-6.3933	 1.3994	-4.9939	62.2081	99.9982	
   202	-7.1509	 0.8273	-6.3236	-7.4487	 0.9613	-6.4876	-7.3242	 1.1968	-6.1275	61.7304	99.9932	
   203	-7.7640	 0.4747	-7.2893	-7.9814	 0.7008	-7.2806	-7.6890	 0.9541	-6.7349	61.8906	99.9920	
   204	-7.7527	 0.2800	-7.4726	-7.7816	 0.5748	-7.2069	-7.2989	 0.9169	-6.3819	62.4755	99.9899	
   205	-7.5760	 0.3138	-7.2622	-7.4896	 0.7021	-6.7876	-6.8420	 1.0732	-5.7687	62.8094	99.9893	
   206	-7.4614	 0.4543	-7.0071	-7.2073	 0.8852	-6.3222	-6.5417	 1.3861	-5.1556	62.5538	99.9895	
   207	-7.4972	 0.6199	-6.8773	-7.0748	 1.0517	-6.0231	-6.2919	 1.6029	-4.6890	62.9084	99.9884	
   208	-7.4824	 0.6145	-6.8679	-6.9764	 1.0742	-5.9023	-6.0813	 1.6101	-4.4712	63.3656	99.9883	
   209	-7.4728	 0.5195	-6.9533	-6.9526	 1.0393	-5.9134	-6.0420	 1.6011	-4.4409	63.2033	99.9889	
   210	-7.5261	 0.5163	-7.0098	-6.9846	 1.0446	-5.9401	-6.0749	 1.6249	-4.4499	63.1209	99.9890	
   211	-7.5209	 0.4763	-7.0446	-6.9347	 1.0131	-5.9217	-6.0080	 1.5998	-4.4082	63.2571	99.9894	
   212	-7.4483	 0.4190	-7.0293	-6.8467	 0.9675	-5.8793	-5.9194	 1.5551	-4.3643	63.3463	99.9900	
   213	-7.4203	 0.3782	-7.0421	-6.8035	 0.9320	-5.8716	-5.8983	 1.5241	-4.3741	63.3463	99.9908	
   214	-7.4361	 0.3688	-7.0673	-6.8177	 0.9111	-5.9067	-5.9387	 1.5106	-4.4282	63.2997	99.9910	
   215	-7.4448	 0.3492	-7.0956	-6.8564	 0.9123	-5.9442	-5.9734	 1.5006	-4.4728	63.2115	99.9911	
   216	-7.5209	 0.3468	-7.1741	-6.9600	 0.9114	-6.0487	-6.1599	 1.5188	-4.6411	62.8114	99.9921	
   217	-7.7238	 0.3836	-7.3402	-7.1775	 0.9526	-6.2251	-6.3969	 1.5503	-4.8466	62.5848	99.9926	
   218	-7.8235	 0.3671	-7.4564	-7.3079	 0.9354	-6.3726	-6.4843	 1.5083	-4.9760	62.6660	99.9917	
   219	-7.9031	 0.3051	-7.5980	-7.3831	 0.8652	-6.5180	-6.5828	 1.4706	-5.1123	62.5318	99.9912	
   220	-8.0789	 0.2862	-7.7927	-7.6216	 0.8814	-6.7402	-6.8263	 1.4872	-5.3391	62.1285	99.9909	
   221	-8.3517	 0.2955	-8.0562	-7.8466	 0.9057	-6.9409	-7.0234	 1.5209	-5.5025	62.0464	99.9911	
   222	-8.4776	 0.3496	-8.1280	-7.9278	 0.9553	-6.9726	-7.1108	 1.5882	-5.5226	61.9643	99.9915	
   223	-8.5353	 0.4014	-8.1339	-7.9636	 1.0077	-6.9560	-7.1584	 1.6579	-5.5005	61.8379	99.9918	
   224	-8.4811	 0.4195	-8.0616	-7.9286	 1.0536	-6.8751	-7.0933	 1.7082	-5.3851	61.7608	99.9912	
   225	-8.3744	 0.4258	-7.9486	-7.8362	 1.0848	-6.7516	-7.0012	 1.7311	-5.2701	61.7224	99.9917	
   226	-8.3272	 0.4541	-7.8731	-7.7826	 1.1172	-6.6655	-6.9701	 1.7827	-5.1874	61.5967	99.9919	
   227	-8.3027	 0.4831	-7.8196	-7.7610	 1.1549	-6.6062	-6.9508	 1.8272	-5.1235	61.5140	99.9919	
   228	-8.2922	 0.5326	-7.7596	-7.7513	 1.2101	-6.5413	-6.9525	 1.9027	-5.0499	61.3457	99.9918	
   229	-8.2686	 0.5467	-7.7219	-7.7312	 1.2223	-6.5090	-6.9285	 1.9281	-5.0004	61.3061	99.9912	
   230	-8.2922	 0.6621	-7.6301	-7.7447	 1.3252	-6.4195	-6.8916	 1.9833	-4.9083	61.5696	99.9913	
   231	-8.2012	 0.6590	-7.5423	-7.6329	 1.3558	-6.2772	-6.7707	 2.0127	-4.7580	61.5837	99.9922	
   232	-8.1146	 0.7108	-7.4038	-7.4951	 1.3898	-6.1054	-6.6599	 2.0688	-4.5910	61.6373	99.9928	
   233	-8.0586	 0.7587	-7.3000	-7.4288	 1.4176	-6.0113	-6.5954	 2.1079	-4.4875	61.6844	99.9923	
   234	-8.0630	 0.8136	-7.2494	-7.4012	 1.4466	-5.9548	-6.5590	 2.1518	-4.4073	61.7770	99.9917	
   235	-8.0534	 0.8482	-7.2052	-7.3931	 1.4762	-5.9170	-6.5461	 2.1814	-4.3647	61.7785	99.9915	
   236	-8.0674	 0.8686	-7.1988	-7.3983	 1.4977	-5.9007	-6.5614	 2.2159	-4.3455	61.6951	99.9916	
   237	-8.0577	 0.9031	-7.1546	-7.3648	 1.5180	-5.8469	-6.4975	 2.2437	-4.2538	61.8327	99.9907	
   238	-7.9659	 0.9149	-7.0510	-7.2672	 1.5277	-5.7396	-6.4001	 2.2589	-4.1412	61.8809	99.9907	
   239	-7.9126	 0.9181	-6.9945	-7.2284	 1.5264	-5.7021	-6.3602	 2.2612	-4.0990	61.8809	99.9902	
   240	-7.9056	 0.9079	-6.9977	-7.2284	 1.5264	-5.7021	-6.3713	 2.2653	-4.1060	61.7949	99.9904	
   241	-7.9283	 0.9086	-7.0197	-7.2351	 1.5224	-5.7129	-6.3772	 2.2618	-4.1154	61.8386	99.9906	
   242	-7.9362	 0.9039	-7.0323	-7.2545	 1.5230	-5.7316	-6.3942	 2.2624	-4.1318	61.7949	99.9904	
   243	-7.9589	 0.9047	-7.0542	-7.2858	 1.5411	-5.7448	-6.4324	 2.2940	-4.1384	61.6257	99.9904	
   244	-7.9047	 0.9228	-6.9819	-7.2202	 1.5560	-5.6643	-6.3573	 2.3176	-4.0397	61.6756	99.9901	
   245	-7.8286	 0.9252	-6.9035	-7.1368	 1.5448	-5.5921	-6.2781	 2.3108	-3.9672	61.7630	99.9899	
   246	-7.8068	 0.9095	-6.8973	-7.1241	 1.5401	-5.5841	-6.2787	 2.2996	-3.9791	61.7178	99.9905	
   247	-7.8076	 0.8946	-6.9131	-7.1316	 1.5233	-5.6084	-6.2851	 2.2847	-4.0004	61.7163	99.9902	
   248	-7.8234	 0.8851	-6.9382	-7.1509	 1.5239	-5.6271	-6.3021	 2.2854	-4.0168	61.6741	99.9903	
   249	-7.8461	 0.8859	-6.9602	-7.1889	 1.5380	-5.6511	-6.3191	 2.2860	-4.0331	61.6741	99.9902	
   250	-7.8461	 0.8859	-6.9602	-7.1822	 1.5420	-5.6403	-6.3350	 2.3092	-4.0258	61.5474	99.9904	
   251	-7.7700	 0.8883	-6.8817	-7.0921	 1.5348	-5.5573	-6.2270	 2.3089	-3.9181	61.6832	99.9898	
   252	-7.7254	 0.8718	-6.8536	-7.0600	 1.5295	-5.5306	-6.1883	 2.2887	-3.8997	61.7253	99.9902	
   253	-7.7272	 0.8420	-6.8852	-7.0496	 1.4865	-5.5632	-6.1959	 2.2513	-3.9447	61.7645	99.9903	
   254	-7.7359	 0.8224	-6.9136	-7.0824	 1.4790	-5.6035	-6.2141	 2.2293	-3.9848	61.7615	99.9902	
   255	-7.7674	 0.8035	-6.9639	-7.0965	 1.4581	-5.6385	-6.2540	 2.2270	-4.0270	61.6756	99.9906	
   256	-7.7832	 0.7941	-6.9891	-7.1226	 1.4547	-5.6680	-6.2775	 2.2128	-4.0646	61.6726	99.9908	
   257	-7.7910	 0.7894	-7.0016	-7.1159	 1.4587	-5.6573	-6.2434	 2.2116	-4.0319	61.7645	99.9908	
   258	-7.7010	 0.7714	-6.9296	-7.0205	 1.4300	-5.5906	-6.1484	 2.1816	-3.9668	61.8939	99.9907	
   259	-7.6739	 0.7156	-6.9582	-7.0041	 1.3783	-5.6259	-6.1402	 2.1210	-4.0191	61.9318	99.9910	
   260	-7.6949	 0.6167	-7.0781	-7.0652	 1.3290	-5.7363	-6.1836	 2.0511	-4.1325	61.8430	99.9915	
   261	-7.7614	 0.5194	-7.2420	-7.1404	 1.2588	-5.8817	-6.2504	 1.9669	-4.2835	61.8386	99.9920	
   262	-7.8637	 0.4581	-7.4055	-7.1970	 1.1752	-6.0219	-6.3331	 1.9059	-4.4272	61.8780	99.9924	
   263	-7.9345	 0.4157	-7.5188	-7.2827	 1.1481	-6.1347	-6.4029	 1.8746	-4.5283	61.8327	99.9922	
   264	-7.9651	 0.4118	-7.5533	-7.2707	 1.1306	-6.1402	-6.3524	 1.8614	-4.4910	62.0556	99.9916	
   265	-7.9057	 0.3898	-7.5158	-7.2067	 1.1200	-6.0867	-6.2633	 1.8279	-4.4353	62.2299	99.9920	
   266	-7.8996	 0.3647	-7.5348	-7.2022	 1.0857	-6.1165	-6.2761	 1.7983	-4.4779	62.2259	99.9920	
   267	-7.9538	 0.3467	-7.6071	-7.2484	 1.0701	-6.1783	-6.3395	 1.7818	-4.5577	62.1796	99.9926	
   268	-7.9634	 0.3121	-7.6513	-7.2752	 1.0539	-6.2214	-6.3853	 1.7760	-4.6093	62.0063	99.9928	
   269	-7.9704	 0.3223	-7.6481	-7.2804	 1.0754	-6.2051	-6.3841	 1.7985	-4.5856	61.9669	99.9929	
   270	-7.9678	 0.3671	-7.6007	-7.2588	 1.1132	-6.1457	-6.3313	 1.8305	-4.5008	62.1020	99.9926	
   271	-7.9039	 0.4197	-7.4843	-7.1650	 1.1699	-5.9951	-6.2034	 1.8860	-4.3174	62.2432	99.9925	
   272	-7.7815	 0.4354	-7.3461	-7.0539	 1.1877	-5.8663	-6.1061	 1.9012	-4.2049	62.2445	99.9927	
   273	-7.7430	 0.4441	-7.2990	-7.0346	 1.1871	-5.8476	-6.0896	 1.8893	-4.2004	62.2826	99.9925	
   274	-7.7596	 0.4197	-7.3399	-7.0428	 1.1575	-5.8854	-6.0973	 1.8519	-4.2454	62.3655	99.9928	
   275	-7.8069	 0.3914	-7.4154	-7.0770	 1.1244	-5.9527	-6.1612	 1.8241	-4.3371	62.3182	99.9934	
   276	-7.8462	 0.3679	-7.4783	-7.1225	 1.1216	-6.0010	-6.2357	 1.8118	-4.4239	62.1850	99.9944	
   277	-7.8532	 0.3781	-7.4751	-7.1195	 1.1727	-5.9469	-6.2058	 1.8409	-4.3649	62.1931	99.9951	
   278	-7.6870	 0.4919	-7.1951	-6.9720	 1.2619	-5.7102	-6.0374	 1.9099	-4.1275	62.3667	99.9945	
   279	-7.6144	 0.6937	-6.9207	-6.9154	 1.3455	-5.5700	-5.9712	 1.9828	-3.9883	62.6975	99.9923	
   280	-7.5453	 0.8358	-6.7095	-6.8454	 1.4372	-5.4083	-5.8762	 2.0622	-3.8140	62.9116	99.9911	
   281	-7.4185	 0.7966	-6.6219	-6.7702	 1.3964	-5.3739	-5.7870	 2.0287	-3.7583	62.9105	99.9895	
   282	-7.4911	 0.7243	-6.7667	-6.8372	 1.3558	-5.4815	-5.8492	 2.0348	-3.8144	62.6625	99.9888	
   283	-7.4613	 0.8429	-6.6185	-6.8432	 1.4756	-5.3677	-5.8656	 2.1560	-3.7096	62.4496	99.9883	
   284	-7.4578	 0.7730	-6.6848	-6.8298	 1.3727	-5.4572	-5.8386	 2.0193	-3.8193	62.8240	99.9884	
   285	-7.2742	 0.5376	-6.7366	-6.7045	 1.1893	-5.5153	-5.6837	 1.8289	-3.8548	62.9094	99.9878	
   286	-7.1230	 0.3979	-6.7250	-6.6218	 1.0542	-5.5676	-5.6121	 1.6755	-3.9366	62.9840	99.9873	
   287	-7.1037	 0.3375	-6.7662	-6.5726	 1.0100	-5.5627	-5.5340	 1.6462	-3.8878	63.0780	99.9870	
   288	-7.0294	 0.3101	-6.7193	-6.5085	 0.9994	-5.5092	-5.4771	 1.6478	-3.8293	62.9959	99.9870	
   289	-6.9594	 0.3376	-6.6219	-6.4116	 0.9962	-5.4155	-5.4197	 1.6608	-3.7589	63.0380	99.9875	
   290	-6.9227	 0.3164	-6.6063	-6.4265	 0.9626	-5.4641	-5.4396	 1.6050	-3.8346	63.0707	99.9869	
   291	-7.1046	 0.1931	-6.9115	-6.6843	 0.8684	-5.8160	-5.7323	 1.5481	-4.1842	62.5440	99.9856	
   292	-7.3958	 0.2778	-7.1181	-6.9034	 0.9950	-5.9085	-5.8561	 1.6808	-4.1753	62.5227	99.9853	
   293	-7.3469	 0.3359	-7.0110	-6.8162	 1.0477	-5.7686	-5.7458	 1.7257	-4.0201	62.7022	99.9857	
   294	-7.2769	 0.3634	-6.9135	-6.7626	 1.0801	-5.6826	-5.6930	 1.7576	-3.9354	62.6613	99.9855	
   295	-7.2699	 0.3532	-6.9167	-6.7507	 1.0627	-5.6881	-5.6936	 1.7464	-3.9473	62.6601	99.9856	
   296	-7.2856	 0.3437	-6.9419	-6.7574	 1.0586	-5.6989	-5.6995	 1.7428	-3.9567	62.6613	99.9859	
   297	-7.2769	 0.3634	-6.9135	-6.7499	 1.0755	-5.6746	-5.6760	 1.7570	-3.9190	62.7057	99.9854	
   298	-7.2515	 0.4073	-6.8442	-6.7283	 1.1132	-5.6152	-5.6567	 1.8015	-3.8552	62.6648	99.9850	
   299	-7.2279	 0.5510	-6.6769	-6.6390	 1.2043	-5.4348	-5.5552	 1.8957	-3.6595	62.9270	99.9847	
   300	-7.0652	 0.7347	-6.3305	-6.3902	 1.3671	-5.0232	-5.2784	 2.0851	-3.1933	63.1183	99.9844	
   301	-6.6908	 1.0307	-5.6601	-5.9149	 1.6422	-4.2729	-4.7775	 2.3227	-2.4549	63.6003	99.9869	
   302	-6.3742	 1.2490	-5.1252	-5.6609	 1.7835	-3.8775	-4.5365	 2.4795	-2.0570	63.6415	99.9832	
   303	-6.3567	 1.1588	-5.1980	-5.7197	 1.6615	-4.0583	-4.5793	 2.3115	-2.2678	63.8777	99.9815	
   304	-6.6261	 0.9687	-5.6574	-6.0065	 1.5127	-4.4939	-4.8684	 2.2130	-2.6554	63.4983	99.9802	
   305	-6.5325	 1.1399	-5.3927	-5.8330	 1.7164	-4.1167	-4.6978	 2.4365	-2.2613	63.3922	99.9828	
   306	-6.3620	 1.3283	-5.0337	-5.6893	 1.8527	-3.8367	-4.5999	 2.5723	-2.0276	63.3472	99.9820	
   307	-6.3620	 1.3283	-5.0337	-5.6632	 1.8561	-3.8071	-4.5923	 2.6097	-1.9826	63.2271	99.9820	
   308	-6.1197	 1.4445	-4.6752	-5.4375	 1.9556	-3.4819	-4.3852	 2.6585	-1.7267	63.4335	99.9838	
   309	-6.1241	 1.3700	-4.7541	-5.4501	 1.8493	-3.6009	-4.4186	 2.5617	-1.8569	63.5098	99.9828	
   310	-6.2378	 1.2443	-4.9934	-5.5849	 1.7554	-3.8296	-4.4819	 2.4360	-2.0460	63.6753	99.9822	
   311	-6.2946	 1.1815	-5.1131	-5.6445	 1.7317	-3.9129	-4.5177	 2.4034	-2.1143	63.6357	99.9829	
   312	-6.3113	 1.1572	-5.1541	-5.6713	 1.7155	-3.9559	-4.5752	 2.3905	-2.1847	63.5072	99.9838	
   313	-6.3340	 1.1580	-5.1760	-5.6907	 1.7161	-3.9747	-4.5975	 2.3988	-2.1986	63.4658	99.9836	
   314	-6.3559	 1.1737	-5.1822	-5.7034	 1.7208	-3.9827	-4.6198	 2.4072	-2.2126	63.4649	99.9837	
   315	-6.3550	 1.1886	-5.1664	-5.6892	 1.7417	-3.9476	-4.5840	 2.4398	-2.1442	63.4703	99.9831	
   316	-6.2710	 1.1957	-5.0754	-5.5991	 1.7345	-3.8647	-4.4989	 2.4366	-2.0623	63.5547	99.9828	
   317	-6.2343	 1.1745	-5.0598	-5.5871	 1.7170	-3.8702	-4.4837	 2.4021	-2.0816	63.5934	99.9829	
   318	-6.2518	 1.1352	-5.1166	-5.6333	 1.7014	-3.9320	-4.5247	 2.3773	-2.1475	63.5081	99.9830	
   319	-6.2833	 1.1164	-5.1669	-5.6661	 1.6940	-3.9722	-4.5535	 2.3708	-2.1827	63.4667	99.9832	
   320	-6.3060	 1.1172	-5.1888	-5.6728	 1.6899	-3.9830	-4.5599	 2.3560	-2.2039	63.5495	99.9838	
   321	-6.3200	 1.1376	-5.1824	-5.6780	 1.7114	-3.9667	-4.5805	 2.3982	-2.1823	63.4262	99.9838	
   322	-6.3174	 1.1823	-5.1351	-5.6631	 1.7451	-3.9181	-4.5664	 2.4504	-2.1160	63.3876	99.9831	
   323	-6.2693	 1.2255	-5.0438	-5.5909	 1.7641	-3.8268	-4.4913	 2.4740	-2.0173	63.5151	99.9827	
   324	-6.2019	 1.2083	-4.9937	-5.5402	 1.7454	-3.7949	-4.4473	 2.4460	-2.0013	63.5547	99.9828	
   325	-6.2124	 1.1588	-5.0536	-5.5618	 1.7077	-3.8542	-4.4614	 2.3938	-2.0676	63.5943	99.9832	
   326	-6.2439	 1.1400	-5.1040	-5.5946	 1.7002	-3.8945	-4.4848	 2.3796	-2.1053	63.5943	99.9835	
   327	-6.2369	 1.1298	-5.1072	-5.6139	 1.7008	-3.9132	-4.5019	 2.3802	-2.1217	63.5098	99.9831	
   328	-6.2597	 1.1305	-5.1291	-5.6393	 1.7102	-3.9292	-4.5412	 2.3892	-2.1520	63.4253	99.9837	
   329	-6.3121	 1.1423	-5.1699	-5.6654	 1.7067	-3.9587	-4.5699	 2.3827	-2.1872	63.5081	99.9841	
   330	-6.3358	 1.1282	-5.2076	-5.6914	 1.7033	-3.9882	-4.6204	 2.3959	-2.2244	63.3406	99.9845	
   331	-6.3191	 1.1525	-5.1666	-5.6452	 1.7189	-3.9264	-4.5459	 2.4082	-2.1376	63.5125	99.9842	
   332	-6.2431	 1.1549	-5.0882	-5.5745	 1.7124	-3.8622	-4.4831	 2.4134	-2.0697	63.5134	99.9836	
   333	-6.2282	 1.1494	-5.0788	-5.5678	 1.7164	-3.8514	-4.4778	 2.4057	-2.0721	63.5125	99.9842	
   334	-6.2124	 1.1588	-5.0536	-5.5484	 1.7158	-3.8327	-4.4995	 2.4253	-2.0742	63.3857	99.9845	
   335	-6.2509	 1.1502	-5.1008	-5.5938	 1.7130	-3.8809	-4.5288	 2.4076	-2.1213	63.4262	99.9846	
   336	-6.2588	 1.1454	-5.1133	-5.6318	 1.7270	-3.9049	-4.5511	 2.4159	-2.1352	63.3425	99.9841	
   337	-6.3183	 1.1674	-5.1509	-5.6639	 1.7323	-3.9317	-4.5963	 2.4214	-2.1749	63.3830	99.9847	
   338	-6.3331	 1.1729	-5.1602	-5.6885	 1.7545	-3.9341	-4.6116	 2.4559	-2.1557	63.2607	99.9842	
   339	-6.2850	 1.2161	-5.0689	-5.6095	 1.7775	-3.8321	-4.5353	 2.5020	-2.0333	63.3078	99.9836	
   340	-6.2238	 1.2239	-4.9999	-5.5514	 1.7757	-3.7758	-4.5013	 2.5008	-2.0005	63.3059	99.9839	
   341	-6.2098	 1.2035	-5.0063	-5.5588	 1.7588	-3.8001	-4.5025	 2.4782	-2.0243	63.3040	99.9835	
   342	-6.2413	 1.1847	-5.0566	-5.5856	 1.7426	-3.8431	-4.5377	 2.4569	-2.0808	63.3021	99.9842	
   343	-6.2868	 1.1863	-5.1005	-5.6244	 1.7439	-3.8806	-4.5717	 2.4582	-2.1135	63.3021	99.9842	
   344	-6.2946	 1.1815	-5.1131	-5.6438	 1.7445	-3.8994	-4.5946	 2.4553	-2.1393	63.2588	99.9843	
   345	-6.3165	 1.1972	-5.1193	-5.6684	 1.7666	-3.9018	-4.6327	 2.4868	-2.1459	63.1335	99.9845	
   346	-6.3375	 1.2278	-5.1097	-5.6863	 1.7928	-3.8935	-4.6480	 2.5213	-2.1267	63.0932	99.9840	
   347	-6.3121	 1.2718	-5.0403	-5.6326	 1.8253	-3.8075	-4.5887	 2.5681	-2.0206	63.1406	99.9837	
   348	-6.2430	 1.2844	-4.9586	-5.5805	 1.8321	-3.7484	-4.5488	 2.5704	-1.9785	63.1386	99.9837	
   349	-6.2290	 1.2640	-4.9651	-5.5752	 1.8106	-3.7647	-4.5447	 2.5401	-2.0047	63.1779	99.9838	
   350	-6.2754	 1.2506	-5.0248	-5.6147	 1.7991	-3.8158	-4.5852	 2.5265	-2.0587	63.1769	99.9841	
   351	-6.2981	 1.2514	-5.0467	-5.6214	 1.7950	-3.8265	-4.5905	 2.5342	-2.0562	63.1789	99.9838	
   352	-6.2824	 1.2608	-5.0216	-5.6386	 1.8340	-3.8047	-4.6005	 2.5610	-2.0395	63.0538	99.9842	
   353	-6.3104	 1.3016	-5.0087	-5.6378	 1.8468	-3.7912	-4.6275	 2.5884	-2.0391	63.0528	99.9843	
   354	-6.3322	 1.3173	-5.0149	-5.6691	 1.8649	-3.8044	-4.6603	 2.6122	-2.0481	62.9690	99.9840	
   355	-6.3226	 1.3519	-4.9707	-5.6468	 1.9154	-3.7315	-4.6181	 2.6596	-1.9585	62.9753	99.9843	
   356	-6.2448	 1.3841	-4.8607	-5.5805	 1.9432	-3.6375	-4.5653	 2.6916	-1.8737	62.9340	99.9842	
   357	-6.2133	 1.4029	-4.8104	-5.5537	 1.9594	-3.5944	-4.5530	 2.7100	-1.8430	62.8916	99.9844	
   358	-6.2290	 1.3935	-4.8355	-5.5552	 1.9338	-3.6215	-4.5765	 2.6958	-1.8807	62.8895	99.9844	
   359	-6.2448	 1.3841	-4.8607	-5.5872	 1.9391	-3.6482	-4.6046	 2.7006	-1.9040	62.8056	99.9844	
   360	-6.2675	 1.3848	-4.8827	-5.6066	 1.9397	-3.6670	-4.6163	 2.6935	-1.9229	62.8470	99.9845	
   361	-6.3051	 1.3911	-4.9140	-5.6386	 1.9450	-3.6937	-4.6386	 2.7018	-1.9368	62.8481	99.9842	
   362	-6.3340	 1.4170	-4.9170	-5.6506	 1.9625	-3.6882	-4.6656	 2.7292	-1.9364	62.8068	99.9845	
   363	-6.3401	 1.4421	-4.8980	-5.6737	 2.0102	-3.6636	-4.6527	 2.7589	-1.8938	62.8101	99.9843	
   364	-6.2631	 1.4594	-4.8037	-5.6074	 2.0380	-3.5695	-4.6058	 2.7873	-1.8185	62.7275	99.9850	
   365	-6.2176	 1.4578	-4.7598	-5.5627	 2.0280	-3.5348	-4.5671	 2.7670	-1.8001	62.8090	99.9853	
   366	-6.2264	 1.4382	-4.7882	-5.5708	 1.9984	-3.5726	-4.5906	 2.7528	-1.8377	62.7654	99.9849	
   367	-6.2343	 1.4335	-4.8007	-5.5902	 1.9990	-3.5913	-4.5853	 2.7451	-1.8402	62.8079	99.9843	
   368	-6.2491	 1.4390	-4.8101	-5.5962	 2.0077	-3.5886	-4.6023	 2.7457	-1.8566	62.8068	99.9853	
   369	-6.2640	 1.4445	-4.8195	-5.6148	 2.0211	-3.5938	-4.6129	 2.7612	-1.8517	62.7665	99.9851	
   370	-6.2701	 1.4696	-4.8005	-5.6141	 2.0339	-3.5803	-4.6176	 2.7802	-1.8374	62.7665	99.9848	
   371	-6.2692	 1.4845	-4.7847	-5.6320	 2.0601	-3.5720	-4.6451	 2.7963	-1.8488	62.6804	99.9854	
   372	-6.2841	 1.4900	-4.7941	-5.6312	 2.0729	-3.5584	-4.6275	 2.8070	-1.8206	62.7263	99.9856	
   373	-6.2299	 1.5081	-4.7218	-5.5664	 2.0751	-3.4914	-4.5595	 2.8044	-1.7551	62.8525	99.9854	
   374	-6.1931	 1.4869	-4.7062	-5.5478	 2.0617	-3.4862	-4.5548	 2.7854	-1.7694	62.8079	99.9859	
   375	-6.2098	 1.4626	-4.7472	-5.5686	 2.0367	-3.5320	-4.5841	 2.7676	-1.8165	62.7643	99.9857	
   376	-6.2404	 1.4586	-4.7817	-5.5828	 2.0158	-3.5671	-4.6017	 2.7570	-1.8447	62.8056	99.9853	
   377	-6.2482	 1.4539	-4.7943	-5.5954	 2.0205	-3.5750	-4.6129	 2.7612	-1.8517	62.7643	99.9855	
   378	-6.2482	 1.4539	-4.7943	-5.6081	 2.0252	-3.5830	-4.6240	 2.7654	-1.8586	62.7218	99.9853	
   379	-6.2701	 1.4696	-4.8005	-5.6267	 2.0386	-3.5883	-4.6516	 2.7815	-1.8701	62.6793	99.9854	
   380	-6.3068	 1.4908	-4.8160	-5.6394	 2.0433	-3.5962	-4.6680	 2.7934	-1.8746	62.7218	99.9854	
   381	-6.2832	 1.5049	-4.7783	-5.6119	 2.0723	-3.5397	-4.6164	 2.8028	-1.8136	62.8090	99.9859	
   382	-6.2220	 1.5128	-4.7092	-5.5657	 2.0879	-3.4779	-4.5818	 2.8128	-1.7690	62.7665	99.9863	
   383	-6.2229	 1.4979	-4.7250	-5.5604	 2.0663	-3.4942	-4.5882	 2.7979	-1.7903	62.7654	99.9864	
   384	-6.2386	 1.4885	-4.7502	-5.5806	 2.0542	-3.5265	-4.6058	 2.7873	-1.8185	62.7643	99.9861	
   385	-6.2535	 1.4939	-4.7595	-5.5932	 2.0589	-3.5345	-4.6058	 2.7873	-1.8185	62.8068	99.9859	
   386	-6.2386	 1.4885	-4.7502	-5.5932	 2.0589	-3.5345	-4.6111	 2.7950	-1.8161	62.7229	99.9856	
   387	-6.2605	 1.5041	-4.7563	-5.6111	 2.0851	-3.5262	-4.6217	 2.8105	-1.8112	62.7241	99.9862	
   388	-6.2596	 1.5191	-4.7405	-5.6171	 2.0938	-3.5234	-4.6322	 2.8260	-1.8063	62.6816	99.9857	
   389	-6.2885	 1.5449	-4.7435	-5.6223	 2.1153	-3.5071	-4.6311	 2.8485	-1.7825	62.7263	99.9859	
   390	-6.2185	 1.5724	-4.6460	-5.5493	 2.1471	-3.4023	-4.5337	 2.8637	-1.6700	62.8558	99.9860	
   391	-6.1424	 1.5748	-4.5676	-5.4778	 2.1534	-3.3245	-4.4709	 2.8689	-1.6020	62.8569	99.9863	
   392	-6.1275	 1.5693	-4.5582	-5.4658	 2.1359	-3.3300	-4.4604	 2.8535	-1.6069	62.8970	99.9859	
   393	-6.1284	 1.5544	-4.5740	-5.4666	 2.1231	-3.3436	-4.4615	 2.8309	-1.6306	62.9372	99.9863	
   394	-6.1363	 1.5497	-4.5866	-5.4666	 2.1231	-3.3436	-4.4615	 2.8309	-1.6306	62.9383	99.9866	
   395	-6.1433	 1.5599	-4.5834	-5.4726	 2.1318	-3.3408	-4.4668	 2.8386	-1.6282	62.9383	99.9866	
   396	-6.1354	 1.5646	-4.5708	-5.4785	 2.1406	-3.3380	-4.4721	 2.8464	-1.6257	62.8960	99.9864	
   397	-6.1424	 1.5748	-4.5676	-5.4845	 2.1493	-3.3353	-4.4827	 2.8618	-1.6208	62.8547	99.9863	
   398	-6.1415	 1.5897	-4.5518	-5.4770	 2.1662	-3.3110	-4.4703	 2.8802	-1.5901	62.8569	99.9863	
   399	-6.0724	 1.6023	-4.4701	-5.3735	 2.1671	-3.2065	-4.3677	 2.8877	-1.4800	62.9869	99.9866	
   400	-6.0270	 1.6008	-4.4262	-5.3161	 2.1524	-3.1638	-4.3178	 2.8632	-1.4546	63.1104	99.9870	
   401	-6.0060	 1.5702	-4.4358	-5.3176	 2.1269	-3.1908	-4.3196	 2.8294	-1.4902	63.1074	99.9870	
   402	-6.0217	 1.5607	-4.4610	-5.3124	 2.1053	-3.2071	-4.3260	 2.8145	-1.5115	63.1486	99.9872	
   403	-6.0077	 1.5403	-4.4674	-5.3131	 2.0926	-3.2206	-4.3213	 2.7955	-1.5258	63.1476	99.9871	
   404	-6.0007	 1.5301	-4.4706	-5.3258	 2.0972	-3.2286	-4.3272	 2.7920	-1.5352	63.1054	99.9872	
   405	-6.0156	 1.5356	-4.4800	-5.3325	 2.0932	-3.2394	-4.3383	 2.7962	-1.5422	63.1054	99.9870	
   406	-6.0156	 1.5356	-4.4800	-5.3451	 2.0979	-3.2474	-4.3383	 2.7962	-1.5422	63.1054	99.9866	
   407	-6.0226	 1.5458	-4.4768	-5.3317	 2.1060	-3.2259	-4.3207	 2.8068	-1.5139	63.1496	99.9868	
   408	-5.9544	 1.5435	-4.4109	-5.2222	 2.0982	-3.1241	-4.2415	 2.8001	-1.4415	63.2349	99.9884	
   409	-5.9098	 1.5270	-4.3828	-5.1849	 2.0714	-3.1137	-4.2198	 2.7804	-1.4394	63.2329	99.9881	
   410	-5.9185	 1.5074	-4.4111	-5.1864	 2.0458	-3.1407	-4.2216	 2.7466	-1.4750	63.3144	99.9884	
   411	-5.9045	 1.4870	-4.4176	-5.1939	 2.0289	-3.1650	-4.2222	 2.7353	-1.4869	63.2722	99.9876	
   412	-5.9054	 1.4721	-4.4333	-5.1879	 2.0202	-3.1678	-4.2227	 2.7240	-1.4987	63.2722	99.9882	
   413	-5.9282	 1.4729	-4.4553	-5.2207	 2.0127	-3.2081	-4.2568	 2.7253	-1.5315	63.2291	99.9875	
   414	-5.9439	 1.4634	-4.4805	-5.2527	 2.0180	-3.2348	-4.2685	 2.7182	-1.5503	63.2291	99.9874	
   415	-5.9430	 1.4783	-4.4647	-5.2386	 2.0389	-3.1998	-4.2556	 2.7478	-1.5078	63.1908	99.9876	
   416	-5.9002	 1.5616	-4.3386	-5.1239	 2.1206	-3.0033	-4.1436	 2.8266	-1.3170	63.3247	99.9893	
   417	-5.7768	 1.5922	-4.1846	-5.0061	 2.1425	-2.8638	-4.0527	 2.8269	-1.2257	63.4050	99.9903	
   418	-5.7952	 1.5380	-4.2572	-5.0359	 2.0751	-2.9609	-4.0996	 2.7985	-1.3010	63.2789	99.9889	
   419	-5.6596	 1.6480	-4.0117	-4.8847	 2.2282	-2.6566	-3.7424	 2.8945	-0.8479	63.8382	99.9868	
   420	-5.2775	 1.6897	-3.5878	-4.6255	 2.2370	-2.3886	-3.5775	 2.7866	-0.7909	64.0646	99.9896	
   421	-5.5468	 1.6292	-3.9177	-4.8445	 2.1415	-2.7030	-4.0426	 2.6909	-1.3517	63.6238	99.9951	
   422	-5.8503	 1.3756	-4.4748	-5.1923	 1.8325	-3.3599	-4.4403	 2.3628	-2.0774	63.7222	99.9948	
   423	-6.1967	 1.0387	-5.1580	-5.5833	 1.5589	-4.0245	-4.7845	 2.0780	-2.7065	63.6270	99.9945	
   424	-6.4163	 0.7922	-5.6241	-5.7263	 1.3244	-4.4020	-4.9334	 1.9441	-2.9894	63.4639	99.9936	
   425	-6.4740	 0.7145	-5.7595	-5.7926	 1.2966	-4.4961	-5.0572	 1.9676	-3.0897	62.9559	99.9943	
   426	-6.3743	 0.6015	-5.7729	-5.7054	 1.1273	-4.5782	-4.9950	 1.7429	-3.2521	63.4492	99.9948	
   427	-6.3333	 0.3958	-5.9374	-5.6241	 0.9666	-4.6575	-4.9122	 1.5853	-3.3269	63.5814	99.9960	
   428	-6.2712	 0.2891	-5.9821	-5.4996	 0.8815	-4.6182	-4.7855	 1.5090	-3.2765	63.7585	99.9968	
   429	-6.2380	 0.2083	-6.0297	-5.4445	 0.8285	-4.6161	-4.7203	 1.4500	-3.2703	63.8466	99.9973	
   430	-6.2432	 0.1188	-6.1244	-5.4735	 0.7739	-4.6997	-4.7309	 1.3562	-3.3747	63.9283	99.9978	
   431	-6.2957	 0.0011	-6.2947	-5.5674	 0.7171	-4.8503	-4.7971	 1.2833	-3.5138	63.8005	99.9978	
   432	-6.3911	-0.0704	-6.4615	-5.6240	 0.6336	-4.9905	-4.8294	 1.2091	-3.6202	63.9711	99.9977	
   433	-6.5030	-0.1662	-6.6692	-5.7513	 0.5565	-5.1949	-4.9173	 1.1559	-3.7615	63.8878	99.9969	
   434	-6.5678	-0.2337	-6.8015	-5.8050	 0.5241	-5.2810	-4.9197	 1.1107	-3.8089	63.9764	99.9968	
   435	-6.5616	-0.2588	-6.8205	-5.7945	 0.4810	-5.3136	-4.8927	 1.0834	-3.8093	64.0617	99.9962	
   436	-6.5555	-0.2839	-6.8395	-5.8020	 0.4642	-5.3379	-4.8827	 1.0566	-3.8261	64.1036	99.9960	
   437	-6.5940	-0.2926	-6.8866	-5.8548	 0.4445	-5.4104	-4.9179	 1.0353	-3.8826	64.1442	99.9954	
   438	-6.6482	-0.3107	-6.9589	-5.8958	 0.4074	-5.4885	-4.9707	 1.0034	-3.9673	64.1841	99.9954	
   439	-6.6710	-0.3099	-6.9808	-5.9472	 0.4134	-5.5340	-5.0041	 1.0159	-3.9882	64.0994	99.9947	
   440	-6.6920	-0.2793	-6.9712	-5.9718	 0.4355	-5.5364	-5.0370	 1.0398	-3.9972	64.0559	99.9946	
   441	-6.7208	-0.2534	-6.9742	-6.0285	 0.4629	-5.5656	-5.0710	 1.0410	-4.0300	64.0959	99.9943	
   442	-6.8205	-0.2699	-7.0904	-6.1298	 0.3893	-5.7405	-5.2164	 0.9749	-4.2416	64.1289	99.9941	
   443	-7.2604	-0.2598	-7.5202	-6.5016	 0.4483	-6.0534	-5.5473	 1.0588	-4.4885	63.8379	99.9945	
   444	-7.3522	-0.2716	-7.6239	-6.5612	 0.4246	-6.1367	-5.6095	 0.9556	-4.6539	64.2127	99.9962	
   445	-7.3741	-0.3855	-7.7596	-6.6558	 0.3550	-6.3008	-5.7232	 0.8430	-4.8802	64.0758	99.9966	
   446	-7.3671	-0.3957	-7.7628	-6.6498	 0.3463	-6.3036	-5.6828	 0.8566	-4.8262	64.0802	99.9959	
   447	-7.3015	-0.3132	-7.6147	-6.5433	 0.3984	-6.1450	-5.5485	 0.9270	-4.6215	64.2570	99.9953	
   448	-7.2420	-0.3352	-7.5772	-6.5462	 0.3472	-6.1991	-5.5819	 0.8302	-4.7516	64.3738	99.9954	
   449	-7.4109	-0.4938	-7.9046	-6.7868	 0.2140	-6.5729	-5.8358	 0.7530	-5.0828	63.8973	99.9939	
   450	-7.4992	-0.5754	-8.0746	-6.9053	 0.1794	-6.7260	-5.8933	 0.7401	-5.1532	63.7311	99.9925	
   451	-7.4109	-0.4938	-7.9046	-6.6877	 0.2493	-6.4386	-5.5965	 0.7667	-4.8298	64.4271	99.9936	
   452	-6.9762	-0.4638	-7.4400	-6.2966	 0.1897	-6.1069	-5.2498	 0.6595	-4.5902	64.9727	99.9935	
   453	-6.8512	-0.6624	-7.5135	-6.2183	-0.0220	-6.2404	-5.2081	 0.4771	-4.7310	64.9689	99.9926	
   454	-6.7847	-0.6945	-7.4792	-6.0968	-0.0473	-6.1442	-5.0550	 0.4714	-4.5836	65.1439	99.9926	
   455	-6.6911	-0.6529	-7.3440	-5.9508	 0.0163	-5.9346	-4.8150	 0.4963	-4.3187	65.5711	99.9927	
   456	-6.5425	-0.5783	-7.1207	-5.7400	 0.0821	-5.6579	-4.6051	 0.6016	-4.0035	65.6163	99.9927	
   457	-6.4025	-0.5233	-6.9258	-5.5515	 0.0974	-5.4541	-4.4221	 0.6249	-3.7972	65.8680	99.9928	
   458	-6.4297	-0.5971	-7.0267	-5.6915	 0.0251	-5.6665	-4.6408	 0.4597	-4.1811	65.8220	99.9945	
   459	-6.7602	-0.6655	-7.4257	-6.0640	-0.0398	-6.1039	-5.0162	 0.4511	-4.5651	65.3550	99.9928	
   460	-6.9841	-0.7275	-7.7117	-6.2279	-0.0772	-6.3053	-5.1529	 0.4449	-4.7080	65.2727	99.9929	
   461	-6.9868	-0.7723	-7.7590	-6.2108	-0.1162	-6.3271	-5.0995	 0.3788	-4.7207	65.5268	99.9932	
   462	-6.9894	-0.8170	-7.8064	-6.1929	-0.1424	-6.3354	-5.0884	 0.3747	-4.7137	65.4435	99.9935	
   463	-6.9728	-0.7927	-7.7655	-6.1653	-0.1134	-6.2788	-5.0532	 0.3960	-4.6572	65.4864	99.9937	
   464	-6.9404	-0.7589	-7.6993	-6.1296	-0.0548	-6.1845	-5.0274	 0.4553	-4.5721	65.3611	99.9943	
   465	-6.9378	-0.7142	-7.6520	-6.1207	-0.0124	-6.1331	-5.0033	 0.4808	-4.5226	65.4456	99.9944	
   466	-6.9421	-0.6592	-7.6014	-6.1050	 0.0341	-6.0710	-4.9681	 0.5021	-4.4661	65.6141	99.9947	
   467	-6.9168	-0.6153	-7.5321	-6.0961	 0.0765	-6.0197	-4.9441	 0.5275	-4.4166	65.6561	99.9944	
   468	-6.8774	-0.5917	-7.4691	-6.0879	 0.1061	-5.9819	-4.9154	 0.5340	-4.3814	65.6979	99.9941	
   469	-6.8766	-0.7063	-7.5829	-6.0454	-0.0532	-6.0987	-4.9282	 0.3951	-4.5332	65.8650	99.9947	
   470	-6.6370	-0.8938	-7.5308	-5.8419	-0.2263	-6.0683	-4.6577	 0.2418	-4.4160	66.1176	99.9927	
   471	-6.4332	-0.9157	-7.3489	-5.7719	-0.2456	-6.0176	-4.6173	 0.2553	-4.3620	65.7387	99.9903	
   472	-6.3405	-0.7595	-7.1000	-5.5745	-0.0769	-5.6515	-4.3838	 0.3747	-4.0091	66.1179	99.9927	
   473	-6.2547	-0.5931	-6.8478	-5.6788	 0.0204	-5.6585	-4.6173	 0.4739	-4.1435	65.5242	99.9911	
   474	-6.7953	-0.8735	-7.6687	-6.0893	-0.2525	-6.3419	-4.9903	 0.1826	-4.8078	65.9047	99.9930	
   475	-7.1031	-1.0722	-8.1753	-6.4088	-0.5198	-6.9287	-5.3388	 0.1466	-5.1922	65.1830	99.9851	
   476	-7.1704	-0.9254	-8.0958	-6.3650	-0.2095	-6.5745	-5.0954	 0.3485	-4.7469	65.5323	99.9896	
   477	-6.4830	-0.6002	-7.0832	-5.5098	 0.1473	-5.3625	-4.1986	 0.7710	-3.4276	65.7507	99.9909	
   478	-5.6731	-0.0003	-5.6734	-4.7432	 0.4259	-4.3174	-3.5891	 0.8010	-2.7881	67.3630	99.9937	
   479	-5.7143	-0.4422	-6.1565	-5.0590	 0.1115	-4.9476	-3.9850	 0.6161	-3.3689	65.9501	99.9899	
   480	-5.7195	-0.4022	-6.1217	-5.0076	 0.1056	-4.9021	-3.9205	 0.5458	-3.3746	66.4948	99.9914	
   481	-5.8315	-0.6275	-6.4590	-5.1110	-0.1174	-5.2286	-4.0131	 0.2931	-3.7200	66.7897	99.9920	
   482	-5.9478	-0.7978	-6.7457	-5.2086	-0.2381	-5.4468	-4.0506	 0.1173	-3.9332	67.0833	99.9930	
   483	-6.0957	-0.9871	-7.0827	-5.3598	-0.3913	-5.7512	-4.2165	-0.0159	-4.2324	66.9167	99.9934	
   484	-6.4551	-1.1591	-7.6142	-5.6958	-0.3847	-6.0807	-4.6559	 0.0570	-4.5989	65.7380	99.9964	
   485	-6.6256	-0.8295	-7.4551	-5.7414	-0.0545	-5.7960	-4.6138	 0.3230	-4.2908	66.0760	99.9970	
   486	-6.4926	-0.7643	-7.2569	-5.8077	-0.0822	-5.8900	-4.6865	 0.3446	-4.3419	65.7800	99.9933	
   487	-5.9696	-0.1346	-6.1042	-4.9660	 0.4886	-4.4775	-3.7611	 0.9921	-2.7690	66.3659	99.9943	
   488	-5.3285	-0.0818	-5.4103	-4.5852	 0.3610	-4.2243	-3.5568	 0.6566	-2.9002	67.1661	99.9951	
   489	-5.9057	-0.2115	-6.1173	-5.0680	 0.4022	-4.6660	-3.9951	 0.9707	-3.0244	65.5796	99.9928	
   490	-5.2490	-0.1493	-5.3982	-4.5628	 0.1895	-4.3734	-3.4629	 0.3856	-3.0773	68.0979	99.9933	
   491	-5.6137	-0.6698	-6.2835	-5.0425	-0.1623	-5.2049	-4.0377	 0.2563	-3.7814	66.3706	99.9913	
   492	-5.4274	-0.3424	-5.7698	-4.7833	 0.0685	-4.7149	-3.7304	 0.3767	-3.3536	67.2565	99.9924	
   493	-5.6129	-0.6549	-6.2677	-5.1356	-0.2063	-5.3420	-4.1139	 0.1009	-4.0130	66.8410	99.9907	
   494	-5.7397	-0.7452	-6.4849	-5.2049	-0.2852	-5.4902	-4.1121	 0.0254	-4.0867	67.0939	99.9902	
   495	-5.9977	-1.0004	-6.9981	-5.4260	-0.5301	-5.9562	-4.3285	-0.2039	-4.5324	67.1809	99.9905	
   496	-6.4534	-1.1292	-7.5826	-5.8425	-0.5722	-6.4148	-4.7990	-0.0733	-4.8723	65.9883	99.9897	
   497	-6.4953	-1.0680	-7.5634	-5.8917	-0.6389	-6.5307	-4.9415	-0.1923	-5.1338	66.3724	99.9906	
   498	-6.6755	-1.1615	-7.8370	-5.8879	-0.6860	-6.5741	-4.8342	-0.2039	-5.0380	66.7106	99.9915	
   499	-6.7306	-1.1945	-7.9251	-5.9140	-0.8005	-6.7145	-4.9221	-0.2571	-5.1792	66.7119	99.9899	
   500	-6.6432	-1.3867	-8.0299	-5.8982	-1.0871	-6.9854	-5.0493	-0.5199	-5.5693	66.7171	99.9888	
   501	-6.6887	-1.3852	-8.0738	-5.9198	-1.0138	-6.9337	-4.9291	-0.3925	-5.3216	66.5846	99.9854	
   502	-6.4945	-1.3121	-7.8066	-5.6770	-0.9533	-6.6304	-4.6223	-0.3927	-5.0150	67.1768	99.9866	
   503	-6.3651	-1.3066	-7.6717	-5.5257	-0.9112	-6.4370	-4.4059	-0.3819	-4.7878	67.4254	99.9875	
   504	-6.1928	-1.2178	-7.4106	-5.4237	-0.7138	-6.1376	-4.2152	-0.3212	-4.5364	67.5911	99.9905	
   505	-6.1858	-1.2280	-7.4138	-5.4289	-0.8033	-6.2323	-4.3015	-0.3406	-4.6421	67.4274	99.9885	
   506	-6.2172	-1.1174	-7.3346	-5.5005	-0.5875	-6.0881	-4.2581	-0.1613	-4.4194	67.2107	99.9882	
   507	-6.0755	-0.9031	-6.9786	-5.4194	-0.4150	-5.8345	-4.1819	-0.0059	-4.1878	67.1698	99.9866	
   508	-6.0318	-0.8049	-6.8367	-5.4075	-0.3214	-5.7290	-4.1444	 0.0605	-4.0839	67.2120	99.9858	
   509	-6.0073	-0.7759	-6.7832	-5.4120	-0.2871	-5.6992	-4.1820	 0.1034	-4.0786	67.0027	99.9860	
   510	-6.0510	-0.7445	-6.7955	-5.4440	-0.2818	-5.7259	-4.2113	 0.0856	-4.1256	67.1724	99.9863	
   511	-6.1490	-0.8607	-7.0097	-5.5423	-0.4153	-5.9577	-4.2986	-0.0656	-4.3642	67.3862	99.9860	
   512	-6.2723	-1.0209	-7.2932	-5.6250	-0.5023	-6.1274	-4.3473	-0.1278	-4.4751	67.2558	99.9869	
   513	-6.2574	-1.0264	-7.2838	-5.5922	-0.4948	-6.0871	-4.3303	-0.1285	-4.4588	67.2555	99.9883	
   514	-6.2749	-1.0656	-7.3405	-5.6354	-0.5703	-6.2058	-4.4464	-0.1769	-4.6233	67.0908	99.9881	
   515	-6.4009	-1.1410	-7.5419	-5.7225	-0.7341	-6.4567	-4.5983	-0.2579	-4.8562	67.0508	99.9859	
   516	-6.6195	-1.2431	-7.8626	-5.9102	-0.8476	-6.7579	-4.8154	-0.2799	-5.0953	66.7112	99.9837	
   517	-6.8478	-1.2502	-8.0980	-6.1941	-0.8342	-7.0284	-5.2014	-0.1638	-5.3652	65.7309	99.9819	
   518	-6.8136	-0.7981	-7.6117	-6.0878	-0.1159	-6.2038	-4.7440	 0.3316	-4.4124	66.1597	99.9883	
   519	-6.1620	-0.4369	-6.5989	-5.4978	 0.1299	-5.3681	-4.3024	 0.6317	-3.6707	65.9503	99.9871	
   520	-5.5497	 0.1599	-5.3899	-4.7686	 0.6573	-4.1114	-3.4989	 1.1180	-2.3809	66.6142	99.9875	
   521	-5.3215	 0.1670	-5.1545	-4.6524	 0.6536	-3.9989	-3.4942	 1.0990	-2.3952	66.3262	99.9884	
   522	-4.8894	 0.5407	-4.3486	-4.1131	 1.0291	-3.0841	-2.8455	 1.4478	-1.3977	66.8159	99.9887	
   523	-4.5562	 0.6539	-3.9023	-3.9112	 1.0525	-2.8588	-2.7393	 1.4137	-1.3256	66.9452	99.9882	
   524	-4.5789	 0.6547	-3.9243	-3.9440	 1.0450	-2.8991	-2.8531	 1.4104	-1.4427	66.7407	99.9898	
   525	-4.6996	 0.5392	-4.1604	-4.1533	 0.8937	-3.2597	-3.1276	 1.2662	-1.8615	66.5362	99.9886	
   526	-4.9725	 0.4191	-4.5534	-4.3350	 0.7715	-3.5637	-3.1733	 1.1511	-2.0223	66.9922	99.9864	
   527	-4.7215	 0.4254	-4.2961	-4.0303	 0.7830	-3.2474	-2.9270	 1.1908	-1.7361	66.9896	99.9885	
   528	-4.5562	 0.6539	-3.9023	-3.8591	 1.0593	-2.7998	-2.5628	 1.4222	-1.1406	67.3092	99.9859	
   529	-4.2597	 0.9177	-3.3420	-3.5410	 1.3011	-2.2400	-2.2736	 1.6300	-0.6437	67.4287	99.9879	
   530	-3.8713	 1.0638	-2.8075	-3.1320	 1.4374	-1.6948	-2.0578	 1.7387	-0.3191	67.2682	99.9934	
   531	-3.7647	 0.9406	-2.8241	-3.1550	 1.1520	-2.0031	-2.1826	 1.3025	-0.8801	68.1218	99.9939	
   532	-4.7373	 0.1570	-4.5803	-4.3699	 0.3925	-3.9775	-3.5463	 0.6412	-2.9051	66.9301	99.9909	
   533	-6.0195	-0.4666	-6.4861	-5.6028	-0.0077	-5.6106	-4.5123	 0.3079	-4.2044	66.3719	99.9876	
   534	-6.3273	-0.5358	-6.8631	-5.6923	 0.0123	-5.6801	-4.5387	 0.3466	-4.1921	66.4973	99.9916	
   535	-6.3973	-0.4338	-6.8311	-5.7936	 0.0497	-5.7440	-4.6807	 0.3481	-4.3325	66.5839	99.9916	
   536	-6.4594	-0.8451	-7.3045	-5.9052	-0.3140	-6.2193	-4.6594	-0.0107	-4.6701	66.9234	99.9880	
   537	-6.2845	-0.8411	-7.1257	-5.7204	-0.3626	-6.0831	-4.5708	-0.0554	-4.6263	67.0107	99.9896	
   538	-6.0177	-0.5663	-6.5841	-5.4635	-0.0591	-5.5227	-4.3140	 0.2968	-4.0173	66.5823	99.9889	
   539	-5.5393	-0.1792	-5.7185	-4.9629	 0.2066	-4.7564	-3.9064	 0.5981	-3.3083	66.6659	99.9882	
   540	-4.9734	 0.4041	-4.5692	-4.3120	 0.8348	-3.4773	-2.9915	 1.2611	-1.7304	66.9428	99.9826	
   541	-3.8538	 1.1031	-2.7508	-3.2877	 1.4296	-1.8583	-2.1839	 1.7171	-0.4669	67.1515	99.9891	
   542	-3.0876	 1.7344	-1.3533	-2.5251	 2.0883	-0.4369	-1.6433	 2.3940	 0.7507	66.3250	99.9943	
   543	-2.5147	 2.1780	-0.3367	-1.9001	 2.4910	 0.5907	-1.2164	 2.7399	 1.5235	66.2839	99.9982	
   544	-2.1631	 2.4748	 0.3117	-1.5478	 2.7657	 1.2178	-0.9220	 2.9399	 2.0180	66.4481	99.9991	
   545	-2.1045	 2.5675	 0.4630	-1.5270	 2.7907	 1.2636	-0.9847	 2.9347	 1.9500	66.4910	99.9993	
   546	-2.2672	 2.3837	 0.1165	-1.8234	 2.5867	 0.7632	-1.3243	 2.7401	 1.4158	66.2015	99.9988	
   547	-2.7833	 2.0029	-0.7803	-2.5482	 2.1360	-0.4123	-1.9108	 2.2759	 0.3651	66.4127	99.9940	
   548	-3.8031	 1.1910	-2.6121	-3.7779	 1.2318	-2.5462	-3.1371	 1.4135	-1.7236	66.2870	99.9863	
   549	-5.0565	 0.4120	-4.6445	-5.0092	 0.5241	-4.4852	-4.2485	 0.7955	-3.4530	65.9809	99.9811	
   550	-5.7990	-0.0757	-5.8747	-5.7154	 0.1710	-5.5445	-4.8080	 0.4132	-4.3948	66.0245	99.9820	
   551	-6.1865	-0.3364	-6.5229	-5.9895	 0.0176	-5.9721	-4.9734	 0.2912	-4.6821	66.0262	99.9832	
   552	-6.3063	-0.4369	-6.7432	-6.0156	-0.0969	-6.1126	-5.0068	 0.1945	-4.8123	66.2436	99.9848	
   553	-6.3457	-0.4605	-6.8061	-5.9947	-0.0719	-6.0667	-4.9399	 0.2787	-4.6612	66.0712	99.9841	
   554	-6.3334	-0.5107	-6.8441	-5.8964	-0.0495	-5.9459	-4.8771	 0.2839	-4.5933	66.0288	99.9894	
   555	-6.5136	-0.6042	-7.1178	-6.0491	-0.1172	-6.1663	-5.0807	 0.1935	-4.8872	65.9419	99.9922	
   556	-6.8573	-0.7667	-7.6241	-6.3232	-0.2706	-6.5939	-5.3452	 0.1318	-5.2135	65.6840	99.9912	
   557	-6.9824	-0.8272	-7.8096	-6.4096	-0.3105	-6.7203	-5.3171	 0.1269	-5.1901	65.8158	99.9885	
   558	-6.8512	-0.6624	-7.5135	-6.2100	-0.1034	-6.3136	-5.0361	 0.2860	-4.7501	66.1163	99.9900	
   559	-6.3579	-0.4102	-6.7681	-5.7303	 0.1373	-5.5930	-4.6279	 0.4894	-4.1385	66.1588	99.9922	
   560	-5.8882	-0.1723	-6.0605	-5.2610	 0.3102	-4.9509	-4.3810	 0.7590	-3.6220	65.5650	99.9938	
   561	-5.5523	 0.2446	-5.3077	-4.8931	 0.7424	-4.1508	-3.7570	 1.1804	-2.5766	66.0349	99.9892	
   562	-4.9244	 0.5917	-4.3326	-4.3270	 1.0232	-3.3039	-3.3811	 1.4188	-1.9623	65.9086	99.9925	
   563	-4.2491	 1.2262	-3.0229	-3.5762	 1.6993	-1.8770	-2.4873	 2.0035	-0.4838	66.4071	99.9936	
   564	-3.5520	 1.7154	-1.8366	-2.8886	 2.0658	-0.8229	-2.1800	 2.2332	 0.0532	66.4511	99.9989	
   565	-3.1567	 1.9808	-1.1759	-2.5676	 2.3587	-0.2090	-1.9360	 2.4464	 0.5104	66.2849	99.9989	
   566	-2.8611	 2.1002	-0.7609	-2.3687	 2.4420	 0.0731	-1.8692	 2.5306	 0.6614	65.9500	99.9991	
   567	-2.8401	 2.1991	-0.6410	-2.3516	 2.5140	 0.1623	-1.8534	 2.6167	 0.7633	65.9082	99.9992	
   568	-2.8243	 2.2085	-0.6158	-2.3919	 2.4897	 0.0977	-1.8721	 2.5835	 0.7113	65.9914	99.9990	
   569	-2.9861	 2.0397	-0.9464	-2.6630	 2.2764	-0.3867	-2.0821	 2.3690	 0.2869	66.1168	99.9977	
   570	-3.5258	 1.6447	-1.8810	-3.2663	 1.8004	-1.4660	-2.5366	 1.9300	-0.6066	66.5412	99.9930	
   571	-4.2141	 1.1752	-3.0390	-4.0126	 1.3120	-2.7008	-3.3330	 1.5791	-1.7540	65.8567	99.9888	
   572	-4.9086	 0.7307	-4.1779	-4.7419	 0.8956	-3.8464	-3.9166	 1.1713	-2.7453	65.9844	99.9838	
   573	-5.5602	 0.3694	-5.1908	-5.3423	 0.5818	-4.7606	-4.5489	 0.9198	-3.6291	65.5487	99.9849	
   574	-6.0430	 0.0372	-6.0057	-5.8883	 0.3132	-5.5752	-4.9635	 0.5923	-4.3712	65.7200	99.9828	
   575	-6.5100	-0.2855	-6.7955	-6.3233	 0.0625	-6.2610	-5.3910	 0.3445	-5.0465	65.5431	99.9851	
   576	-6.6771	-0.4143	-7.0914	-6.3829	-0.0723	-6.4553	-5.4344	 0.2745	-5.1599	65.6332	99.9848	
   577	-6.6299	-0.5155	-7.1454	-6.3419	-0.1462	-6.4882	-5.3699	 0.2043	-5.1656	65.6776	99.9846	
   578	-6.6640	-0.5791	-7.2431	-6.3054	-0.1858	-6.4912	-5.3083	 0.1869	-5.1214	65.7668	99.9854	
   579	-6.6474	-0.5548	-7.2022	-6.2689	-0.1144	-6.3833	-5.2485	 0.2450	-5.0035	65.7251	99.9868	
   580	-6.7829	-0.5352	-7.3181	-6.3382	-0.0822	-6.4205	-5.2361	 0.2634	-4.9728	65.9856	99.9867	
   581	-6.6028	-0.4417	-7.0445	-6.1125	 0.0173	-6.0953	-5.0003	 0.3186	-4.6817	66.2865	99.9889	
   582	-6.6483	-0.5697	-7.2180	-6.2651	-0.1615	-6.4267	-5.3153	 0.1608	-5.1545	65.8528	99.9893	
   583	-7.0576	-0.6852	-7.7428	-6.6272	-0.2694	-6.8967	-5.6285	 0.1461	-5.4824	65.5502	99.9861	
   584	-7.0768	-0.7543	-7.8311	-6.6614	-0.4135	-7.0750	-5.7194	 0.0364	-5.6830	65.5903	99.9841	
   585	-7.2439	-0.8830	-8.1269	-6.7731	-0.5551	-7.3283	-5.8561	 0.0302	-5.8259	65.2007	99.9802	
   586	-7.1905	-0.8799	-8.0704	-6.7485	-0.5772	-7.3258	-5.8420	-0.0268	-5.8688	65.3720	99.9805	
   587	-7.2605	-0.9074	-8.1679	-6.7813	-0.5847	-7.3661	-5.8584	-0.0149	-5.8733	65.3307	99.9808	
   588	-7.2010	-0.9293	-8.1304	-6.7500	-0.6028	-7.3529	-5.8367	-0.0345	-5.8713	65.2862	99.9805	
   589	-7.1932	-0.9246	-8.1178	-6.7239	-0.5994	-7.3234	-5.8314	-0.0423	-5.8737	65.3294	99.9822	
   590	-7.2640	-0.9670	-8.2311	-6.7977	-0.6440	-7.4417	-5.8901	-0.0778	-5.9679	65.3291	99.9811	
   591	-7.2938	-0.9561	-8.2498	-6.8237	-0.6474	-7.4712	-5.9306	-0.0913	-6.0219	65.3714	99.9816	
   592	-7.3480	-0.9741	-8.3221	-6.8371	-0.6555	-7.4927	-5.9294	-0.0688	-5.9982	65.3304	99.9812	
   593	-7.3182	-0.9851	-8.3033	-6.8245	-0.6602	-7.4848	-5.9188	-0.0842	-6.0031	65.3297	99.9815	
   594	-7.3873	-0.9977	-8.3850	-6.8774	-0.6798	-7.5573	-5.9822	-0.1007	-6.0829	65.3291	99.9819	
   595	-7.4862	-0.9993	-8.4854	-6.9429	-0.6948	-7.6378	-6.0344	-0.1214	-6.1558	65.4600	99.9821	
   596	-7.5789	-1.0260	-8.6049	-7.0226	-0.7307	-7.7534	-6.1153	-0.1485	-6.2638	65.4594	99.9818	
   597	-7.6401	-1.0339	-8.6740	-7.0495	-0.7469	-7.7964	-6.1441	-0.1550	-6.2990	65.5035	99.9820	
   598	-7.6794	-1.0574	-8.7369	-7.1150	-0.7619	-7.8770	-6.2192	-0.1785	-6.3977	65.4147	99.9823	
   599	-7.7415	-1.0802	-8.8217	-7.1672	-0.7687	-7.9360	-6.2356	-0.1666	-6.4022	65.3729	99.9811	
   600	-7.7022	-1.0567	-8.7588	-7.0889	-0.7584	-7.8475	-6.1558	-0.1621	-6.3179	65.5482	99.9819	
   601	-7.6558	-1.0433	-8.6991	-7.0360	-0.7388	-7.7749	-6.1030	-0.1301	-6.2331	65.5058	99.9817	
   602	-7.5867	-1.0307	-8.6174	-6.9958	-0.7145	-7.7104	-6.0573	-0.1243	-6.1816	65.5056	99.9820	
   603	-7.5474	-1.0072	-8.5545	-6.9482	-0.6733	-7.6215	-5.9875	-0.0930	-6.0805	65.5504	99.9826	
   604	-7.4634	-1.0001	-8.4635	-6.8893	-0.6624	-7.5518	-5.9570	-0.0527	-6.0096	65.3335	99.9817	
   605	-7.3926	-0.9577	-8.3502	-6.8454	-0.5741	-7.4196	-5.8843	 0.0351	-5.8492	65.1628	99.9817	
   606	-7.2797	-0.8469	-8.1267	-6.7597	-0.4359	-7.1958	-5.7611	 0.1096	-5.6515	65.2938	99.9833	
   607	-7.2246	-0.6845	-7.9091	-6.7338	-0.2104	-6.9443	-5.6556	 0.2828	-5.3728	65.2547	99.9840	
   608	-6.8459	-0.3139	-7.1597	-6.3130	 0.2415	-6.0716	-5.1049	 0.7144	-4.3905	65.3118	99.9841	
   609	-6.1453	 0.2350	-5.9103	-5.5435	 0.6822	-4.8614	-4.4070	 1.1368	-3.2702	65.6968	99.9860	
   610	-5.1797	 0.8993	-4.2803	-4.4977	 1.3148	-3.1830	-3.3665	 1.7009	-1.6656	66.2016	99.9896	
   611	-4.2622	 1.3910	-2.8712	-3.6187	 1.8587	-1.7601	-2.5032	 2.1360	-0.3672	66.3660	99.9930	
   612	-3.5476	 1.9195	-1.6282	-2.8880	 2.3007	-0.5874	-2.0340	 2.5292	 0.4952	66.2429	99.9973	
   613	-2.8243	 2.3380	-0.4863	-2.1409	 2.6909	 0.5499	-1.5009	 2.8409	 1.3400	66.2429	99.9993	
   614	-2.4928	 2.5509	 0.0580	-1.8466	 2.8565	 1.0098	-1.3244	 2.9587	 1.6343	66.2430	99.9993	
   615	-2.3450	 2.7401	 0.3951	-1.6694	 3.0131	 1.3436	-1.1080	 3.0788	 1.9708	66.5727	99.9993	
   616	-2.1805	 2.8241	 0.6435	-1.5621	 3.0779	 1.5158	-1.0141	 3.1356	 2.1214	66.5319	99.9993	
   617	-2.1351	 2.8225	 0.6875	-1.5502	 3.0605	 1.5102	-1.0276	 3.0946	 2.0670	66.5742	99.9993	
   618	-2.1902	 2.7896	 0.5994	-1.6246	 3.0031	 1.3783	-1.1948	 3.0481	 1.8533	66.3681	99.9994	
   619	-2.3004	 2.7236	 0.4232	-1.7774	 2.9354	 1.1579	-1.3954	 3.0141	 1.6187	66.0343	99.9996	
   620	-2.3459	 2.7251	 0.3793	-1.8235	 2.9198	 1.0962	-1.4247	 2.9964	 1.5717	66.1179	99.9996	
   621	-2.3537	 2.7204	 0.3667	-1.8496	 2.9164	 1.0667	-1.4699	 3.0018	 1.5320	65.9921	99.9996	
   622	-2.4071	 2.7173	 0.3102	-1.9211	 2.9101	 0.9889	-1.5385	 2.9931	 1.4546	65.9499	99.9996	
   623	-2.4456	 2.7086	 0.2631	-1.9673	 2.8945	 0.9271	-1.6071	 2.9843	 1.3772	65.8655	99.9997	
   624	-2.4692	 2.6945	 0.2253	-1.9621	 2.8730	 0.9108	-1.6142	 2.9582	 1.3441	65.9494	99.9997	
   625	-2.4482	 2.6639	 0.2157	-2.0023	 2.8487	 0.8463	-1.6447	 2.9179	 1.2733	65.9067	99.9996	
   626	-2.4788	 2.6600	 0.1812	-2.0411	 2.8499	 0.8088	-1.6670	 2.9263	 1.2593	65.8647	99.9996	
   627	-2.5391	 2.6670	 0.1279	-2.0873	 2.8343	 0.7470	-1.7297	 2.9211	 1.1914	65.8644	99.9997	
   628	-2.5540	 2.6725	 0.1185	-2.1119	 2.8565	 0.7445	-1.7280	 2.9549	 1.2270	65.7807	99.9996	
   629	-2.5216	 2.7063	 0.1846	-2.0448	 2.8970	 0.8521	-1.6459	 3.0046	 1.3588	65.8240	99.9996	
   630	-2.4901	 2.7251	 0.2349	-2.0366	 2.9267	 0.8899	-1.5831	 3.0098	 1.4267	65.9502	99.9994	
   631	-2.5278	 2.7314	 0.2036	-2.0508	 2.9058	 0.8549	-1.6335	 3.0230	 1.3895	65.8662	99.9995	
   632	-2.5575	 2.7423	 0.1849	-2.0694	 2.9192	 0.8497	-1.6335	 3.0230	 1.3895	65.9502	99.9995	
   633	-2.4718	 2.7793	 0.3075	-1.9763	 2.9632	 0.9868	-1.5010	 3.0595	 1.5585	66.0762	99.9994	
   634	-2.3703	 2.8256	 0.4553	-1.8839	 2.9943	 1.1103	-1.4253	 3.0944	 1.6691	66.0762	99.9994	
   635	-2.3686	 2.8554	 0.4869	-1.8638	 3.0065	 1.1426	-1.4071	 3.1163	 1.7092	66.1181	99.9994	
   636	-2.3624	 2.8303	 0.4679	-1.9286	 3.0043	 1.0756	-1.4476	 3.1027	 1.6551	65.9925	99.9991	
   637	-2.4001	 2.8366	 0.4365	-1.9353	 3.0003	 1.0648	-1.4752	 3.1189	 1.6437	65.9508	99.9992	
   638	-2.4070	 2.8468	 0.4397	-1.9346	 3.0131	 1.0784	-1.4858	 3.1343	 1.6486	65.9090	99.9993	
   639	-2.4202	 2.8821	 0.4619	-1.9383	 3.0602	 1.1217	-1.4564	 3.1521	 1.6956	66.0346	99.9993	
   640	-2.4254	 2.9221	 0.4967	-1.8914	 3.0885	 1.1970	-1.4089	 3.1917	 1.7828	66.1183	99.9995	
   641	-2.3336	 2.9339	 0.6004	-1.8005	 3.0942	 1.2935	-1.3186	 3.1808	 1.8622	66.2432	99.9995	
   642	-2.3196	 2.9135	 0.5939	-1.8266	 3.0907	 1.2640	-1.3309	 3.1625	 1.8316	66.2016	99.9993	
   643	-2.3887	 2.9009	 0.5123	-1.8996	 3.0589	 1.1592	-1.4230	 3.1395	 1.7165	66.1598	99.9994	
   644	-2.4341	 2.9025	 0.4684	-1.9443	 3.0689	 1.1245	-1.4506	 3.1556	 1.7050	66.1181	99.9993	
   645	-2.4333	 2.9174	 0.4841	-1.9242	 3.0810	 1.1568	-1.4259	 3.1924	 1.7664	66.0766	99.9992	
   646	-2.3843	 2.9755	 0.5912	-1.8676	 3.1646	 1.2969	-1.3039	 3.2444	 1.9404	66.2431	99.9991	
   647	-2.3213	 3.0132	 0.6919	-1.7953	 3.1837	 1.3882	-1.2465	 3.2573	 2.0108	66.3261	99.9992	
   648	-2.3038	 3.0525	 0.7486	-1.7678	 3.2127	 1.4448	-1.2330	 3.2982	 2.0652	66.2846	99.9992	
   649	-2.2723	 3.0713	 0.7990	-1.7350	 3.2202	 1.4851	-1.1714	 3.2809	 2.1095	66.4919	99.9991	
   650	-2.2417	 3.0752	 0.8335	-1.7223	 3.2155	 1.4930	-1.1667	 3.2618	 2.0952	66.5338	99.9991	
   651	-2.2820	 3.0368	 0.7548	-1.7700	 3.1743	 1.4042	-1.2482	 3.2234	 1.9752	66.4513	99.9993	
   652	-2.3362	 3.0187	 0.6825	-1.8430	 3.1425	 1.2994	-1.3104	 3.2295	 1.9191	66.3265	99.9989	
   653	-2.3668	 3.0148	 0.6480	-1.8817	 3.1437	 1.2619	-1.3104	 3.2295	 1.9191	66.3679	99.9985	
   654	-2.3965	 3.0257	 0.6292	-1.8817	 3.1437	 1.2619	-1.3039	 3.2444	 1.9404	66.4093	99.9985	
   655	-2.3817	 3.0203	 0.6386	-1.8810	 3.1565	 1.2754	-1.2922	 3.2515	 1.9592	66.3677	99.9985	
   656	-2.3729	 3.0399	 0.6670	-1.8862	 3.1780	 1.2917	-1.2805	 3.2586	 1.9781	66.4092	99.9983	
   657	-2.3633	 3.0744	 0.7111	-1.8073	 3.2011	 1.3938	-1.2048	 3.2934	 2.0886	66.5328	99.9987	
   658	-2.2802	 3.0666	 0.7864	-1.7559	 3.1952	 1.4392	-1.1438	 3.2648	 2.1209	66.6159	99.9986	
   659	-2.2811	 3.0517	 0.7706	-1.7506	 3.1737	 1.4230	-1.1608	 3.2654	 2.1046	66.5331	99.9986	
   660	-2.2898	 3.0321	 0.7422	-1.7774	 3.1575	 1.3799	-1.1843	 3.2512	 2.0669	66.4919	99.9985	
   661	-2.3283	 3.0234	 0.6951	-1.8236	 3.1419	 1.3181	-1.2083	 3.2257	 2.0174	66.5750	99.9982	
   662	-2.3440	 3.0140	 0.6699	-1.8370	 3.1338	 1.2966	-1.2312	 3.2228	 1.9916	66.5336	99.9983	
   663	-2.3510	 3.0242	 0.6731	-1.8624	 3.1431	 1.2806	-1.2312	 3.2228	 1.9916	66.5751	99.9980	
   664	-2.3659	 3.0297	 0.6638	-1.8810	 3.1565	 1.2754	-1.2646	 3.2353	 1.9707	66.4923	99.9982	
   665	-2.3799	 3.0501	 0.6702	-1.8803	 3.1693	 1.2889	-1.2470	 3.2460	 1.9990	66.5750	99.9981	
   666	-2.2959	 3.0572	 0.7612	-1.7894	 3.1749	 1.3855	-1.1503	 3.2499	 2.0997	66.6573	99.9981	
   667	-2.2496	 3.0705	 0.8209	-1.7439	 3.1777	 1.4337	-1.1209	 3.2677	 2.1467	66.6159	99.9980	
   668	-2.2566	 3.0807	 0.8241	-1.7559	 3.1952	 1.4392	-1.1209	 3.2677	 2.1467	66.6573	99.9981	
   669	-2.2566	 3.0807	 0.8241	-1.7492	 3.1993	 1.4500	-1.1374	 3.2796	 2.1422	66.5746	99.9983	
   670	-2.2784	 3.0964	 0.8180	-1.7551	 3.2080	 1.4528	-1.1432	 3.2760	 2.1328	66.6575	99.9985	
   671	-2.2933	 3.1019	 0.8086	-1.7805	 3.2173	 1.4368	-1.1708	 3.2921	 2.1213	66.5747	99.9984	
   672	-2.3082	 3.1074	 0.7992	-1.7864	 3.2261	 1.4396	-1.1937	 3.2892	 2.0955	66.5750	99.9987	
   673	-2.3458	 3.1137	 0.7679	-1.8185	 3.2314	 1.4128	-1.2113	 3.2786	 2.0673	66.6579	99.9987	
   674	-2.3300	 3.1231	 0.7931	-1.7857	 3.2389	 1.4531	-1.1814	 3.3076	 2.1262	66.6159	99.9987	
   675	-2.2609	 3.1357	 0.8747	-1.7268	 3.2498	 1.5229	-1.1239	 3.3205	 2.1967	66.6158	99.9986	
   676	-2.2295	 3.1545	 0.9251	-1.6873	 3.2613	 1.5739	-1.0893	 3.3306	 2.2413	66.6571	99.9987	
   677	-2.2146	 3.1490	 0.9344	-1.7000	 3.2660	 1.5659	-1.1169	 3.3467	 2.2298	66.4917	99.9986	
   678	-2.2146	 3.1490	 0.9344	-1.6873	 3.2613	 1.5739	-1.1169	 3.3467	 2.2298	66.4917	99.9988	
   679	-2.2434	 3.1749	 0.9315	-1.6993	 3.2788	 1.5794	-1.1169	 3.3467	 2.2298	66.6159	99.9988	
   680	-2.2583	 3.1804	 0.9221	-1.7246	 3.2881	 1.5634	-1.1620	 3.3521	 2.1901	66.5335	99.9990	
   681	-2.2811	 3.1812	 0.9001	-1.7507	 3.2847	 1.5339	-1.1908	 3.3456	 2.1549	66.5337	99.9990	
   682	-2.3265	 3.1827	 0.8562	-1.7708	 3.2725	 1.5017	-1.2031	 3.3273	 2.1242	66.6581	99.9990	
   683	-2.3038	 3.1820	 0.8782	-1.7440	 3.2888	 1.5447	-1.1509	 3.3479	 2.1970	66.6572	99.9989	
   684	-2.2128	 3.1789	 0.9660	-1.6605	 3.2775	 1.6169	-1.1051	 3.3538	 2.2486	66.5746	99.9990	
   685	-2.1971	 3.1883	 0.9912	-1.6657	 3.2991	 1.6332	-1.0993	 3.3573	 2.2580	66.5747	99.9990	
   686	-2.2128	 3.1789	 0.9660	-1.6732	 3.2822	 1.6089	-1.1110	 3.3502	 2.2392	66.5747	99.9990	
   687	-2.2128	 3.1789	 0.9660	-1.6732	 3.2822	 1.6089	-1.1216	 3.3657	 2.2441	66.4918	99.9990	
   688	-2.2128	 3.1789	 0.9660	-1.6739	 3.2694	 1.5954	-1.1116	 3.3389	 2.2273	66.6163	99.9989	
   689	-2.2286	 3.1694	 0.9409	-1.7127	 3.2707	 1.5579	-1.1515	 3.3366	 2.1852	66.5337	99.9988	
   690	-2.2513	 3.1702	 0.9189	-1.7253	 3.2754	 1.5499	-1.1632	 3.3295	 2.1664	66.5752	99.9990	
   691	-2.2662	 3.1757	 0.9095	-1.7320	 3.2713	 1.5392	-1.1691	 3.3260	 2.1569	66.6167	99.9990	
   692	-2.2277	 3.1843	 0.9566	-1.6739	 3.2694	 1.5954	-1.1174	 3.3354	 2.2179	66.6578	99.9990	
   693	-2.1744	 3.1875	 1.0131	-1.6210	 3.2891	 1.6680	-1.0875	 3.3644	 2.2769	66.5333	99.9992	
   694	-2.1289	 3.1859	 1.0571	-1.5756	 3.2919	 1.7162	-1.0588	 3.3709	 2.3121	66.4918	99.9993	
   695	-2.1280	 3.2009	 1.0729	-1.5622	 3.3000	 1.7377	-1.0805	 3.3905	 2.3100	66.4090	99.9995	
   696	-2.1429	 3.2064	 1.0635	-1.5883	 3.2966	 1.7082	-1.1045	 3.3650	 2.2605	66.4923	99.9995	
   697	-2.2111	 3.2087	 0.9976	-1.6643	 3.3246	 1.6603	-1.1614	 3.3634	 2.2020	66.4924	99.9995	
   698	-2.2417	 3.2047	 0.9631	-1.6911	 3.3084	 1.6172	-1.1743	 3.3337	 2.1594	66.6172	99.9994	
   699	-2.2802	 3.1961	 0.9159	-1.7373	 3.2928	 1.5555	-1.2430	 3.3250	 2.0820	66.5346	99.9995	
   700	-2.3195	 3.1725	 0.8530	-1.8095	 3.2738	 1.4642	-1.3521	 3.3027	 1.9506	66.3686	99.9995	
   701	-2.3738	 3.1545	 0.7807	-1.8319	 3.2233	 1.3913	-1.3773	 3.2546	 1.8774	66.5358	99.9996	
   702	-2.3624	 3.0893	 0.7269	-1.9198	 3.1578	 1.2379	-1.4324	 3.1775	 1.7452	66.4949	99.9991	
   703	-2.4490	 3.0375	 0.5885	-2.0196	 3.1097	 1.0901	-1.5186	 3.1582	 1.6395	66.3692	99.9987	
   704	-2.4831	 2.9739	 0.4908	-2.0941	 3.0523	 0.9582	-1.6060	 3.1162	 1.5102	66.2014	99.9985	
   705	-2.5898	 2.9676	 0.3778	-2.1745	 3.0037	 0.8291	-1.7045	 3.0784	 1.3739	66.2856	99.9985	
   706	-2.7708	 2.8592	 0.0884	-2.4263	 2.9008	 0.4744	-1.9092	 2.9655	 1.0562	66.2435	99.9975	
   707	-3.0228	 2.5789	-0.4438	-2.8807	 2.6506	-0.2302	-2.2952	 2.7538	 0.4586	65.7752	99.9934	
   708	-3.6114	 2.2554	-1.3560	-3.4736	 2.2426	-1.2310	-2.7332	 2.4121	-0.3211	66.1582	99.9853	
   709	-4.2437	 1.8337	-2.4101	-4.2014	 1.8518	-2.3496	-3.4124	 2.1322	-1.2802	65.5124	99.9771	
   710	-5.0773	 1.3491	-3.7281	-5.0520	 1.3497	-3.7025	-4.2734	 1.6330	-2.6404	65.4586	99.9756	
   711	-5.8968	 0.8442	-5.0526	-5.8975	 0.9370	-4.9606	-5.0693	 1.2934	-3.7759	64.8391	99.9722	
   712	-6.3542	 0.5560	-5.7983	-6.3243	 0.7159	-5.6086	-5.3584	 1.0857	-4.2728	64.9301	99.9691	
   713	-6.5860	 0.3597	-6.2264	-6.4495	 0.5662	-5.8834	-5.4370	 0.9944	-4.4426	64.9374	99.9696	
   714	-6.7032	 0.1744	-6.5288	-6.4546	 0.4766	-5.9781	-5.4458	 0.9344	-4.5114	64.8147	99.9757	
   715	-6.8694	 0.0605	-6.8089	-6.4889	 0.4436	-6.0454	-5.4141	 0.8880	-4.5261	65.0402	99.9806	
   716	-6.7636	 0.1814	-6.5821	-6.2408	 0.5936	-5.6473	-5.0581	 1.0707	-3.9874	65.3533	99.9805	
   717	-6.5012	 0.2522	-6.2490	-6.0605	 0.5793	-5.4814	-4.9349	 1.0359	-3.8990	65.5190	99.9782	
   718	-6.6298	 0.1320	-6.4978	-6.2609	 0.4704	-5.7906	-5.1185	 0.8921	-4.2264	65.5153	99.9773	
   719	-6.6840	 0.2435	-6.4405	-6.1284	 0.6370	-5.4915	-4.8117	 1.1105	-3.7012	65.8225	99.9761	
   720	-5.7219	 0.7186	-5.0033	-5.0497	 1.0549	-3.9948	-3.7079	 1.4725	-2.2354	66.6991	99.9795	
   721	-4.5630	 1.3116	-3.2514	-3.8638	 1.6488	-2.2151	-2.4949	 1.9661	-0.5288	67.3046	99.9837	
   722	-3.2362	 2.1778	-1.0584	-2.5371	 2.4389	-0.0984	-1.6803	 2.5575	 0.8772	67.1491	99.9978	
   723	-2.7220	 2.2698	-0.4522	-2.2294	 2.5016	 0.2720	-1.6973	 2.5581	 0.8608	66.4949	99.9992	
   724	-2.8418	 2.1693	-0.6725	-2.4686	 2.5050	 0.0363	-2.0094	 2.5660	 0.5566	65.6529	99.9989	
   725	-2.9345	 2.2721	-0.6624	-2.5618	 2.5720	 0.0102	-2.1033	 2.6185	 0.5152	65.6942	99.9989	
   726	-2.9712	 2.2933	-0.6780	-2.6206	 2.5611	-0.0596	-2.1508	 2.5788	 0.4280	65.8623	99.9988	
   727	-2.9904	 2.3537	-0.6368	-2.6467	 2.6687	 0.0219	-2.1497	 2.7107	 0.5610	65.5678	99.9987	
   728	-2.8251	 2.5821	-0.2430	-2.3547	 2.7960	 0.4411	-1.8968	 2.7653	 0.8684	66.3278	99.9989	
   729	-2.6502	 2.4566	-0.1936	-2.2146	 2.6463	 0.4316	-1.7959	 2.6296	 0.8337	66.4125	99.9991	
   730	-2.6651	 2.3326	-0.3325	-2.2682	 2.5028	 0.2345	-1.7695	 2.4817	 0.7122	66.7083	99.9990	
   731	-2.4596	 2.2110	-0.2486	-2.1295	 2.3275	 0.1979	-1.6040	 2.2758	 0.6718	67.1758	99.9986	
   732	-2.5025	 2.1278	-0.3747	-2.3128	 2.2907	-0.0222	-1.7172	 2.2838	 0.5666	66.7103	99.9967	
   733	-2.8716	 1.9212	-0.9504	-2.8759	 1.8391	-1.0369	-2.3019	 1.8534	-0.4485	67.0663	99.9901	
   734	-4.9611	 0.6129	-4.3482	-5.2685	 0.5154	-4.7532	-4.4966	 0.7219	-3.7747	66.1090	99.9634	
   735	-7.2849	-0.2889	-7.5738	-7.1415	 0.2340	-6.9076	-5.9473	 0.9042	-5.0432	63.4047	99.9614	
   736	-6.3420	 0.6352	-5.7067	-5.7639	 0.4502	-5.3139	-5.5055	 0.5485	-4.9570	66.9605	99.9991	
   737	-7.2989	-0.2685	-7.5674	-7.1094	 0.1176	-6.9919	-6.2757	 0.4868	-5.7889	64.3014	99.9862	
   738	-6.3735	 0.3574	-6.0161	-6.0270	 0.5995	-5.4276	-5.1771	 0.7473	-4.4298	66.1561	99.9923	
   739	-5.8645	 0.4894	-5.3751	-5.5264	 0.7543	-4.7722	-4.7730	 0.9809	-3.7921	65.6786	99.9930	
   740	-5.0380	 0.9842	-4.0538	-4.6527	 1.3197	-3.3330	-3.8241	 1.6426	-2.1814	65.3506	99.9914	
   741	-4.0076	 1.7160	-2.2916	-3.5301	 2.0480	-1.4822	-2.7449	 2.1865	-0.5584	66.1174	99.9969	
   742	-3.2353	 2.1927	-1.0427	-2.7607	 2.4887	-0.2720	-2.1525	 2.5450	 0.3924	66.1594	99.9987	
   743	-2.9319	 2.3168	-0.6151	-2.5476	 2.5929	 0.0452	-2.0382	 2.6688	 0.6306	65.7800	99.9989	
   744	-2.7569	 2.4503	-0.3066	-2.2772	 2.6824	 0.4052	-1.8517	 2.7598	 0.9082	65.9491	99.9995	
   745	-2.6564	 2.4817	-0.1746	-2.1856	 2.7009	 0.5152	-1.7948	 2.7615	 0.9667	65.9908	99.9995	
   746	-2.6555	 2.4966	-0.1588	-2.1528	 2.7083	 0.5555	-1.7549	 2.7638	 1.0089	66.1173	99.9995	
   747	-2.6196	 2.4605	-0.1591	-2.1744	 2.6706	 0.4961	-1.8024	 2.7241	 0.9217	65.9903	99.9995	
   748	-2.7771	 2.3663	-0.4108	-2.4321	 2.5764	 0.1442	-2.0176	 2.6266	 0.6090	65.8621	99.9992	
   749	-2.9555	 2.3027	-0.6528	-2.6087	 2.5436	-0.0651	-2.1385	 2.5972	 0.4587	65.8201	99.9989	
   750	-3.0176	 2.2799	-0.7377	-2.6750	 2.5159	-0.1592	-2.2094	 2.5433	 0.3339	65.9041	99.9989	
   751	-3.1374	 2.1794	-0.9580	-2.8545	 2.4320	-0.4226	-2.3461	 2.4278	 0.0818	65.9457	99.9984	
   752	-3.3010	 2.1103	-1.1907	-2.9640	 2.3287	-0.6354	-2.4628	 2.3681	-0.0947	65.9882	99.9987	
   753	-3.3779	 2.0930	-1.2849	-3.0109	 2.3004	-0.7107	-2.5091	 2.3510	-0.1581	66.0309	99.9988	
   754	-3.4234	 2.0945	-1.3289	-3.0370	 2.2969	-0.7402	-2.5150	 2.3475	-0.1675	66.1161	99.9987	
   755	-3.3700	 2.0977	-1.2724	-2.9901	 2.3253	-0.6649	-2.4622	 2.3794	-0.0828	66.0313	99.9987	
   756	-3.2397	 2.1181	-1.1216	-2.8903	 2.3733	-0.5170	-2.3578	 2.4207	 0.0629	65.9467	99.9986	
   757	-3.1794	 2.1111	-1.0683	-2.8515	 2.3721	-0.4795	-2.3132	 2.4040	 0.0908	65.9891	99.9985	
   758	-3.2021	 2.1119	-1.0903	-2.8515	 2.3721	-0.4795	-2.3185	 2.4117	 0.0932	65.9892	99.9986	
   759	-3.1864	 2.1213	-1.0651	-2.8374	 2.3930	-0.4445	-2.3003	 2.4337	 0.1333	65.9470	99.9986	
   760	-3.1698	 2.1456	-1.0241	-2.7971	 2.4173	-0.3799	-2.2763	 2.4591	 0.1829	65.9472	99.9987	
   761	-3.1085	 2.1535	-0.9551	-2.7636	 2.4376	-0.3261	-2.2417	 2.4691	 0.2275	65.9048	99.9986	
   762	-3.1392	 2.1496	-0.9896	-2.7964	 2.4301	-0.3664	-2.2651	 2.4549	 0.1898	65.9470	99.9986	
   763	-3.1864	 2.1213	-1.0651	-2.8582	 2.3680	-0.4903	-2.3754	 2.4101	 0.0347	65.8609	99.9988	
   764	-3.3045	 2.0506	-1.2539	-2.9275	 2.2891	-0.6384	-2.4123	 2.3549	-0.0574	65.9890	99.9988	
   765	-3.3447	 2.0121	-1.3326	-2.9312	 2.2252	-0.7061	-2.4029	 2.3169	-0.0860	66.1164	99.9987	
   766	-3.2983	 2.0255	-1.2729	-2.8895	 2.2751	-0.6145	-2.3038	 2.3660	 0.0621	66.1168	99.9984	
   767	-3.0963	 2.1033	-0.9930	-2.6951	 2.3927	-0.3025	-2.1003	 2.4563	 0.3560	66.1172	99.9985	
   768	-2.9275	 2.1324	-0.7952	-2.5639	 2.4226	-0.1414	-2.0369	 2.4728	 0.4359	65.9903	99.9987	
   769	-2.9756	 2.0892	-0.8865	-2.6310	 2.3821	-0.2490	-2.1067	 2.4415	 0.3348	65.9054	99.9986	
   770	-3.1532	 2.0405	-1.1127	-2.8053	 2.2767	-0.5287	-2.2815	 2.3576	 0.0761	65.9892	99.9985	
   771	-3.3709	 1.9533	-1.4177	-2.9669	 2.1666	-0.8005	-2.4223	 2.2724	-0.1499	66.1164	99.9985	
   772	-3.5432	 1.8645	-1.6787	-3.0973	 2.0384	-1.0590	-2.4756	 2.1199	-0.3557	66.6247	99.9980	
   773	-3.6920	 1.6604	-2.0316	-3.2753	 1.8690	-1.4063	-2.6521	 2.0021	-0.6500	66.3284	99.9974	
   774	-3.7444	 1.5426	-2.2018	-3.3430	 1.8157	-1.5275	-2.6773	 1.9541	-0.7233	66.2012	99.9972	
   775	-3.7654	 1.5732	-2.1922	-3.3088	 1.8487	-1.4601	-2.6240	 1.9973	-0.6267	66.2857	99.9974	
   776	-3.6981	 1.6855	-2.0126	-3.1747	 1.9298	-1.2450	-2.4680	 2.0480	-0.4200	66.6642	99.9978	
   777	-3.5249	 1.7892	-1.7357	-3.0212	 2.0103	-1.0110	-2.3800	 2.1012	-0.2788	66.6652	99.9984	
   778	-3.5179	 1.7790	-1.7389	-3.0294	 1.9807	-1.0488	-2.4046	 2.0645	-0.3401	66.7083	99.9984	
   779	-3.6474	 1.6439	-2.0034	-3.2305	 1.8590	-1.3716	-2.6257	 1.9634	-0.6623	66.4134	99.9980	
   780	-3.8686	 1.4971	-2.3716	-3.5561	 1.8225	-1.7337	-2.8504	 1.9040	-0.9464	66.0736	99.9967	
   781	-3.8520	 1.5214	-2.3306	-3.4645	 1.8409	-1.6237	-2.7730	 1.9727	-0.8003	66.0319	99.9971	
   782	-3.7313	 1.6368	-2.0945	-3.2350	 1.8933	-1.3418	-2.5659	 2.0215	-0.5444	66.4544	99.9980	
   783	-3.6438	 1.7036	-1.9403	-3.1412	 1.9501	-1.1912	-2.4509	 2.0474	-0.4036	66.6648	99.9980	
   784	-3.5809	 1.7413	-1.8396	-3.0741	 1.9907	-1.0836	-2.4093	 2.0835	-0.3258	66.6226	99.9983	
   785	-3.5415	 1.7648	-1.7767	-3.0332	 2.0278	-1.0055	-2.4017	 2.1209	-0.2808	66.4963	99.9986	
   786	-3.5013	 1.8033	-1.6980	-2.9989	 2.0608	-0.9382	-2.3835	 2.1428	-0.2407	66.4965	99.9987	
   787	-3.4523	 1.8614	-1.5909	-2.9230	 2.1438	-0.7793	-2.3489	 2.2621	-0.0868	66.2014	99.9991	
   788	-3.2957	 1.9407	-1.3550	-2.8082	 2.2255	-0.5828	-2.2551	 2.3189	 0.0638	66.1592	99.9990	
   789	-3.1803	 1.9667	-1.2136	-2.7338	 2.2829	-0.4510	-2.1448	 2.3638	 0.2189	66.1173	99.9987	
   790	-3.1182	 1.9894	-1.1288	-2.6682	 2.2979	-0.3704	-2.0991	 2.3696	 0.2705	66.1593	99.9988	
   791	-3.0649	 1.9926	-1.0722	-2.6220	 2.3135	-0.3086	-2.0698	 2.3874	 0.3176	66.0752	99.9989	
   792	-3.0351	 1.9816	-1.0535	-2.5974	 2.2913	-0.3062	-2.0651	 2.3683	 0.3033	66.0750	99.9989	
   793	-3.0596	 1.9526	-1.1070	-2.6384	 2.2542	-0.3843	-2.1237	 2.3328	 0.2091	66.0325	99.9990	
   794	-3.2162	 1.8733	-1.3429	-2.7799	 2.1563	-0.6237	-2.2645	 2.2477	-0.0168	66.0745	99.9990	
   795	-3.2853	 1.8607	-1.4246	-2.8060	 2.1529	-0.6532	-2.2692	 2.2667	-0.0025	66.0749	99.9991	
   796	-3.1514	 1.9408	-1.2107	-2.6838	 2.2514	-0.4325	-2.1237	 2.3328	 0.2091	66.1593	99.9989	
   797	-3.0211	 1.9612	-1.0599	-2.6049	 2.2745	-0.3305	-2.0785	 2.3274	 0.2488	66.1170	99.9988	
   798	-3.0937	 1.8890	-1.2047	-2.6682	 2.1869	-0.4814	-2.1501	 2.2622	 0.1121	66.1168	99.9990	
   799	-3.1348	 1.8356	-1.2992	-2.7158	 2.1457	-0.5702	-2.1853	 2.2409	 0.0557	66.0325	99.9989	
   800	-3.0937	 1.8890	-1.2047	-2.6540	 2.2077	-0.4464	-2.0862	 2.2900	 0.2038	66.1593	99.9988	
   801	-3.0544	 1.9125	-1.1418	-2.6265	 2.2368	-0.3898	-2.0797	 2.3048	 0.2251	66.1171	99.9988	
   802	-3.0771	 1.9133	-1.1638	-2.6339	 2.2199	-0.4141	-2.1026	 2.3019	 0.1993	66.1171	99.9990	
   803	-3.1086	 1.8945	-1.2141	-2.6793	 2.2171	-0.4623	-2.1360	 2.3145	 0.1784	65.9907	99.9989	
   804	-3.0517	 1.9573	-1.0945	-2.5974	 2.2913	-0.3062	-2.0592	 2.3719	 0.3127	66.0332	99.9989	
   805	-3.0124	 1.9808	-1.0315	-2.5460	 2.2854	-0.2607	-2.0539	 2.3642	 0.3102	66.0750	99.9991	
   806	-3.0605	 1.9377	-1.1228	-2.6257	 2.2495	-0.3763	-2.1126	 2.3287	 0.2161	66.0327	99.9990	
   807	-3.0509	 1.9722	-1.0787	-2.6034	 2.3001	-0.3034	-2.0651	 2.3683	 0.3033	66.0751	99.9989	
   808	-2.9730	 2.0044	-0.9686	-2.5483	 2.3581	-0.1903	-2.0047	 2.4377	 0.4330	65.9072	99.9988	
   809	-2.8707	 2.0657	-0.8050	-2.4149	 2.4264	 0.0114	-1.8803	 2.5348	 0.6545	65.8245	99.9990	
   810	-2.8252	 2.0641	-0.7611	-2.4425	 2.3974	-0.0452	-1.9454	 2.4845	 0.5390	65.7803	99.9989	
   811	-2.9249	 2.0476	-0.8773	-2.5401	 2.3877	-0.1525	-2.0194	 2.4835	 0.4641	65.7384	99.9988	
   812	-3.0063	 1.9557	-1.0505	-2.6615	 2.1909	-0.4706	-2.1747	 2.2255	 0.0508	66.2436	99.9988	
   813	-3.7970	 1.2954	-2.5016	-3.6446	 1.4112	-2.2336	-3.2403	 1.5040	-1.7363	65.9820	99.9972	
   814	-4.6095	 0.9097	-3.6997	-4.3411	 1.1133	-3.2280	-3.7688	 1.2826	-2.4862	65.8967	99.9958	
   815	-4.7319	 0.7645	-3.9674	-4.4439	 1.0141	-3.4299	-3.8192	 1.1865	-2.6327	65.9407	99.9957	
   816	-4.5981	 0.8446	-3.7535	-4.2383	 1.1014	-3.1370	-3.6655	 1.1920	-2.4735	66.2868	99.9981	
   817	-4.6016	 0.7849	-3.8167	-4.2867	 1.0475	-3.2393	-3.7606	 1.2220	-2.5386	65.7672	99.9975	
   818	-4.5771	 0.8140	-3.7631	-4.3389	 1.0406	-3.2984	-3.8251	 1.1829	-2.6422	65.8082	99.9970	
   819	-4.8535	 0.7637	-4.0898	-4.5609	 1.0051	-3.5559	-3.8779	 1.2603	-2.6176	65.7262	99.9929	
   820	-5.0853	 0.5674	-4.5179	-4.8298	 0.8301	-3.9998	-4.0098	 1.1258	-2.8841	65.7703	99.9880	
   821	-5.3249	 0.3664	-4.9586	-5.0093	 0.6351	-4.3742	-4.1201	 0.9716	-3.1485	65.9432	99.9861	
   822	-5.5287	 0.2588	-5.2700	-5.1389	 0.5197	-4.6192	-4.2597	 0.9090	-3.3507	65.9006	99.9860	
   823	-5.5882	 0.1512	-5.4370	-5.2022	 0.4321	-4.7702	-4.2978	 0.8313	-3.4665	65.9007	99.9853	
   824	-5.6599	 0.0939	-5.5661	-5.2319	 0.3647	-4.8673	-4.3230	 0.7832	-3.5398	65.9867	99.9851	
   825	-5.7028	 0.0107	-5.6921	-5.3198	 0.2992	-5.0207	-4.3775	 0.7174	-3.6601	65.9436	99.9835	
   826	-5.7562	 0.0075	-5.7486	-5.3139	 0.2905	-5.0235	-4.3722	 0.7097	-3.6625	66.0725	99.9848	
   827	-5.7325	 0.0217	-5.7109	-5.2871	 0.3067	-4.9804	-4.3265	 0.7155	-3.6110	66.1581	99.9847	
   828	-5.7142	-0.0537	-5.7679	-5.3109	 0.2306	-5.0803	-4.4003	 0.6052	-3.7951	66.1577	99.9864	
   829	-5.7833	-0.1958	-5.9791	-5.4628	 0.1757	-5.2872	-4.4883	 0.5520	-3.9363	65.8570	99.9847	
   830	-5.7815	-0.1660	-5.9475	-5.4427	 0.1879	-5.2549	-4.4602	 0.5472	-3.9130	66.0289	99.9851	
   831	-5.7544	-0.2217	-5.9761	-5.4263	 0.1361	-5.2903	-4.4566	 0.5056	-3.9511	65.9858	99.9849	
   832	-5.7501	-0.2766	-6.0267	-5.4360	 0.0809	-5.3552	-4.4595	 0.4492	-4.0104	66.0286	99.9844	
   833	-5.7658	-0.2860	-6.0519	-5.4546	 0.0943	-5.3604	-4.4531	 0.4640	-3.9891	65.9859	99.9841	
   834	-5.8043	-0.2947	-6.0990	-5.5135	 0.0834	-5.4302	-4.4889	 0.4314	-4.0575	66.0716	99.9835	
   835	-5.9451	-0.3646	-6.3097	-5.6908	 0.0379	-5.6530	-4.6179	 0.3533	-4.2646	66.1144	99.9828	
   836	-6.0483	-0.4408	-6.4891	-5.7720	-0.0236	-5.7956	-4.6713	 0.3101	-4.3612	66.1146	99.9822	
   837	-6.1419	-0.4824	-6.6243	-5.8263	-0.0688	-5.8952	-4.6906	 0.2656	-4.4250	66.2866	99.9818	
   838	-6.2119	-0.5099	-6.7218	-5.8613	-0.1147	-5.9761	-4.7264	 0.2330	-4.4934	66.3724	99.9818	
   839	-6.2206	-0.5295	-6.7501	-5.8427	-0.1281	-5.9709	-4.6929	 0.2205	-4.4725	66.4579	99.9822	
   840	-6.1839	-0.5507	-6.7346	-5.8054	-0.1549	-5.9604	-4.6595	 0.2079	-4.4516	66.4578	99.9816	
   841	-6.1699	-0.5711	-6.7410	-5.7868	-0.1683	-5.9552	-4.6272	 0.1728	-4.4544	66.5862	99.9823	
   842	-6.1962	-0.6300	-6.8261	-5.8099	-0.2316	-6.0416	-4.6765	 0.0993	-4.5772	66.6299	99.9834	
   843	-6.2845	-0.7116	-6.9961	-5.8799	-0.3233	-6.2033	-4.7615	-0.0069	-4.7683	66.7597	99.9846	
   844	-6.3282	-0.8097	-7.1380	-5.9059	-0.4378	-6.3438	-4.8119	-0.1030	-4.9149	66.8034	99.9847	
   845	-6.3694	-0.8631	-7.2325	-5.9282	-0.4883	-6.4166	-4.8483	-0.1468	-4.9951	66.8036	99.9854	
   846	-6.3869	-0.9024	-7.2892	-5.9498	-0.5260	-6.4760	-4.8834	-0.1681	-5.0516	66.7178	99.9852	
   847	-6.3886	-0.9322	-7.3208	-5.9401	-0.5819	-6.5221	-4.8846	-0.1907	-5.0753	66.7178	99.9839	
   848	-6.3580	-0.9283	-7.2863	-5.9006	-0.5703	-6.4711	-4.8224	-0.1968	-5.0192	66.8463	99.9842	
   849	-6.3055	-0.9400	-7.2456	-5.8559	-0.5803	-6.4363	-4.7884	-0.1980	-4.9864	66.8032	99.9841	
   850	-6.2907	-0.9455	-7.2362	-5.8433	-0.5850	-6.4283	-4.7667	-0.2177	-4.9844	66.8893	99.9844	
   851	-6.2767	-0.9659	-7.2426	-5.8380	-0.6065	-6.4446	-4.7784	-0.2248	-5.0032	66.8036	99.9841	
   852	-6.2924	-0.9753	-7.2678	-5.8328	-0.6280	-6.4609	-4.7790	-0.2361	-5.0151	66.8465	99.9841	
   853	-6.2854	-0.9855	-7.2710	-5.8209	-0.6455	-6.4665	-4.7849	-0.2396	-5.0245	66.8036	99.9841	
   854	-6.2933	-0.9903	-7.2836	-5.8216	-0.6583	-6.4800	-4.7855	-0.2509	-5.0364	66.8467	99.9839	
   855	-6.3082	-0.9848	-7.2929	-5.8343	-0.6536	-6.4880	-4.7796	-0.2474	-5.0270	66.8893	99.9834	
   856	-6.3003	-0.9801	-7.2803	-5.8201	-0.6327	-6.4529	-4.7508	-0.2409	-4.9917	66.9317	99.9841	
   857	-6.2321	-0.9824	-7.2145	-5.7673	-0.6130	-6.3804	-4.6992	-0.2315	-4.9308	66.8885	99.9848	
   858	-6.2085	-0.9683	-7.1767	-5.7345	-0.6056	-6.3401	-4.6599	-0.2405	-4.9004	67.0172	99.9852	
   859	-6.1936	-0.9737	-7.1673	-5.7218	-0.6102	-6.3321	-4.6376	-0.2489	-4.8865	67.0599	99.9850	
   860	-6.1857	-0.9690	-7.1548	-5.7211	-0.5974	-6.3186	-4.6259	-0.2418	-4.8677	67.0596	99.9849	
   861	-6.2006	-0.9635	-7.1641	-5.7330	-0.5800	-6.3131	-4.6259	-0.2418	-4.8677	67.1023	99.9856	
   862	-6.1866	-0.9839	-7.1705	-5.7091	-0.6149	-6.3241	-4.6318	-0.2453	-4.8771	67.0167	99.9852	
   863	-6.2015	-0.9785	-7.1799	-5.7218	-0.6102	-6.3321	-4.6265	-0.2531	-4.8796	67.1023	99.9851	
   864	-6.2172	-0.9879	-7.2051	-5.7352	-0.6183	-6.3537	-4.6435	-0.2524	-4.8959	67.0594	99.9850	
   865	-6.1866	-0.9839	-7.1705	-5.6950	-0.5940	-6.2891	-4.5807	-0.2473	-4.8280	67.1437	99.9858	
   866	-6.1411	-0.9855	-7.1266	-5.6495	-0.5912	-6.2408	-4.5356	-0.2527	-4.7883	67.1863	99.9862	
   867	-6.1333	-0.9808	-7.1140	-5.6428	-0.5872	-6.2301	-4.5185	-0.2533	-4.7719	67.2288	99.9860	
   868	-6.1254	-0.9761	-7.1015	-5.6294	-0.5790	-6.2086	-4.5121	-0.2385	-4.7506	67.1856	99.9862	
   869	-6.1096	-0.9667	-7.0763	-5.6160	-0.5709	-6.1871	-4.4892	-0.2356	-4.7248	67.2281	99.9860	
   870	-6.1096	-0.9667	-7.0763	-5.6153	-0.5581	-6.1735	-4.4945	-0.2279	-4.7224	67.1853	99.9867	
   871	-6.1096	-0.9667	-7.0763	-5.6220	-0.5622	-6.1843	-4.4892	-0.2356	-4.7248	67.2281	99.9862	
   872	-6.1175	-0.9714	-7.0889	-5.6287	-0.5663	-6.1950	-4.5056	-0.2237	-4.7293	67.1425	99.9860	
   873	-6.1096	-0.9667	-7.0763	-5.6212	-0.5494	-6.1708	-4.4881	-0.2130	-4.7011	67.1419	99.9862	
   874	-6.0712	-0.9580	-7.0292	-5.5691	-0.5425	-6.1117	-4.4253	-0.2078	-4.6331	67.2261	99.9862	
   875	-6.0406	-0.9541	-6.9946	-5.5490	-0.5304	-6.0795	-4.3965	-0.2014	-4.5979	67.2258	99.9861	
   876	-6.0248	-0.9446	-6.9695	-5.5423	-0.5263	-6.0687	-4.3795	-0.2020	-4.5815	67.2685	99.9856	
   877	-6.0327	-0.9494	-6.9820	-5.5423	-0.5263	-6.0687	-4.3854	-0.2056	-4.5910	67.2685	99.9862	
   878	-6.0327	-0.9494	-6.9820	-5.5482	-0.5176	-6.0659	-4.3795	-0.2020	-4.5815	67.2682	99.9861	
   879	-6.0248	-0.9446	-6.9695	-5.5415	-0.5135	-6.0552	-4.3848	-0.1943	-4.5791	67.2258	99.9863	
   880	-6.0327	-0.9494	-6.9820	-5.5542	-0.5089	-6.0632	-4.3907	-0.1978	-4.5885	67.2258	99.9865	
   881	-6.0397	-0.9392	-6.9788	-5.5602	-0.5001	-6.0604	-4.3960	-0.1901	-4.5861	67.2258	99.9865	
   882	-6.0161	-0.9250	-6.9411	-5.5393	-0.4752	-6.0146	-4.3443	-0.1807	-4.5251	67.3098	99.9863	
   883	-5.9697	-0.9117	-6.8814	-5.4872	-0.4683	-5.9556	-4.3092	-0.1594	-4.4686	67.2668	99.9863	
   884	-5.9470	-0.9124	-6.8594	-5.4551	-0.4736	-5.9288	-4.3033	-0.1559	-4.4592	67.2245	99.9869	
   885	-5.9382	-0.8928	-6.8310	-5.4469	-0.4440	-5.8910	-4.2745	-0.1494	-4.4239	67.3091	99.9872	
   886	-5.8989	-0.8693	-6.7681	-5.4134	-0.4237	-5.8372	-4.2558	-0.1162	-4.3720	67.2238	99.9871	
   887	-5.8665	-0.8355	-6.7020	-5.3732	-0.3994	-5.7727	-4.2312	-0.0794	-4.3106	67.1809	99.9871	
   888	-5.7799	-0.7837	-6.5636	-5.3233	-0.3199	-5.6433	-4.1755	 0.0089	-4.1665	66.9671	99.9866	
   889	-5.6478	-0.7334	-6.3812	-5.2287	-0.2503	-5.4791	-4.0992	 0.0551	-4.0441	66.8824	99.9874	
   890	-5.6636	-0.7428	-6.4064	-5.2481	-0.2497	-5.4979	-4.1215	 0.0635	-4.0581	66.7972	99.9874	
   891	-5.5779	-0.7059	-6.2838	-5.1110	-0.2285	-5.3396	-4.0112	 0.1083	-3.9029	66.8384	99.9883	
   892	-5.5158	-0.6831	-6.1989	-5.0507	-0.1920	-5.2427	-3.9561	 0.1854	-3.7707	66.6251	99.9876	
   893	-5.2534	-0.4829	-5.7363	-4.7005	-0.0666	-4.7672	-3.5631	 0.3139	-3.2492	67.1695	99.9865	
   894	-5.0295	-0.2913	-5.3208	-4.4950	 0.1318	-4.3633	-3.3350	 0.5504	-2.7847	66.9554	99.9844	
   895	-4.6875	-0.0290	-4.7165	-4.1337	 0.3380	-3.7959	-3.0576	 0.7510	-2.3066	66.9965	99.9862	
   896	-4.4443	 0.1021	-4.3422	-3.8723	 0.4961	-3.3763	-2.8577	 0.8830	-1.9746	66.9117	99.9898	
   897	-4.2309	 0.1148	-4.1162	-3.7836	 0.4633	-3.3203	-2.8958	 0.8053	-2.0905	66.7921	99.9908	
   898	-4.3009	 0.0873	-4.2137	-3.8111	 0.4343	-3.3769	-3.0178	 0.7533	-2.2644	66.7518	99.9941	
   899	-4.2327	 0.0849	-4.1478	-3.7716	 0.4459	-3.3259	-2.9855	 0.7182	-2.2673	66.8376	99.9950	
   900	-4.1811	 0.0583	-4.1228	-3.7545	 0.4069	-3.3477	-3.0383	 0.6863	-2.3520	66.6696	99.9954	
   901	-4.3193	 0.0331	-4.2862	-3.8752	 0.3339	-3.5414	-3.1374	 0.6372	-2.5002	66.7978	99.9941	
   902	-4.6149	-0.0863	-4.7012	-4.2454	 0.1964	-4.0492	-3.3315	 0.5088	-2.8227	67.0109	99.9878	
   903	-4.9438	-0.3839	-5.3277	-4.6231	-0.0691	-4.6922	-3.6617	 0.2762	-3.3855	66.8426	99.9848	
   904	-5.3785	-0.6729	-6.0513	-5.0693	-0.2896	-5.3589	-4.0423	 0.0567	-3.9856	66.7154	99.9841	
   905	-5.7493	-0.9092	-6.6586	-5.4380	-0.5126	-5.9507	-4.3215	-0.1778	-4.4993	66.9310	99.9818	
   906	-6.0126	-1.1244	-7.1370	-5.5653	-0.8117	-6.3771	-4.4950	-0.3484	-4.8435	67.0164	99.9792	
   907	-6.1587	-1.2838	-7.4424	-5.6591	-0.9795	-6.6387	-4.6458	-0.4069	-5.0527	66.6729	99.9773	
   908	-6.2453	-1.3356	-7.5809	-5.7000	-1.0166	-6.7168	-4.6868	-0.4317	-5.1186	66.6723	99.9786	
   909	-6.2610	-1.3450	-7.6060	-5.7127	-1.0119	-6.7247	-4.6874	-0.4430	-5.1304	66.7150	99.9795	
   910	-6.2750	-1.3246	-7.5996	-5.6993	-1.0038	-6.7032	-4.6763	-0.4472	-5.1235	66.8434	99.9805	
   911	-6.3432	-1.3223	-7.6655	-5.7641	-1.0060	-6.7702	-4.7619	-0.4553	-5.2172	66.8015	99.9814	
   912	-6.4202	-1.3396	-7.7597	-5.8036	-1.0176	-6.8213	-4.8135	-0.4647	-5.2782	66.8013	99.9829	
   913	-6.4438	-1.3537	-7.7975	-5.8297	-1.0210	-6.8508	-4.8599	-0.4818	-5.3417	66.7591	99.9844	
   914	-6.4814	-1.3474	-7.8288	-5.8751	-1.0238	-6.8990	-4.9232	-0.4983	-5.4215	66.7602	99.9850	
   915	-6.5365	-1.3804	-7.9169	-5.9556	-1.0725	-7.0281	-5.0106	-0.5402	-5.5508	66.7182	99.9838	
   916	-6.5916	-1.4134	-8.0050	-5.9965	-1.1096	-7.1062	-5.0059	-0.5592	-5.5651	66.8034	99.9817	
   917	-6.5811	-1.3640	-7.9450	-5.9742	-1.0590	-7.0333	-4.9977	-0.5106	-5.5083	66.7602	99.9826	
   918	-6.6581	-1.5108	-8.1688	-6.1619	-1.2836	-7.4456	-5.1577	-0.8588	-6.0166	67.4623	99.9812	
   919	-7.1418	-1.8578	-8.9996	-6.5708	-1.5309	-8.1019	-5.4128	-1.0679	-6.4807	67.4986	99.9794	
   920	-7.1601	-1.7825	-8.9426	-6.5046	-1.3922	-7.8968	-5.2938	-0.8537	-6.1476	67.1863	99.9789	
   921	-6.7438	-1.4182	-8.1619	-6.0152	-0.9851	-7.0004	-4.7103	-0.4459	-5.1562	67.2991	99.9794	
   922	-5.8824	-1.4925	-7.3748	-5.7231	-1.1910	-6.9141	-4.6240	-0.7544	-5.3783	66.9829	99.9693	
   923	-6.7194	-1.9072	-8.6265	-6.3212	-1.6884	-8.0097	-5.3735	-1.2954	-6.6689	67.6077	99.9814	
   924	-7.0167	-2.0564	-9.0731	-6.4992	-1.8578	-8.3570	-5.5494	-1.4019	-6.9513	67.6927	99.9810	
   925	-6.9914	-2.0124	-9.0038	-6.3629	-1.7383	-8.1013	-5.3248	-1.3425	-6.6672	68.0713	99.9860	
   926	-6.8506	-1.9425	-8.7931	-6.2258	-1.6061	-7.8320	-5.2075	-1.2715	-6.4789	68.0259	99.9901	
   927	-6.6196	-1.7611	-8.3808	-6.0143	-1.4165	-7.4309	-5.1993	-1.1135	-6.3128	67.5556	99.9952	
   928	-6.9966	-1.8429	-8.8395	-6.3562	-1.5122	-7.8686	-5.3582	-1.2206	-6.5789	68.0302	99.9920	
   929	-7.1706	-1.9615	-9.1321	-6.5090	-1.5799	-8.0890	-5.5043	-1.1888	-6.6931	67.5037	99.9905	
   930	-6.4132	-1.3498	-7.7630	-5.6502	-0.8261	-6.4763	-4.4194	-0.3136	-4.7330	67.0845	99.9866	
   931	-5.7642	-1.1628	-6.9270	-5.4148	-0.7824	-6.1973	-4.5226	-0.4416	-4.9642	66.7642	99.9889	
   932	-6.2706	-1.3796	-7.6502	-5.5480	-1.0727	-6.6209	-4.3847	-0.6314	-5.0161	68.0723	99.9840	
   933	-5.7704	-1.5262	-7.2966	-5.3527	-1.2755	-6.6283	-4.4209	-1.0031	-5.4241	68.1603	99.9882	
   934	-5.8202	-1.3402	-7.1604	-5.2642	-0.9751	-6.2394	-4.0978	-0.5781	-4.6759	67.8617	99.9832	
   935	-5.3725	-1.3455	-6.7180	-5.0629	-1.1866	-6.2496	-4.1787	-0.8238	-5.0025	67.8569	99.9809	
   936	-5.6707	-1.3801	-7.0509	-5.1516	-1.1538	-6.3055	-4.1388	-0.7122	-4.8510	67.9195	99.9811	
   937	-5.5588	-1.4139	-6.9726	-5.1166	-1.2190	-6.3357	-4.1728	-0.8202	-4.9931	67.9748	99.9822	
   938	-5.8474	-1.5435	-7.3909	-5.3438	-1.3441	-6.6879	-4.4057	-0.9283	-5.3340	67.9766	99.9833	
   939	-6.1500	-1.6527	-7.8027	-5.5881	-1.4302	-7.0184	-4.6186	-1.0900	-5.7085	68.3269	99.9872	
   940	-6.3993	-1.7587	-8.1580	-5.8459	-1.5244	-7.3703	-4.8303	-1.2290	-6.0593	68.5067	99.9875	
   941	-6.8724	-1.9268	-8.7992	-6.3733	-1.5843	-7.9577	-5.3013	-1.2190	-6.5203	67.6810	99.9849	
   942	-7.1514	-2.0219	-9.1733	-6.5655	-1.7745	-8.3401	-5.5084	-1.3771	-6.8854	68.0338	99.9834	
   943	-7.3018	-2.1263	-9.4282	-6.7607	-1.9049	-8.6657	-5.6949	-1.4681	-7.1630	67.9085	99.9791	
   944	-7.4881	-2.1947	-9.6828	-6.9193	-1.9639	-8.8833	-5.8274	-1.5046	-7.3320	67.8635	99.9782	
   945	-7.5931	-2.1712	-9.7642	-6.9730	-1.8853	-8.8584	-5.8621	-1.4053	-7.2674	67.6388	99.9801	
   946	-7.6000	-2.0315	-9.6315	-6.9284	-1.6732	-8.6017	-5.7325	-1.2067	-6.9392	67.5842	99.9817	
   947	-7.1137	-1.6396	-8.7534	-6.3273	-1.2356	-7.5630	-5.1695	-0.7566	-5.9261	67.4394	99.9869	
   948	-6.6030	-1.6073	-8.2103	-6.0836	-1.3843	-7.4680	-5.0944	-0.9516	-6.0460	67.5924	99.9819	
   949	-6.4508	-1.6025	-8.0534	-5.8802	-1.4464	-7.3267	-4.9206	-1.2181	-6.1388	68.8247	99.9896	
   950	-6.7272	-1.9119	-8.6391	-6.2549	-1.6607	-7.9156	-5.1711	-1.3369	-6.5080	68.2530	99.9827	
   951	-6.5882	-1.8718	-8.4600	-6.1297	-1.6220	-7.7518	-5.0508	-1.3188	-6.3696	68.3397	99.9833	
   952	-6.6231	-1.8208	-8.4439	-6.0880	-1.5721	-7.6602	-4.9746	-1.2726	-6.2472	68.5479	99.9842	
   953	-6.6074	-1.8114	-8.4188	-6.0023	-1.5450	-7.5474	-4.8760	-1.2349	-6.1109	68.6244	99.9857	
   954	-6.6660	-1.9040	-8.5700	-6.0433	-1.5821	-7.6255	-4.9757	-1.2952	-6.2710	68.4556	99.9899	
   955	-7.0928	-1.9293	-9.0220	-6.4501	-1.5690	-8.0192	-5.5113	-1.2149	-6.7263	67.5525	99.9923	
   956	-7.2642	-2.0031	-9.2673	-6.6579	-1.8057	-8.4637	-5.7383	-1.4288	-7.1671	67.9599	99.9874	
   957	-7.0420	-1.7118	-8.7538	-6.2349	-1.3154	-7.5504	-5.0604	-0.8436	-5.9040	67.6938	99.9869	
   958	-6.0931	-1.4603	-7.5535	-5.5509	-1.2349	-6.7860	-4.6791	-0.8315	-5.5105	67.6336	99.9875	
   959	-6.6931	-1.5893	-8.2823	-6.1485	-1.2755	-7.4241	-5.1038	-0.9136	-6.0173	67.6317	99.9863	
   960	-6.3756	-1.7446	-8.1202	-5.9219	-1.4963	-7.4183	-4.7986	-1.1662	-5.9648	68.3283	99.9806	
   961	-6.3442	-1.8552	-8.1994	-5.9755	-1.6398	-7.6153	-4.9505	-1.3565	-6.3069	68.3497	99.9824	
   962	-6.5576	-1.8679	-8.4254	-6.0388	-1.6164	-7.6553	-4.9194	-1.3049	-6.2243	68.5471	99.9832	
   963	-6.5672	-1.7729	-8.3401	-5.8943	-1.4673	-7.3617	-4.7717	-1.0843	-5.8559	68.3079	99.9860	
   964	-6.2418	-1.5350	-7.7768	-5.4832	-1.1816	-6.6649	-4.5213	-0.7469	-5.2682	67.6987	99.9918	
   965	-6.6441	-1.7902	-8.4343	-5.9190	-1.3341	-7.2532	-5.0486	-1.0551	-6.1036	67.6303	99.9974	
   966	-6.9677	-1.8688	-8.8365	-6.3242	-1.5175	-7.8418	-5.3424	-1.2438	-6.5862	68.0308	99.9932	
   967	-6.9450	-1.7400	-8.6850	-6.1455	-1.3354	-7.4809	-5.0228	-0.8865	-5.9093	67.6967	99.9892	
   968	-6.2689	-1.4792	-7.7481	-5.5860	-1.1697	-6.7558	-4.7002	-0.6912	-5.3915	67.2769	99.9898	
   969	-6.4980	-1.3718	-7.8698	-5.7552	-0.9636	-6.7189	-4.6053	-0.5026	-5.1079	67.4750	99.9871	
   970	-6.0643	-1.6157	-7.6800	-5.6097	-1.4679	-7.0777	-4.8121	-1.0978	-5.9100	67.8679	99.9866	
   971	-6.3853	-1.7791	-8.1644	-5.8353	-1.7895	-7.6249	-5.1065	-1.5164	-6.6229	68.9511	99.9895	
   972	-6.9345	-2.0791	-9.0136	-6.3926	-1.9167	-8.3094	-5.4092	-1.5466	-6.9557	68.3966	99.9830	
   973	-7.0211	-2.0014	-9.0225	-6.3033	-1.7146	-8.0180	-5.1722	-1.3595	-6.5317	68.5787	99.9871	
   974	-6.6669	-1.7894	-8.4563	-5.9406	-1.3719	-7.3125	-4.8784	-1.0614	-5.9399	68.0934	99.9932	
   975	-6.6984	-1.9378	-8.6361	-6.0650	-1.3977	-7.4628	-5.1360	-1.0970	-6.2330	67.2402	99.9961	
   976	-7.4094	-2.0180	-9.4274	-6.6467	-1.7249	-8.3718	-5.7371	-1.4062	-7.1433	68.0819	99.9945	
   977	-7.4068	-1.9733	-9.3801	-6.5678	-1.5908	-8.1587	-5.4251	-1.1955	-6.6206	68.0928	99.9904	
   978	-6.4526	-1.5028	-7.9554	-5.7201	-1.1398	-6.8600	-4.7366	-0.6258	-5.3625	67.1847	99.9885	
   979	-6.5479	-1.4448	-7.9927	-5.9310	-1.0946	-7.0257	-4.9560	-0.5837	-5.5397	66.8461	99.9859	
   980	-6.3485	-1.5413	-7.8898	-5.6723	-1.4317	-7.1041	-4.7693	-1.2577	-6.0270	69.3480	99.9934	
   981	-6.8296	-2.1026	-8.9322	-6.3875	-1.7162	-8.1037	-5.1956	-1.5922	-6.7879	68.8239	99.9884	
   982	-7.1129	-2.1427	-9.2557	-6.5714	-1.9879	-8.5593	-5.5552	-1.6240	-7.1792	68.4876	99.9818	
   983	-7.1637	-2.1012	-9.2648	-6.4619	-1.8846	-8.3466	-5.4180	-1.4973	-6.9152	68.5090	99.9861	
   984	-6.8951	-1.7965	-8.6917	-6.1238	-1.4087	-7.5326	-5.0573	-1.1150	-6.1724	68.2690	99.9937	
   985	-6.8645	-1.9221	-8.7867	-6.1469	-1.4720	-7.6190	-5.2808	-1.1519	-6.4328	67.4602	99.9968	
   986	-7.1925	-1.9458	-9.1383	-6.5544	-1.6937	-8.2482	-5.6920	-1.4117	-7.1036	68.0498	99.9936	
   987	-7.5484	-2.0581	-9.6066	-6.7570	-1.7299	-8.4870	-5.6421	-1.3269	-6.9690	68.1047	99.9886	
   988	-6.7919	-1.7204	-8.5123	-6.1246	-1.4215	-7.5461	-5.0966	-1.1060	-6.2027	68.1946	99.9905	
   989	-7.0674	-1.7558	-8.8232	-6.3570	-1.4140	-7.7711	-5.2386	-1.1045	-6.3431	68.2312	99.9901	
   990	-6.5366	-1.8985	-8.4350	-6.0462	-1.7443	-7.7906	-5.0977	-1.3472	-6.4449	68.1721	99.9815	
   991	-6.7439	-2.0657	-8.8096	-6.2577	-1.9339	-8.1917	-5.3305	-1.5646	-6.8951	68.3598	99.9825	
   992	-6.9643	-2.0681	-9.0324	-6.3345	-1.9186	-8.2532	-5.3235	-1.5385	-6.8620	68.6496	99.9836	
   993	-6.9293	-1.9896	-8.9189	-6.2138	-1.7346	-7.9485	-5.0789	-1.4233	-6.5022	68.9276	99.9876	
   994	-6.8698	-1.8821	-8.7519	-6.1059	-1.5459	-7.6519	-5.0139	-1.2636	-6.2775	68.6603	99.9924	
   995	-7.1759	-2.0509	-9.2268	-6.4799	-1.6364	-8.1163	-5.5723	-1.2955	-6.8679	67.5084	99.9950	
   996	-7.5948	-2.0715	-9.6663	-6.8002	-1.8054	-8.6057	-5.8779	-1.4914	-7.3693	68.2598	99.9943	
   997	-7.7767	-2.1948	-9.9715	-6.9931	-1.8974	-8.8906	-5.9055	-1.4753	-7.3808	68.0707	99.9876	
   998	-6.9065	-1.7314	-8.6379	-6.0836	-1.3843	-7.4680	-4.9565	-1.0321	-5.9886	68.3867	99.9911	
   999	-6.6424	-1.7604	-8.4027	-6.1596	-1.4673	-7.6270	-5.2357	-1.1574	-6.3930	67.6898	99.9895	
  1000	-6.5654	-1.4840	-8.0494	-5.9510	-1.2178	-7.1689	-4.9008	-0.8345	-5.7353	67.8849	99.9857	
  1001	-6.6905	-1.9330	-8.6236	-6.1878	-1.6201	-7.8080	-5.0168	-1.4293	-6.4461	68.8569	99.9870	
  1002	-6.8147	-2.1081	-8.9228	-6.4149	-1.9673	-8.3823	-5.5030	-1.6034	-7.1064	68.1047	99.9811	
  1003	-7.1960	-2.1349	-9.3310	-6.6675	-1.9719	-8.6395	-5.6508	-1.6054	-7.2562	68.3577	99.9816	
  1004	-7.2432	-2.0337	-9.2769	-6.5193	-1.7589	-8.2783	-5.4468	-1.3944	-6.8412	68.3725	99.9882	
  1005	-6.9336	-1.8052	-8.7388	-6.1864	-1.3725	-7.5590	-5.1864	-1.0838	-6.2703	67.8860	99.9953	
  1006	-7.1199	-2.0030	-9.1230	-6.3607	-1.5889	-7.9497	-5.5524	-1.2398	-6.7922	67.3779	99.9973	
  1007	-7.5073	-2.0047	-9.5121	-6.8002	-1.6944	-8.4947	-5.9477	-1.4134	-7.3611	67.8289	99.9957	
  1008	-7.8196	-2.1485	-9.9680	-7.0371	-1.8747	-8.9118	-5.9565	-1.4734	-7.4299	68.1610	99.9879	
  1009	-7.0552	-1.8060	-8.8612	-6.3272	-1.4576	-7.7849	-5.2315	-1.1877	-6.4192	68.4071	99.9921	
  1010	-7.1155	-1.7990	-8.9145	-6.5135	-1.4346	-7.9482	-5.5073	-1.0266	-6.5339	67.2436	99.9884	
  1011	-6.7351	-1.6576	-8.3926	-6.0359	-1.4542	-7.4902	-4.9265	-1.3310	-6.2574	69.5910	99.9922	
  1012	-6.6407	-1.9895	-8.6302	-6.2749	-1.8949	-8.1699	-5.4379	-1.4438	-6.8817	67.6623	99.9771	
  1013	-7.0902	-2.1435	-9.2337	-6.6161	-1.9779	-8.5941	-5.6643	-1.6463	-7.3106	68.2793	99.9839	
  1014	-7.3674	-2.2088	-9.5762	-6.8671	-2.0680	-8.9353	-5.8919	-1.7622	-7.6541	68.5069	99.9840	
  1015	-7.5633	-2.1821	-9.7455	-6.9208	-1.9894	-8.9103	-5.9599	-1.6504	-7.6103	68.3171	99.9881	
  1016	-7.6420	-2.0998	-9.7418	-6.8970	-1.8023	-8.6994	-5.9800	-1.3783	-7.3583	67.5569	99.9913	
  1017	-7.5038	-2.0746	-9.5784	-6.7369	-1.7178	-8.4548	-5.9495	-1.3380	-7.2875	67.2966	99.9964	
  1018	-7.8502	-2.1524	-10.0026	-7.1637	-1.9389	-9.1027	-6.3418	-1.6738	-8.0156	68.1117	99.9948	
  1019	-8.1441	-2.3715	-10.5156	-7.4364	-2.0668	-9.5033	-6.3823	-1.7967	-8.1789	68.3606	99.9916	
  1020	-7.8764	-2.2113	-10.0877	-7.0929	-1.9455	-9.0385	-6.0597	-1.6014	-7.6611	68.3454	99.9908	
  1021	-7.6884	-2.1131	-9.8015	-6.9715	-1.8597	-8.8313	-5.9811	-1.5102	-7.4913	68.1302	99.9901	
  1022	-7.7094	-2.0825	-9.7919	-7.0334	-1.8107	-8.8442	-6.0392	-1.4251	-7.4643	67.7790	99.9885	
  1023	-7.6490	-1.9600	-9.6090	-6.9716	-1.7487	-8.7203	-5.9976	-1.3890	-7.3865	68.0015	99.9884	
  1024	-7.6175	-2.0707	-9.6882	-6.9775	-1.8510	-8.8285	-5.9506	-1.4698	-7.4205	68.0436	99.9854	
  1025	-7.3735	-2.0541	-9.4277	-6.7592	-1.8793	-8.6386	-5.7312	-1.5120	-7.2432	68.3512	99.9839	
  1026	-7.2835	-2.0722	-9.3556	-6.6884	-1.8859	-8.5744	-5.6743	-1.5103	-7.1846	68.2633	99.9839	
  1027	-7.2354	-2.0290	-9.2643	-6.5491	-1.8263	-8.3755	-5.5177	-1.4483	-6.9660	68.4263	99.9861	
  1028	-7.1715	-1.9764	-9.1479	-6.4396	-1.7231	-8.1628	-5.3500	-1.3905	-6.7405	68.6317	99.9884	
  1029	-7.0989	-1.9041	-9.0030	-6.3234	-1.6158	-7.9393	-5.1646	-1.3221	-6.4867	68.8771	99.9896	
  1030	-7.0193	-1.8421	-8.8614	-6.2162	-1.5509	-7.7671	-5.0649	-1.2617	-6.3267	68.9148	99.9906	
  1031	-7.0884	-1.8547	-8.9431	-6.2676	-1.5450	-7.8126	-5.1095	-1.2450	-6.3545	68.8260	99.9908	
  1032	-7.0630	-1.8107	-8.8738	-6.2244	-1.4695	-7.6940	-5.0702	-1.1447	-6.2150	68.6043	99.9913	
  1033	-6.9729	-1.6992	-8.6722	-6.1522	-1.3394	-7.4917	-5.0081	-1.0415	-6.0496	68.5176	99.9923	
  1034	-7.0123	-1.8523	-8.8646	-6.4590	-1.6114	-8.0705	-5.6257	-1.3388	-6.9645	67.8780	99.9929	
  1035	-7.9245	-2.1250	-10.0495	-7.1868	-1.8912	-9.0781	-6.1700	-1.5370	-7.7070	68.1761	99.9892	
  1036	-7.7688	-1.9310	-9.6998	-6.9217	-1.5581	-8.4799	-5.7108	-1.1170	-6.8279	67.8765	99.9870	
  1037	-6.5758	-1.2745	-7.8503	-5.9207	-0.6935	-6.6143	-4.7520	-0.2635	-5.0155	66.6253	99.9898	
  1038	-5.2333	-0.5284	-5.7617	-4.6468	-0.2562	-4.9031	-3.6252	-0.1171	-3.7423	68.5496	99.9933	
  1039	-6.2943	-1.5232	-7.8175	-5.8177	-1.2605	-7.0783	-4.8902	-0.9592	-5.8495	67.8149	99.9889	
  1040	-5.5464	-0.8166	-6.3630	-4.6610	-0.2771	-4.9382	-3.4198	-0.2115	-3.6313	69.0455	99.9963	
  1041	-5.1363	-0.8156	-5.9519	-4.7971	-0.7296	-5.5269	-4.5067	-0.5741	-5.0808	67.2714	99.9989	
  1042	-7.1977	-1.6467	-8.8444	-6.8339	-1.2705	-8.1046	-5.6923	-0.5374	-6.2296	65.4656	99.9606	
  1043	-6.2173	-1.6354	-7.8527	-6.5969	-1.5344	-8.1314	-5.9207	-1.4408	-7.3615	66.7960	99.9773	
  1044	-7.5283	-1.7151	-9.2434	-6.9456	-1.5232	-8.4688	-6.0463	-1.2326	-7.2790	67.7917	99.9902	
  1045	-7.0876	-1.9693	-9.0568	-6.9730	-1.9963	-8.9693	-6.3306	-1.8966	-8.2272	68.2678	99.9877	
  1046	-7.6385	-2.1696	-9.8082	-7.1979	-2.0830	-9.2810	-6.3171	-1.8556	-8.1727	68.4911	99.9868	
  1047	-7.7444	-2.1610	-9.9054	-7.2278	-2.0393	-9.2672	-6.3013	-1.7695	-8.0709	68.3877	99.9867	
  1048	-7.7854	-2.0849	-9.8703	-7.1824	-1.9255	-9.1080	-6.2451	-1.5606	-7.8057	67.9717	99.9860	
  1049	-7.6280	-1.9906	-9.6187	-7.0252	-1.6701	-8.6954	-6.2100	-1.3207	-7.5307	67.0839	99.9936	
  1050	-7.8808	-2.0268	-9.9076	-7.2733	-1.8201	-9.0935	-6.3284	-1.5236	-7.8520	67.9729	99.9896	
  1051	-8.0986	-2.2435	-10.3421	-7.4520	-2.0022	-9.4544	-6.4468	-1.7264	-8.1732	68.2377	99.9902	
  1052	-7.5764	-1.7583	-9.3347	-6.7698	-1.3922	-8.1621	-5.6686	-0.9603	-6.6290	67.5370	99.9894	
  1053	-6.6703	-1.3310	-8.0013	-6.0964	-1.0466	-7.1431	-5.2188	-0.6116	-5.8304	66.8957	99.9886	
  1054	-6.9825	-1.3453	-8.3277	-6.4161	-0.9808	-7.3969	-5.4441	-0.4637	-5.9079	66.2869	99.9849	
  1055	-6.4717	-1.0539	-7.5256	-5.8790	-0.7546	-6.6337	-4.8229	-0.4266	-5.2496	67.5788	99.9880	
  1056	-6.7271	-1.3938	-8.1210	-6.2573	-1.1439	-7.4013	-5.1636	-0.8624	-6.0260	67.9424	99.9840	
  1057	-6.4919	-1.5264	-8.0183	-6.2795	-1.4165	-7.6961	-5.3864	-1.2158	-6.6022	68.0276	99.9827	
  1058	-7.1593	-1.8971	-9.0563	-6.8151	-1.7281	-8.5433	-5.8503	-1.3982	-7.2486	67.7092	99.9801	
  1059	-7.3009	-1.9819	-9.2828	-6.8859	-1.8325	-8.7185	-5.9406	-1.4966	-7.4372	67.8875	99.9818	
  1060	-7.5948	-2.0715	-9.6663	-7.0848	-1.9158	-9.0007	-6.1277	-1.5989	-7.7266	68.1092	99.9848	
  1061	-7.8554	-2.1124	-9.9678	-7.2613	-1.9486	-9.2100	-6.2896	-1.6531	-7.9428	68.2856	99.9874	
  1062	-8.0023	-2.1572	-10.1595	-7.3604	-1.9838	-9.3443	-6.3776	-1.7064	-8.0840	68.4181	99.9890	
  1063	-7.9988	-2.0975	-10.0964	-7.3045	-1.9130	-9.2177	-6.3155	-1.6032	-7.9186	68.3207	99.9892	
  1064	-7.7330	-1.9671	-9.7001	-7.1019	-1.7658	-8.8679	-6.1648	-1.4355	-7.6002	67.9227	99.9891	
  1065	-7.6761	-1.9043	-9.5804	-7.1348	-1.6623	-8.7971	-6.1848	-1.2727	-7.4574	67.3031	99.9857	
  1066	-7.8493	-1.8785	-9.7277	-7.2033	-1.6174	-8.8208	-6.1179	-1.1885	-7.3064	67.5114	99.9831	
  1067	-7.7023	-1.7042	-9.4065	-6.9859	-1.3254	-8.3114	-5.7742	-0.9149	-6.6892	67.4943	99.9852	
  1068	-7.2291	-1.1475	-8.3766	-6.2851	-0.6177	-6.9029	-4.9526	-0.2974	-5.2501	67.8007	99.9927	
  1069	-6.2391	-0.9722	-7.2113	-5.7889	-0.5398	-6.3287	-4.7004	-0.2541	-4.9545	67.0180	99.9885	
  1070	-5.7685	-0.7193	-6.4878	-5.3129	-0.3629	-5.6759	-4.3062	-0.2123	-4.5185	67.7100	99.9924	
  1071	-5.6802	-0.7671	-6.4474	-5.2436	-0.2840	-5.5277	-4.2622	-0.1310	-4.3933	67.1901	99.9942	
  1072	-5.0610	-0.3101	-5.3711	-4.4644	 0.1009	-4.3636	-3.9133	 0.0255	-3.8877	67.6776	99.9961	
  1073	-4.7015	-0.2676	-4.9692	-4.1984	-0.1084	-4.3068	-3.9794	-0.3752	-4.3546	68.6526	99.9925	
  1074	-4.8940	-0.5699	-5.4639	-4.4263	-0.2462	-4.6726	-4.2135	-0.3966	-4.6101	67.5786	99.9927	
  1075	-4.7007	-0.5117	-5.2124	-4.2862	-0.2849	-4.5712	-4.2527	-0.4969	-4.7496	67.7294	99.9902	
  1076	-5.3007	-0.7702	-6.0708	-4.9209	-0.4097	-5.3307	-4.8593	-0.5798	-5.4390	66.8753	99.9891	
  1077	-5.4126	-0.7365	-6.1490	-4.9873	-0.3264	-5.3138	-4.7959	-0.4540	-5.2500	66.8251	99.9914	
  1078	-5.5473	-0.8315	-6.3788	-5.2786	-0.4409	-5.7195	-5.1144	-0.5703	-5.6847	66.4687	99.9933	
  1079	-5.7126	-0.9304	-6.6430	-5.3582	-0.6988	-6.0571	-5.1959	-0.8272	-6.0231	67.3327	99.9957	
  1080	-6.0730	-1.2468	-7.3198	-5.5778	-1.0291	-6.6070	-5.3366	-1.1310	-6.4676	67.9178	99.9963	
  1081	-6.3222	-1.3529	-7.6751	-5.7961	-1.1117	-6.9080	-5.4937	-1.2043	-6.6980	67.9607	99.9966	
  1082	-6.4062	-1.3600	-7.7662	-5.8937	-1.1214	-7.0152	-5.5735	-1.2088	-6.7824	67.9166	99.9970	
  1083	-6.4595	-1.3631	-7.8227	-5.9466	-1.1411	-7.0878	-5.6257	-1.2295	-6.8552	67.9637	99.9972	
  1084	-6.4368	-1.3639	-7.8007	-5.9362	-1.1841	-7.1204	-5.6175	-1.2901	-6.9076	68.1943	99.9975	
  1085	-6.3607	-1.3615	-7.7222	-5.8319	-1.1704	-7.0023	-5.4908	-1.2571	-6.7479	68.2321	99.9978	
  1086	-6.2120	-1.2869	-7.4989	-5.6717	-1.0859	-6.7576	-5.3277	-1.1803	-6.5081	68.2717	99.9974	
  1087	-6.0231	-1.1738	-7.1969	-5.4721	-0.9898	-6.4619	-5.1348	-1.0745	-6.2093	68.3111	99.9977	
  1088	-5.8657	-1.0796	-6.9453	-5.3752	-0.8819	-6.2572	-5.0456	-0.9987	-6.0443	68.2232	99.9973	
  1089	-5.6453	-0.9477	-6.5929	-5.2643	-0.6420	-5.9065	-4.9190	-0.7471	-5.6662	67.4993	99.9967	
  1090	-5.4187	-0.8408	-6.2596	-5.0900	-0.5366	-5.6267	-4.7554	-0.6590	-5.4144	67.4544	99.9966	
  1091	-5.3558	-0.8031	-6.1589	-5.0304	-0.5129	-5.5434	-4.7085	-0.6306	-5.3391	67.4544	99.9968	
  1092	-5.3164	-0.7796	-6.0960	-4.9835	-0.4845	-5.4681	-4.6393	-0.6106	-5.2499	67.5420	99.9967	
  1093	-5.2998	-0.7553	-6.0550	-4.9373	-0.4689	-5.4063	-4.6035	-0.5780	-5.1815	67.5402	99.9969	
  1094	-5.2840	-0.7458	-6.0299	-4.9418	-0.4346	-5.3765	-4.6082	-0.5590	-5.1672	67.4511	99.9964	
  1095	-5.3295	-0.7443	-6.0738	-4.9813	-0.4462	-5.4275	-4.6645	-0.5494	-5.2139	67.3624	99.9968	
  1096	-5.3435	-0.7239	-6.0674	-4.9798	-0.4206	-5.4005	-4.6692	-0.5304	-5.1996	67.3620	99.9965	
  1097	-5.3505	-0.7137	-6.0642	-5.0238	-0.3978	-5.4217	-4.6968	-0.5143	-5.2110	67.2731	99.9965	
  1098	-5.3811	-0.7176	-6.0987	-5.0752	-0.3919	-5.4672	-4.7484	-0.5236	-5.2720	67.2297	99.9961	
  1099	-5.3960	-0.7121	-6.1081	-5.0878	-0.3872	-5.4752	-4.7584	-0.4969	-5.2553	67.1393	99.9966	
  1100	-5.3811	-0.7176	-6.0987	-5.0431	-0.3972	-5.4404	-4.7132	-0.5023	-5.2155	67.2277	99.9966	
  1101	-5.3575	-0.7035	-6.0610	-5.0163	-0.3810	-5.3974	-4.6903	-0.4994	-5.1898	67.2724	99.9962	
  1102	-5.3802	-0.7027	-6.0829	-5.0618	-0.3838	-5.4456	-4.7355	-0.4940	-5.2295	67.1838	99.9966	
  1103	-5.3951	-0.6972	-6.0923	-5.0811	-0.3832	-5.4644	-4.7531	-0.5046	-5.2577	67.2293	99.9965	
  1104	-5.4030	-0.7019	-6.1049	-5.0878	-0.3872	-5.4752	-4.7813	-0.4998	-5.2811	67.1402	99.9965	
  1105	-5.4108	-0.7066	-6.1175	-5.1333	-0.3900	-5.5234	-4.8329	-0.5092	-5.3420	67.0521	99.9965	
  1106	-5.4493	-0.7153	-6.1646	-5.1668	-0.4103	-5.5772	-4.9015	-0.5179	-5.4194	66.9633	99.9966	
  1107	-5.4721	-0.7145	-6.1866	-5.1601	-0.4062	-5.5664	-4.8839	-0.5073	-5.3912	67.0071	99.9966	
  1108	-5.4642	-0.7098	-6.1740	-5.1534	-0.4022	-5.5557	-4.8335	-0.5205	-5.3539	67.1857	99.9966	
  1109	-5.4336	-0.7058	-6.1394	-5.1266	-0.3860	-5.5127	-4.7983	-0.4992	-5.2974	67.1399	99.9966	
  1110	-5.4248	-0.6862	-6.1111	-5.1139	-0.3906	-5.5047	-4.7989	-0.5104	-5.3093	67.2307	99.9967	
  1111	-5.4030	-0.7019	-6.1049	-5.1326	-0.3772	-5.5099	-4.8100	-0.5063	-5.3163	67.0965	99.9964	
  1112	-5.4406	-0.6956	-6.1362	-5.1519	-0.3766	-5.5286	-4.8605	-0.4931	-5.3535	67.0071	99.9964	
  1113	-5.4406	-0.6956	-6.1362	-5.1467	-0.3981	-5.5449	-4.8839	-0.5073	-5.3912	67.0081	99.9966	
  1114	-5.4861	-0.6941	-6.1801	-5.1974	-0.3794	-5.5769	-4.9009	-0.5066	-5.4076	67.0526	99.9962	
  1115	-5.4554	-0.6902	-6.1456	-5.1579	-0.3679	-5.5259	-4.8434	-0.4937	-5.3371	67.0962	99.9962	
  1116	-5.4100	-0.6917	-6.1017	-5.1318	-0.3644	-5.4964	-4.8200	-0.4795	-5.2995	67.0063	99.9965	
  1117	-5.4248	-0.6862	-6.1111	-5.1385	-0.3685	-5.5071	-4.8258	-0.4831	-5.3089	67.0513	99.9966	
  1118	-5.4240	-0.6713	-6.0953	-5.1318	-0.3644	-5.4964	-4.8311	-0.4753	-5.3064	67.0515	99.9967	
  1119	-5.4318	-0.6760	-6.1078	-5.1571	-0.3551	-5.5123	-4.8487	-0.4860	-5.3347	67.0521	99.9962	
  1120	-5.4240	-0.6713	-6.0953	-5.1571	-0.3551	-5.5123	-4.8546	-0.4895	-5.3441	67.0526	99.9962	
  1121	-5.4309	-0.6611	-6.0921	-5.1445	-0.3598	-5.5043	-4.8657	-0.4853	-5.3511	67.0529	99.9963	
  1122	-5.3925	-0.6525	-6.0449	-5.1050	-0.3482	-5.4533	-4.7918	-0.4843	-5.2761	67.1864	99.9964	
  1123	-5.3540	-0.6438	-5.9978	-5.0402	-0.3460	-5.3863	-4.7068	-0.4875	-5.1943	67.3639	99.9964	
  1124	-5.3304	-0.6297	-5.9601	-4.9888	-0.3520	-5.3408	-4.6833	-0.4733	-5.1566	67.3635	99.9967	
  1125	-5.3146	-0.6203	-5.9349	-4.9813	-0.3351	-5.3165	-4.6716	-0.4662	-5.1378	67.3635	99.9965	
  1126	-5.3138	-0.6053	-5.9191	-4.9679	-0.3270	-5.2950	-4.6710	-0.4549	-5.1259	67.3635	99.9965	
  1127	-5.3286	-0.5999	-5.9285	-4.9932	-0.3177	-5.3110	-4.7097	-0.4346	-5.1443	67.2297	99.9966	
  1128	-5.3671	-0.6085	-5.9756	-5.0573	-0.3071	-5.3645	-4.7613	-0.4440	-5.2053	67.1857	99.9961	
  1129	-5.4056	-0.6171	-6.0227	-5.0968	-0.3186	-5.4155	-4.8118	-0.4308	-5.2426	67.0513	99.9966	
  1130	-5.4065	-0.6321	-6.0385	-5.0976	-0.3314	-5.4290	-4.8177	-0.4344	-5.2520	67.0063	99.9967	
  1131	-5.4755	-0.6446	-6.1202	-5.1482	-0.3127	-5.4610	-4.8341	-0.4224	-5.2565	67.0048	99.9962	
  1132	-5.4598	-0.6352	-6.0950	-5.1356	-0.3174	-5.4530	-4.8341	-0.4224	-5.2565	67.0053	99.9965	
  1133	-5.4371	-0.6360	-6.0731	-5.1482	-0.3127	-5.4610	-4.8405	-0.4373	-5.2778	67.0063	99.9962	
  1134	-5.4598	-0.6352	-6.0950	-5.1616	-0.3208	-5.4825	-4.8798	-0.4283	-5.3081	66.9169	99.9965	
  1135	-5.4528	-0.6454	-6.0982	-5.1743	-0.3161	-5.4905	-4.8810	-0.4508	-5.3318	66.9624	99.9959	
  1136	-5.4677	-0.6399	-6.1076	-5.1884	-0.3370	-5.5256	-4.9045	-0.4650	-5.3695	67.0081	99.9963	
  1137	-5.4292	-0.6313	-6.0605	-5.1169	-0.3308	-5.4478	-4.8130	-0.4534	-5.2663	67.1408	99.9965	
  1138	-5.3531	-0.6289	-5.9820	-5.0394	-0.3333	-5.3728	-4.7167	-0.4607	-5.1775	67.2742	99.9966	
  1139	-5.3146	-0.6203	-5.9349	-5.0007	-0.3345	-5.3353	-4.6939	-0.4578	-5.1517	67.2745	99.9967	
  1140	-5.3068	-0.6155	-5.9223	-4.9880	-0.3392	-5.3273	-4.6722	-0.4775	-5.1496	67.4091	99.9966	
  1141	-5.2919	-0.6210	-5.9129	-4.9754	-0.3439	-5.3193	-4.6774	-0.4698	-5.1472	67.3198	99.9967	
  1142	-5.2683	-0.6069	-5.8752	-4.9433	-0.3492	-5.2926	-4.6440	-0.4823	-5.1263	67.4544	99.9968	
  1143	-5.2071	-0.5990	-5.8061	-4.8912	-0.3423	-5.2336	-4.5982	-0.4765	-5.0747	67.4544	99.9968	
  1144	-5.1301	-0.5817	-5.7118	-4.8129	-0.3320	-5.1450	-4.5237	-0.4642	-4.9879	67.4985	99.9969	
  1145	-5.0155	-0.5707	-5.5862	-4.6967	-0.3357	-5.0325	-4.4105	-0.4722	-4.8827	67.6321	99.9970	
  1146	-4.9088	-0.5644	-5.4732	-4.6125	-0.3342	-4.9468	-4.3202	-0.4831	-4.8033	67.7218	99.9970	
  1147	-4.8695	-0.5408	-5.4103	-4.5671	-0.3314	-4.8985	-4.3026	-0.4724	-4.7750	67.7228	99.9972	
  1148	-4.8389	-0.5369	-5.3758	-4.5350	-0.3367	-4.8718	-4.2633	-0.4814	-4.7447	67.8120	99.9973	
  1149	-4.8231	-0.5275	-5.3506	-4.5157	-0.3373	-4.8530	-4.2739	-0.4660	-4.7398	67.7233	99.9975	
  1150	-4.8004	-0.5283	-5.3286	-4.5090	-0.3332	-4.8423	-4.2739	-0.4660	-4.7398	67.6794	99.9974	
  1151	-4.8153	-0.5228	-5.3380	-4.5216	-0.3286	-4.8503	-4.2850	-0.4618	-4.7468	67.6794	99.9974	
  1152	-4.8144	-0.5079	-5.3222	-4.5082	-0.3204	-4.8288	-4.2457	-0.4708	-4.7165	67.8574	99.9973	
  1153	-4.7829	-0.4890	-5.2719	-4.4501	-0.3223	-4.7725	-4.1999	-0.4650	-4.6649	67.9459	99.9975	
  1154	-4.7225	-0.4960	-5.2186	-4.4307	-0.3229	-4.7538	-4.1665	-0.4775	-4.6440	67.9471	99.9975	
  1155	-4.7374	-0.4906	-5.2280	-4.4374	-0.3270	-4.7645	-4.1947	-0.4727	-4.6674	67.9034	99.9976	
  1156	-4.7602	-0.4898	-5.2499	-4.4441	-0.3310	-4.7753	-4.2058	-0.4685	-4.6743	67.9028	99.9977	
  1157	-4.7680	-0.4945	-5.2625	-4.4568	-0.3264	-4.7833	-4.2228	-0.4679	-4.6907	67.8585	99.9975	
  1158	-4.7610	-0.5047	-5.2657	-4.4821	-0.3170	-4.7993	-4.2287	-0.4714	-4.7001	67.8141	99.9973	
  1159	-4.7759	-0.4992	-5.2751	-4.4888	-0.3211	-4.8100	-4.2457	-0.4708	-4.7165	67.8147	99.9974	
  1160	-4.7908	-0.4937	-5.2845	-4.4888	-0.3211	-4.8100	-4.2340	-0.4637	-4.6977	67.8579	99.9976	
  1161	-4.7295	-0.4858	-5.2154	-4.4240	-0.3189	-4.7430	-4.1718	-0.4698	-4.6416	67.9471	99.9975	
  1162	-4.6981	-0.4670	-5.1651	-4.3979	-0.3155	-4.7135	-4.1489	-0.4669	-4.6158	67.9926	99.9977	
  1163	-4.7051	-0.4568	-5.1618	-4.3912	-0.3114	-4.7027	-4.1489	-0.4669	-4.6158	68.0375	99.9976	
  1164	-4.7051	-0.4568	-5.1618	-4.3912	-0.3114	-4.7027	-4.1436	-0.4746	-4.6182	68.0824	99.9975	
  1165	-4.7051	-0.4568	-5.1618	-4.4039	-0.3067	-4.7107	-4.1712	-0.4585	-4.6297	67.9489	99.9976	
  1166	-4.7199	-0.4513	-5.1712	-4.4106	-0.3108	-4.7215	-4.1771	-0.4621	-4.6391	67.9938	99.9977	
  1167	-4.7348	-0.4458	-5.1806	-4.4300	-0.3102	-4.7402	-4.1941	-0.4614	-4.6555	67.9944	99.9978	
  1168	-4.7120	-0.4466	-5.1586	-4.4039	-0.3067	-4.7107	-4.1653	-0.4550	-4.6203	67.9932	99.9978	
  1169	-4.6727	-0.4230	-5.0957	-4.3771	-0.2905	-4.6677	-4.1307	-0.4449	-4.5757	68.0381	99.9979	
  1170	-4.6569	-0.4136	-5.0706	-4.3570	-0.2783	-4.6354	-4.1243	-0.4301	-4.5544	67.9932	99.9978	
  1171	-4.6491	-0.4089	-5.0580	-4.3696	-0.2737	-4.6434	-4.1190	-0.4378	-4.5568	68.0387	99.9978	
  1172	-4.6639	-0.4034	-5.0673	-4.3764	-0.2777	-4.6542	-4.1413	-0.4295	-4.5708	67.9944	99.9980	
  1173	-4.6569	-0.4136	-5.0706	-4.3823	-0.2690	-4.6514	-4.1524	-0.4253	-4.5777	67.9051	99.9977	
  1174	-4.6797	-0.4128	-5.0925	-4.3957	-0.2771	-4.6729	-4.1700	-0.4359	-4.6060	67.9506	99.9977	
  1175	-4.7024	-0.4121	-5.1145	-4.4218	-0.2805	-4.7024	-4.1929	-0.4389	-4.6318	67.9512	99.9978	
  1176	-4.7173	-0.4066	-5.1239	-4.4151	-0.2765	-4.6917	-4.1753	-0.4282	-4.6035	67.9938	99.9979	
  1177	-4.6412	-0.4042	-5.0454	-4.3689	-0.2609	-4.6299	-4.1243	-0.4301	-4.5544	67.9944	99.9976	
  1178	-4.6176	-0.3901	-5.0076	-4.3369	-0.2662	-4.6031	-4.0955	-0.4236	-4.5192	68.0387	99.9980	
  1179	-4.6255	-0.3948	-5.0202	-4.3436	-0.2702	-4.6139	-4.1125	-0.4230	-4.5356	67.9944	99.9980	
  1180	-4.6255	-0.3948	-5.0202	-4.3562	-0.2655	-4.6219	-4.1184	-0.4266	-4.5450	67.9950	99.9979	
  1181	-4.6255	-0.3948	-5.0202	-4.3503	-0.2743	-4.6247	-4.1190	-0.4378	-4.5568	68.0406	99.9979	
  1182	-4.6333	-0.3995	-5.0328	-4.3696	-0.2737	-4.6434	-4.1472	-0.4330	-4.5802	67.9518	99.9979	
  1183	-4.6709	-0.3932	-5.0641	-4.3950	-0.2643	-4.6594	-4.1642	-0.4324	-4.5966	67.9962	99.9977	
  1184	-4.6788	-0.3979	-5.0767	-4.3957	-0.2771	-4.6729	-4.1753	-0.4282	-4.6035	67.9512	99.9980	
  1185	-4.6403	-0.3893	-5.0296	-4.3562	-0.2655	-4.6219	-4.1296	-0.4224	-4.5519	67.9950	99.9979	
  1186	-4.5940	-0.3759	-4.9699	-4.3294	-0.2493	-4.5789	-4.0950	-0.4124	-4.5073	67.9950	99.9979	
  1187	-4.5861	-0.3712	-4.9573	-4.3160	-0.2412	-4.5573	-4.0838	-0.4165	-4.5004	68.0400	99.9976	
  1188	-4.5712	-0.3767	-4.9479	-4.3287	-0.2365	-4.5653	-4.1002	-0.4046	-4.5049	67.9063	99.9977	
  1189	-4.5861	-0.3712	-4.9573	-4.3227	-0.2453	-4.5681	-4.1114	-0.4004	-4.5118	67.9063	99.9979	
  1190	-4.6010	-0.3657	-4.9667	-4.3354	-0.2406	-4.5761	-4.1061	-0.4082	-4.5143	67.9956	99.9978	
  1191	-4.6158	-0.3602	-4.9761	-4.3421	-0.2447	-4.5868	-4.1231	-0.4075	-4.5307	67.9962	99.9979	
  1192	-4.6307	-0.3547	-4.9854	-4.3548	-0.2400	-4.5948	-4.1343	-0.4034	-4.5376	67.9962	99.9979	
  1193	-4.6150	-0.3453	-4.9603	-4.3347	-0.2278	-4.5626	-4.1049	-0.3856	-4.4905	67.9944	99.9980	
  1194	-4.5616	-0.3422	-4.9038	-4.2892	-0.2250	-4.5143	-4.0650	-0.3833	-4.4484	67.9944	99.9980	
  1195	-4.5459	-0.3327	-4.8786	-4.2818	-0.2082	-4.4900	-4.0697	-0.3643	-4.4341	67.9051	99.9979	
  1196	-4.5459	-0.3327	-4.8786	-4.2818	-0.2082	-4.4900	-4.0645	-0.3720	-4.4365	67.9501	99.9978	
  1197	-4.5607	-0.3272	-4.8880	-4.2885	-0.2122	-4.5008	-4.0868	-0.3637	-4.4504	67.9057	99.9980	
  1198	-4.5537	-0.3374	-4.8912	-4.3078	-0.2116	-4.5195	-4.0985	-0.3708	-4.4693	67.8618	99.9979	
  1199	-4.5765	-0.3367	-4.9131	-4.3086	-0.2244	-4.5331	-4.1155	-0.3701	-4.4856	67.8618	99.9981	
  1200	-4.5843	-0.3414	-4.9257	-4.3279	-0.2238	-4.5518	-4.1161	-0.3814	-4.4975	67.9068	99.9980	
  1201	-4.6141	-0.3304	-4.9445	-4.3406	-0.2191	-4.5598	-4.1272	-0.3772	-4.5045	67.9512	99.9980	
  1202	-4.5607	-0.3272	-4.8880	-4.2885	-0.2122	-4.5008	-4.0756	-0.3679	-4.4435	67.9501	99.9980	
  1203	-4.5074	-0.3241	-4.8315	-4.2557	-0.2047	-4.4605	-4.0410	-0.3579	-4.3989	67.9051	99.9981	
  1204	-4.4995	-0.3194	-4.8189	-4.2490	-0.2007	-4.4498	-4.0410	-0.3579	-4.3989	67.9057	99.9980	
  1205	-4.5074	-0.3241	-4.8315	-4.2557	-0.2047	-4.4605	-4.0527	-0.3649	-4.4177	67.9063	99.9979	
  1206	-4.5222	-0.3186	-4.8408	-4.2684	-0.2000	-4.4685	-4.0639	-0.3608	-4.4246	67.9063	99.9979	
  1207	-4.5231	-0.3335	-4.8566	-4.2691	-0.2128	-4.4820	-4.0756	-0.3679	-4.4435	67.8618	99.9979	
  1208	-4.5380	-0.3280	-4.8660	-4.2885	-0.2122	-4.5008	-4.0815	-0.3714	-4.4529	67.9068	99.9980	
  1209	-4.5607	-0.3272	-4.8880	-4.3078	-0.2116	-4.5195	-4.0932	-0.3785	-4.4717	67.9518	99.9979	
  1210	-4.5529	-0.3225	-4.8754	-4.3198	-0.1941	-4.5140	-4.0926	-0.3672	-4.4599	67.9068	99.9978	
  1211	-4.5065	-0.3092	-4.8157	-4.2549	-0.1919	-4.4470	-4.0404	-0.3466	-4.3870	67.9051	99.9981	
  1212	-4.4759	-0.3052	-4.7811	-4.2222	-0.1845	-4.4067	-4.0175	-0.3437	-4.3612	67.9051	99.9979	
  1213	-4.4680	-0.3005	-4.7685	-4.2155	-0.1804	-4.3960	-4.0175	-0.3437	-4.3612	67.9057	99.9978	
  1214	-4.4680	-0.3005	-4.7685	-4.2281	-0.1757	-4.4039	-4.0175	-0.3437	-4.3612	67.9057	99.9978	
  1215	-4.4829	-0.2950	-4.7779	-4.2222	-0.1845	-4.4067	-4.0346	-0.3430	-4.3776	67.9063	99.9979	
  1216	-4.4838	-0.3099	-4.7937	-4.2542	-0.1792	-4.4335	-4.0516	-0.3424	-4.3940	67.8168	99.9978	
  1217	-4.5135	-0.2990	-4.8125	-4.2669	-0.1745	-4.4414	-4.0633	-0.3495	-4.4128	67.9068	99.9976	
  1218	-4.5362	-0.2982	-4.8344	-4.2743	-0.1913	-4.4657	-4.0803	-0.3488	-4.4292	67.9068	99.9980	
  1219	-4.5214	-0.3037	-4.8251	-4.2609	-0.1832	-4.4442	-4.0516	-0.3424	-4.3940	67.9051	99.9979	
  1220	-4.4602	-0.2958	-4.7560	-4.2147	-0.1676	-4.3824	-4.0052	-0.3253	-4.3305	67.8596	99.9979	
  1221	-4.4295	-0.2919	-4.7214	-4.1760	-0.1689	-4.3449	-3.9771	-0.3301	-4.3072	67.9045	99.9978	
  1222	-4.4295	-0.2919	-4.7214	-4.1700	-0.1776	-4.3477	-3.9829	-0.3336	-4.3166	67.9051	99.9979	
  1223	-4.4444	-0.2864	-4.7308	-4.1767	-0.1816	-4.3585	-3.9941	-0.3295	-4.3235	67.9051	99.9981	
  1224	-4.4444	-0.2864	-4.7308	-4.1894	-0.1770	-4.3664	-4.0000	-0.3330	-4.3330	67.9057	99.9980	
