OxySoft export of:	C:\Users\TO3 TechSupport\Documents\Train2Adapt\T2A_64
Export date:	2022/09/16 07:30:29
Start of measurement:	2022-09-16 06:08:38.687

Datafile sample rate:	10.00	Hz
Datafile duration:	4213.200	s
Datafile total number of samples:	42132

Description:	

Optode-template:	PortaMon TSI Fit Factor
Optode distance (mm):	 35.00
Optode gradients (mm):	 5.00
DPF:	6.61

Device id:	334
# Receivers:	1
# Light sources:	6
# ADC:	2

Light source wavelengths:
device	index	wavelength
1	1	849	nm
1	2	759	nm
1	3	846	nm
1	4	757	nm
1	5	848	nm
1	6	757	nm

Export sample rate:	10.00	Hz
Selected time span:	0	4213.200
Selected time span (sample numbers):	0	42132


Legend:
Column	Trace (Measurement)
1	(Sample number)
2	Rx1-Tx1 O2Hb (T2A_64)
3	Rx1-Tx1 HHb (T2A_64)
4	Rx1-Tx1 tHb (T2A_64)
5	Rx1-Tx2 O2Hb (T2A_64)
6	Rx1-Tx2 HHb (T2A_64)
7	Rx1-Tx2 tHb (T2A_64)
8	Rx1-Tx3 O2Hb (T2A_64)
9	Rx1-Tx3 HHb (T2A_64)
10	Rx1-Tx3 tHb (T2A_64)
11	Rx1-Tx1,Tx2,Tx3 TSI% (T2A_64)
12	Rx1-Tx1,Tx2,Tx3 TSI Fit Factor (T2A_64)
13	(Event)


1	2	3	4	5	6	7	8	9	10	11	12	13
     0	113.4664	57.8929	171.3592	91.1284	47.6818	138.8103	73.5543	42.7082	116.2625	11.5652	98.7634	
     1	 0.1598	-0.0423	 0.1174	 0.1520	-0.0279	 0.1242	 0.1156	-0.0126	 0.1030	60.8924	99.9725	
     2	 0.1290	-0.0612	 0.0677	 0.0936	-0.0395	 0.0541	 0.0536	-0.0302	 0.0233	60.7985	99.9723	
     3	 0.0694	-0.0698	-0.0005	 0.0352	-0.0512	-0.0159	-0.0026	-0.0443	-0.0469	60.7950	99.9722	
     4	 0.0242	-0.0836	-0.0595	-0.0106	-0.0673	-0.0779	-0.0589	-0.0583	-0.1172	60.7471	99.9725	
     5	-0.0124	-0.0780	-0.0905	-0.0482	-0.0540	-0.1022	-0.0921	-0.0579	-0.1500	60.7453	99.9732	
     6	-0.0047	-0.0732	-0.0781	-0.0341	-0.0332	-0.0672	-0.0460	-0.0290	-0.0750	60.7577	99.9723	
     7	 0.0414	-0.0448	-0.0035	 0.0560	-0.0263	 0.0298	 0.0370	-0.0300	 0.0070	60.9775	99.9736	
     8	 0.0482	-0.0547	-0.0066	 0.0352	-0.0512	-0.0159	-0.0135	-0.0404	-0.0539	60.8377	99.9727	
     9	 0.0251	-0.0689	-0.0439	-0.0157	-0.0461	-0.0618	-0.0639	-0.0509	-0.1148	60.7453	99.9732	
    10	 0.0030	-0.0685	-0.0656	-0.0608	-0.0496	-0.1103	-0.1036	-0.0651	-0.1687	60.7382	99.9725	
    11	-0.0413	-0.0676	-0.1090	-0.1000	-0.0616	-0.1614	-0.1700	-0.0643	-0.2342	60.6454	99.9728	
    12	-0.0779	-0.0620	-0.1400	-0.1250	-0.0527	-0.1777	-0.1751	-0.0568	-0.2319	60.6936	99.9725	
    13	-0.0404	-0.0530	-0.0934	-0.0533	-0.0328	-0.0861	-0.0639	-0.0509	-0.1148	60.9247	99.9731	
    14	-0.0259	-0.0581	-0.0841	-0.0482	-0.0540	-0.1022	-0.0595	-0.0694	-0.1289	60.9639	99.9721	
    15	-0.0557	-0.0624	-0.1183	-0.0808	-0.0619	-0.1426	-0.1100	-0.0798	-0.1898	60.9144	99.9727	
    16	-0.0557	-0.0624	-0.1183	-0.0992	-0.0489	-0.1480	-0.1202	-0.0649	-0.1851	60.8289	99.9722	
    17	-0.0615	-0.0379	-0.0995	-0.0784	-0.0240	-0.1023	-0.1073	-0.0355	-0.1429	60.8342	99.9732	
    18	-0.0606	-0.0232	-0.0839	-0.0901	-0.0069	-0.0970	-0.1117	-0.0170	-0.1288	60.7915	99.9725	
    19	-0.0375	-0.0090	-0.0466	-0.0318	 0.0047	-0.0269	-0.0223	-0.0034	-0.0257	60.9775	99.9722	
    20	 0.0000	 0.0000	-0.0000	-0.0000	-0.0000	 0.0001	 0.0000	-0.0000	 0.0000	60.9758	99.9715	
    21	 0.0154	 0.0095	 0.0248	 0.0015	 0.0253	 0.0269	-0.0044	 0.0185	 0.0141	60.8889	99.9722	
    22	 0.0240	 0.0289	 0.0529	 0.0157	 0.0461	 0.0619	 0.0085	 0.0479	 0.0563	60.8498	99.9721	
    23	 0.0462	 0.0285	 0.0746	 0.0165	 0.0587	 0.0753	 0.0085	 0.0479	 0.0563	60.8038	99.9724	
    24	-0.0193	 0.0444	 0.0251	-0.0235	 0.0341	 0.0107	-0.0484	 0.0228	-0.0257	60.9247	99.9725	
    25	-0.0414	 0.0449	 0.0034	-0.0353	 0.0512	 0.0160	-0.0254	 0.0372	 0.0118	60.9775	99.9722	
    26	 0.0096	 0.0341	 0.0436	-0.0161	 0.0509	 0.0349	-0.0088	 0.0370	 0.0282	60.8889	99.9716	
    27	-0.0193	 0.0444	 0.0251	-0.0353	 0.0512	 0.0160	-0.0478	 0.0338	-0.0139	60.8838	99.9725	
    28	-0.0414	 0.0449	 0.0034	-0.0611	 0.0474	-0.0136	-0.0809	 0.0342	-0.0467	60.8377	99.9724	
    29	-0.0703	 0.0552	-0.0151	-0.0803	 0.0477	-0.0325	-0.0874	 0.0196	-0.0678	60.9656	99.9725	
    30	-0.0924	 0.0557	-0.0368	-0.1062	 0.0439	-0.0621	-0.1473	 0.0351	-0.1122	60.7880	99.9728	
    31	-0.0924	 0.0557	-0.0368	-0.1238	 0.0695	-0.0542	-0.1026	 0.0419	-0.0607	60.8838	99.9714	
    32	-0.0472	 0.0695	 0.0221	-0.0588	 0.0853	 0.0267	-0.0457	 0.0670	 0.0213	60.8907	99.9720	
    33	-0.0386	 0.0889	 0.0502	-0.0462	 0.0809	 0.0348	-0.0515	 0.0634	 0.0119	60.9281	99.9720	
    34	-0.0463	 0.0841	 0.0378	-0.0588	 0.0853	 0.0267	-0.0783	 0.0785	 0.0002	60.7985	99.9723	
    35	-0.0607	 0.0893	 0.0285	-0.0772	 0.0983	 0.0212	-0.0891	 0.0823	-0.0068	60.7985	99.9725	
    36	-0.0684	 0.0846	 0.0161	-0.0964	 0.0986	 0.0023	-0.1172	 0.0753	-0.0419	60.7506	99.9731	
    37	-0.1050	 0.0902	-0.0149	-0.1340	 0.1119	-0.0220	-0.1281	 0.0791	-0.0489	60.7968	99.9726	
    38	-0.0598	 0.1039	 0.0441	-0.0630	 0.1191	 0.0562	-0.0431	 0.1113	 0.0682	60.8533	99.9715	
    39	-0.0367	 0.1182	 0.0814	-0.0372	 0.1229	 0.0858	-0.0431	 0.1113	 0.0682	60.8481	99.9725	
    40	-0.0511	 0.1233	 0.0721	-0.0630	 0.1191	 0.0562	-0.0712	 0.1043	 0.0331	60.8429	99.9720	
    41	-0.0733	 0.1238	 0.0504	-0.0881	 0.1280	 0.0400	-0.0986	 0.1083	 0.0097	60.7985	99.9725	
    42	-0.0954	 0.1242	 0.0287	-0.1073	 0.1283	 0.0211	-0.1318	 0.1087	-0.0231	60.7524	99.9732	
    43	-0.1175	 0.1247	 0.0070	-0.1574	 0.1460	-0.0113	-0.1433	 0.1015	-0.0418	60.7950	99.9725	
    44	-0.1021	 0.1341	 0.0319	-0.0999	 0.1450	 0.0453	-0.0858	 0.1377	 0.0519	60.8090	99.9718	
    45	-0.0569	 0.1479	 0.0909	-0.0481	 0.1526	 0.1046	-0.0468	 0.1408	 0.0940	60.8516	99.9725	
    46	-0.0569	 0.1479	 0.0909	-0.0673	 0.1529	 0.0857	-0.0749	 0.1338	 0.0589	60.8021	99.9726	
    47	-0.0791	 0.1484	 0.0692	-0.0983	 0.1703	 0.0721	-0.0966	 0.1415	 0.0449	60.7595	99.9730	
    48	-0.0867	 0.1436	 0.0568	-0.1108	 0.1747	 0.0640	-0.0973	 0.1304	 0.0331	60.8021	99.9734	
    49	-0.1156	 0.1540	 0.0382	-0.1249	 0.1539	 0.0291	-0.1623	 0.1534	-0.0089	60.6245	99.9728	
    50	-0.1378	 0.1544	 0.0166	-0.1375	 0.1583	 0.0210	-0.1291	 0.1530	 0.0238	60.7630	99.9716	
    51	-0.0791	 0.1484	 0.0692	-0.0857	 0.1659	 0.0802	-0.0787	 0.1634	 0.0847	60.7240	99.9718	
    52	-0.0858	 0.1583	 0.0724	-0.1108	 0.1747	 0.0640	-0.1068	 0.1564	 0.0496	60.7169	99.9720	
    53	-0.1224	 0.1639	 0.0414	-0.1300	 0.1751	 0.0452	-0.1400	 0.1568	 0.0168	60.7151	99.9730	
    54	-0.1301	 0.1592	 0.0290	-0.1433	 0.1669	 0.0236	-0.1623	 0.1534	-0.0089	60.6689	99.9728	
    55	-0.1445	 0.1643	 0.0197	-0.1684	 0.1757	 0.0074	-0.2057	 0.1687	-0.0370	60.5355	99.9731	
    56	-0.1734	 0.1747	 0.0012	-0.2127	 0.1849	-0.0277	-0.2115	 0.1651	-0.0463	60.6227	99.9715	
    57	-0.1513	 0.1743	 0.0229	-0.1476	 0.2007	 0.0531	-0.1220	 0.1787	 0.0567	60.7683	99.9726	
    58	-0.1282	 0.1885	 0.0602	-0.1284	 0.2003	 0.0720	-0.1220	 0.1787	 0.0567	60.7630	99.9727	
    59	-0.1426	 0.1936	 0.0509	-0.1602	 0.2051	 0.0450	-0.1552	 0.1792	 0.0239	60.7151	99.9724	
    60	-0.1503	 0.1889	 0.0385	-0.1727	 0.2095	 0.0369	-0.1827	 0.1832	 0.0005	60.6263	99.9732	
    61	-0.1648	 0.1941	 0.0292	-0.1978	 0.2184	 0.0207	-0.1986	 0.1945	-0.0041	60.5837	99.9725	
    62	-0.1869	 0.1945	 0.0075	-0.2111	 0.2102	-0.0008	-0.2165	 0.1726	-0.0440	60.6653	99.9733	
    63	-0.1869	 0.1945	 0.0075	-0.2103	 0.2228	 0.0126	-0.1763	 0.1979	 0.0216	60.6779	99.9716	
    64	-0.1561	 0.2135	 0.0573	-0.1460	 0.2259	 0.0800	-0.1309	 0.2158	 0.0849	60.7258	99.9722	
    65	-0.1340	 0.2130	 0.0790	-0.1586	 0.2304	 0.0719	-0.1475	 0.2160	 0.0685	60.6335	99.9716	
    66	-0.1629	 0.2234	 0.0604	-0.1711	 0.2348	 0.0638	-0.1807	 0.2164	 0.0357	60.6299	99.9730	
    67	-0.1706	 0.2187	 0.0480	-0.1836	 0.2392	 0.0557	-0.1807	 0.2164	 0.0357	60.6317	99.9729	
    68	-0.1850	 0.2238	 0.0387	-0.2087	 0.2481	 0.0395	-0.2139	 0.2168	 0.0030	60.5837	99.9734	
    69	-0.2148	 0.2195	 0.0046	-0.2412	 0.2402	-0.0009	-0.2413	 0.2209	-0.0204	60.5411	99.9724	
    70	-0.2071	 0.2243	 0.0170	-0.1962	 0.2436	 0.0476	-0.1851	 0.2349	 0.0498	60.6390	99.9726	
    71	-0.1917	 0.2338	 0.0419	-0.1770	 0.2433	 0.0664	-0.1634	 0.2272	 0.0638	60.7240	99.9726	
    72	-0.1917	 0.2338	 0.0419	-0.2087	 0.2481	 0.0395	-0.2017	 0.2351	 0.0334	60.5892	99.9719	
    73	-0.2139	 0.2342	 0.0202	-0.2220	 0.2399	 0.0179	-0.2349	 0.2356	 0.0007	60.5429	99.9723	
    74	-0.2428	 0.2446	 0.0017	-0.2463	 0.2614	 0.0151	-0.2674	 0.2470	-0.0204	60.4985	99.9737	
    75	-0.2505	 0.2398	-0.0107	-0.2847	 0.2620	-0.0226	-0.2847	 0.2362	-0.0485	60.4947	99.9725	
    76	-0.2870	 0.2454	-0.0417	-0.2914	 0.2579	-0.0334	-0.2898	 0.2436	-0.0461	60.5429	99.9726	
    77	-0.2351	 0.2493	 0.0141	-0.2447	 0.2866	 0.0420	-0.2061	 0.2536	 0.0475	60.6390	99.9726	
    78	-0.2197	 0.2588	 0.0390	-0.2389	 0.2781	 0.0393	-0.2169	 0.2575	 0.0405	60.5910	99.9717	
    79	-0.2486	 0.2691	 0.0205	-0.2698	 0.2955	 0.0258	-0.2501	 0.2579	 0.0077	60.5873	99.9728	
    80	-0.2774	 0.2795	 0.0019	-0.2647	 0.2743	 0.0097	-0.2718	 0.2656	-0.0063	60.5873	99.9726	
    81	-0.2919	 0.2847	-0.0073	-0.3023	 0.2876	-0.0146	-0.2999	 0.2585	-0.0414	60.5819	99.9727	
    82	-0.3073	 0.2752	-0.0322	-0.3341	 0.2924	-0.0416	-0.3223	 0.2551	-0.0672	60.5374	99.9726	
    83	-0.3362	 0.2855	-0.0507	-0.3341	 0.2924	-0.0416	-0.3318	 0.2811	-0.0507	60.5003	99.9724	
    84	-0.2774	 0.2795	 0.0019	-0.2698	 0.2955	 0.0258	-0.2539	 0.2875	 0.0336	60.5521	99.9722	
    85	-0.2621	 0.2890	 0.0268	-0.2749	 0.3167	 0.0419	-0.2647	 0.2913	 0.0266	60.5040	99.9730	
    86	-0.2842	 0.2894	 0.0051	-0.2949	 0.3044	 0.0096	-0.2935	 0.2732	-0.0203	60.5411	99.9732	
    87	-0.3140	 0.2851	-0.0290	-0.3466	 0.2968	-0.0497	-0.3325	 0.2700	-0.0624	60.4947	99.9716	
    88	-0.3131	 0.2998	-0.0134	-0.3575	 0.3265	-0.0309	-0.3369	 0.2885	-0.0483	60.4521	99.9720	
    89	-0.3497	 0.3054	-0.0444	-0.3650	 0.3098	-0.0551	-0.3975	 0.2930	-0.1045	60.3592	99.9735	
    90	-0.3795	 0.3011	-0.0785	-0.3901	 0.3186	-0.0714	-0.3975	 0.2930	-0.1045	60.4076	99.9735	
    91	-0.3208	 0.2950	-0.0258	-0.3317	 0.3303	-0.0013	-0.2973	 0.3028	 0.0055	60.5077	99.9724	
    92	-0.3121	 0.3144	 0.0022	-0.3125	 0.3299	 0.0176	-0.3081	 0.3066	-0.0015	60.5022	99.9731	
    93	-0.3266	 0.3196	-0.0071	-0.3317	 0.3303	-0.0013	-0.3088	 0.2956	-0.0132	60.5873	99.9725	
    94	-0.3198	 0.3097	-0.0102	-0.3442	 0.3347	-0.0094	-0.3406	 0.3181	-0.0225	60.3706	99.9724	
    95	-0.3420	 0.3101	-0.0319	-0.3752	 0.3521	-0.0230	-0.3630	 0.3147	-0.0483	60.3687	99.9733	
    96	-0.3708	 0.3205	-0.0505	-0.3951	 0.3398	-0.0553	-0.3911	 0.3077	-0.0834	60.4076	99.9729	
    97	-0.4074	 0.3261	-0.0814	-0.4269	 0.3445	-0.0822	-0.4236	 0.3192	-0.1044	60.3649	99.9728	
    98	-0.3785	 0.3157	-0.0629	-0.3944	 0.3524	-0.0418	-0.3515	 0.3220	-0.0295	60.4633	99.9721	
    99	-0.3699	 0.3351	-0.0349	-0.3752	 0.3521	-0.0230	-0.3406	 0.3181	-0.0225	60.5466	99.9723	
   100	-0.3853	 0.3257	-0.0597	-0.4069	 0.3568	-0.0499	-0.3955	 0.3262	-0.0693	60.3687	99.9731	
   101	-0.4074	 0.3261	-0.0814	-0.4202	 0.3486	-0.0715	-0.4230	 0.3303	-0.0927	60.3242	99.9731	
   102	-0.4074	 0.3261	-0.0814	-0.4453	 0.3575	-0.0877	-0.4345	 0.3230	-0.1115	60.3203	99.9727	
   103	-0.4508	 0.3416	-0.1092	-0.4770	 0.3622	-0.1147	-0.4836	 0.3347	-0.1489	60.2738	99.9732	
   104	-0.4729	 0.3421	-0.1309	-0.4970	 0.3499	-0.1470	-0.5066	 0.3203	-0.1864	60.3126	99.9730	
   105	-0.4796	 0.3520	-0.1277	-0.4954	 0.3752	-0.1201	-0.4389	 0.3415	-0.0974	60.4596	99.9712	
   106	-0.4277	 0.3559	-0.0719	-0.4312	 0.3783	-0.0527	-0.4057	 0.3411	-0.0646	60.4577	99.9731	
   107	-0.4209	 0.3459	-0.0751	-0.4629	 0.3831	-0.0797	-0.4497	 0.3454	-0.1044	60.2777	99.9729	
   108	-0.4575	 0.3516	-0.1060	-0.5072	 0.3923	-0.1148	-0.4772	 0.3494	-0.1278	60.2777	99.9723	
   109	-0.4719	 0.3567	-0.1153	-0.5197	 0.3967	-0.1229	-0.4989	 0.3571	-0.1418	60.2330	99.9726	
   110	-0.4864	 0.3619	-0.1246	-0.5330	 0.3885	-0.1444	-0.5429	 0.3613	-0.1816	60.1397	99.9728	
   111	-0.5230	 0.3675	-0.1555	-0.5530	 0.3762	-0.1767	-0.5608	 0.3394	-0.2214	60.2660	99.9731	
   112	-0.5374	 0.3727	-0.1648	-0.5647	 0.3932	-0.1714	-0.5321	 0.3575	-0.1746	60.3203	99.9719	
   113	-0.4854	 0.3766	-0.1090	-0.4938	 0.4005	-0.0933	-0.4752	 0.3826	-0.0926	60.2854	99.9724	
   114	-0.4845	 0.3912	-0.0934	-0.4938	 0.4005	-0.0933	-0.4924	 0.3718	-0.1207	60.3203	99.9731	
   115	-0.4999	 0.3817	-0.1182	-0.5440	 0.4182	-0.1257	-0.5256	 0.3722	-0.1535	60.2311	99.9730	
   116	-0.4999	 0.3817	-0.1182	-0.5565	 0.4226	-0.1338	-0.5473	 0.3798	-0.1675	60.1417	99.9729	
   117	-0.5355	 0.4020	-0.1336	-0.5573	 0.4100	-0.1472	-0.5748	 0.3839	-0.1909	60.1825	99.9733	
   118	-0.5509	 0.3926	-0.1584	-0.5949	 0.4233	-0.1715	-0.6029	 0.3769	-0.2260	60.1358	99.9739	
   119	-0.5730	 0.3930	-0.1801	-0.6200	 0.4321	-0.1877	-0.5964	 0.3915	-0.2049	60.1437	99.9725	
   120	-0.5278	 0.4068	-0.1211	-0.5491	 0.4394	-0.1096	-0.5077	 0.3941	-0.1136	60.3261	99.9726	
   121	-0.5124	 0.4162	-0.0963	-0.5483	 0.4520	-0.0962	-0.5179	 0.4090	-0.1089	60.2369	99.9726	
   122	-0.5413	 0.4266	-0.1148	-0.5557	 0.4353	-0.1204	-0.5568	 0.4058	-0.1510	60.2311	99.9730	
   123	-0.5413	 0.4266	-0.1148	-0.5741	 0.4482	-0.1258	-0.5677	 0.4096	-0.1580	60.1864	99.9730	
   124	-0.5702	 0.4370	-0.1333	-0.5808	 0.4441	-0.1366	-0.5785	 0.4135	-0.1650	60.2311	99.9730	
   125	-0.5779	 0.4322	-0.1458	-0.6066	 0.4403	-0.1662	-0.6117	 0.4139	-0.1978	60.1397	99.9726	
   126	-0.5933	 0.4227	-0.1706	-0.6317	 0.4492	-0.1824	-0.6442	 0.4254	-0.2188	60.0095	99.9731	
   127	-0.5846	 0.4421	-0.1426	-0.5859	 0.4653	-0.1205	-0.5497	 0.4316	-0.1182	60.2854	99.9727	
   128	-0.5404	 0.4413	-0.0992	-0.5659	 0.4776	-0.0882	-0.5280	 0.4239	-0.1042	60.2815	99.9732	
   129	-0.5692	 0.4516	-0.1177	-0.5859	 0.4653	-0.1205	-0.5721	 0.4281	-0.1439	60.2330	99.9729	
   130	-0.5914	 0.4521	-0.1394	-0.6109	 0.4741	-0.1367	-0.6155	 0.4435	-0.1720	60.1010	99.9736	
   131	-0.6058	 0.4572	-0.1487	-0.6360	 0.4830	-0.1529	-0.6161	 0.4324	-0.1837	60.1864	99.9733	
   132	-0.6280	 0.4577	-0.1704	-0.6619	 0.4792	-0.1825	-0.6544	 0.4403	-0.2141	60.0970	99.9730	
   133	-0.6645	 0.4633	-0.2013	-0.6936	 0.4840	-0.2095	-0.6761	 0.4479	-0.2281	60.0990	99.9726	
   134	-0.6347	 0.4676	-0.1672	-0.6168	 0.4827	-0.1340	-0.5873	 0.4505	-0.1368	60.2854	99.9733	
   135	-0.6049	 0.4719	-0.1331	-0.6043	 0.4782	-0.1259	-0.5931	 0.4469	-0.1462	60.2350	99.9731	
   136	-0.6193	 0.4771	-0.1423	-0.6419	 0.4915	-0.1502	-0.6473	 0.4660	-0.1813	60.0563	99.9730	
   137	-0.6193	 0.4771	-0.1423	-0.6536	 0.5086	-0.1449	-0.6416	 0.4696	-0.1719	60.0583	99.9731	
   138	-0.6338	 0.4822	-0.1516	-0.6669	 0.5004	-0.1665	-0.6697	 0.4626	-0.2070	60.0523	99.9733	
   139	-0.6780	 0.4831	-0.1950	-0.6995	 0.4925	-0.2069	-0.7086	 0.4594	-0.2492	60.0502	99.9734	
   140	-0.6925	 0.4883	-0.2043	-0.7237	 0.5140	-0.2096	-0.7130	 0.4779	-0.2351	60.0115	99.9730	
   141	-0.6405	 0.4922	-0.1484	-0.6470	 0.5127	-0.1342	-0.6236	 0.4916	-0.1321	60.1110	99.9724	
   142	-0.6251	 0.5016	-0.1236	-0.6270	 0.5250	-0.1019	-0.6019	 0.4839	-0.1180	60.1963	99.9735	
   143	-0.6319	 0.5116	-0.1204	-0.6395	 0.5294	-0.1100	-0.6236	 0.4916	-0.1321	60.1497	99.9733	
   144	-0.6396	 0.5068	-0.1328	-0.6654	 0.5257	-0.1396	-0.6517	 0.4845	-0.1672	60.1010	99.9730	
   145	-0.6540	 0.5120	-0.1421	-0.6779	 0.5301	-0.1477	-0.6893	 0.5035	-0.1859	59.9688	99.9734	
   146	-0.6694	 0.5025	-0.1670	-0.7096	 0.5348	-0.1747	-0.7066	 0.4926	-0.2140	59.9668	99.9735	
   147	-0.7291	 0.4939	-0.2352	-0.7613	 0.5273	-0.2340	-0.7462	 0.4784	-0.2679	60.0095	99.9736	
   148	-0.6838	 0.5077	-0.1762	-0.6779	 0.5301	-0.1477	-0.6338	 0.5065	-0.1273	60.1596	99.9721	
   149	-0.6386	 0.5215	-0.1172	-0.6446	 0.5506	-0.0939	-0.6172	 0.5062	-0.1109	60.1536	99.9736	
   150	-0.6607	 0.5219	-0.1389	-0.6771	 0.5427	-0.1343	-0.6663	 0.5180	-0.1484	60.0197	99.9728	
   151	-0.6675	 0.5318	-0.1358	-0.6947	 0.5683	-0.1263	-0.6714	 0.5254	-0.1460	60.0197	99.9733	
   152	-0.6752	 0.5271	-0.1482	-0.7080	 0.5601	-0.1478	-0.6880	 0.5256	-0.1624	59.9749	99.9727	
   153	-0.7041	 0.5375	-0.1667	-0.7331	 0.5690	-0.1640	-0.7212	 0.5260	-0.1952	59.9709	99.9735	
   154	-0.7262	 0.5379	-0.1884	-0.7398	 0.5649	-0.1748	-0.7148	 0.5407	-0.1741	59.9790	99.9725	
   155	-0.6887	 0.5469	-0.1419	-0.6755	 0.5680	-0.1074	-0.6484	 0.5399	-0.1085	60.1150	99.9733	
   156	-0.6810	 0.5517	-0.1294	-0.6881	 0.5724	-0.1155	-0.6599	 0.5326	-0.1273	60.1090	99.9731	
   157	-0.7031	 0.5521	-0.1511	-0.7323	 0.5816	-0.1506	-0.6931	 0.5331	-0.1600	60.0623	99.9726	
   158	-0.7320	 0.5625	-0.1696	-0.7574	 0.5905	-0.1668	-0.7256	 0.5446	-0.1811	60.0176	99.9729	
   159	-0.7397	 0.5577	-0.1821	-0.7825	 0.5993	-0.1830	-0.7639	 0.5524	-0.2115	59.8834	99.9734	
   160	-0.7609	 0.5728	-0.1882	-0.7833	 0.5867	-0.1965	-0.7856	 0.5601	-0.2255	59.8813	99.9730	
   161	-0.7609	 0.5728	-0.1882	-0.7875	 0.6205	-0.1669	-0.7134	 0.5629	-0.1506	60.0704	99.9723	
   162	-0.6935	 0.5862	-0.1075	-0.7041	 0.6233	-0.0807	-0.6565	 0.5880	-0.0686	60.0318	99.9725	
   163	-0.6984	 0.6254	-0.0731	-0.7068	 0.6824	-0.0243	-0.6576	 0.6618	 0.0042	59.8698	99.9726	
   164	-0.6706	 0.7129	 0.0422	-0.6104	 0.7904	 0.1801	-0.5564	 0.7786	 0.2222	59.8986	99.9750	
   165	-0.5590	 0.8378	 0.2787	-0.4783	 0.9568	 0.4787	-0.3932	 0.9131	 0.5198	59.9673	99.9771	
   166	-0.5110	 0.8955	 0.3845	-0.4132	 0.9726	 0.5595	-0.3868	 0.9278	 0.5409	59.9974	99.9785	
   167	-0.5562	 0.8818	 0.3255	-0.4908	 0.9613	 0.4706	-0.4444	 0.8916	 0.4472	60.0296	99.9779	
   168	-0.6956	 0.7818	 0.0861	-0.6296	 0.7907	 0.1612	-0.5855	 0.6646	 0.0791	60.5059	99.9780	
   169	-0.8754	 0.5164	-0.3591	-0.7723	 0.5570	-0.2152	-0.7066	 0.4926	-0.2140	60.4283	99.9769	
   170	-0.9398	 0.4346	-0.5053	-0.8906	 0.5084	-0.3822	-0.8306	 0.4573	-0.3733	60.1170	99.9760	
   171	-1.0148	 0.4165	-0.5984	-0.9557	 0.4926	-0.4630	-0.8970	 0.4582	-0.4388	60.0318	99.9758	
   172	-1.0148	 0.4165	-0.5984	-0.9807	 0.5015	-0.4792	-0.9288	 0.4807	-0.4481	59.8573	99.9750	
   173	-1.0986	 0.4915	-0.6072	-1.0430	 0.6332	-0.4096	-0.9564	 0.6656	-0.2908	59.4646	99.9740	
   174	-1.1479	 0.6441	-0.5038	-1.1539	 0.6014	-0.5524	-1.2641	 0.4297	-0.8345	60.0611	99.9819	
   175	-2.1369	 0.2041	-1.9328	-2.2291	 0.2063	-2.0227	-2.2520	 0.1176	-2.1345	59.2597	99.9744	
   176	-2.0927	 0.3158	-1.7770	-2.1503	 0.3399	-1.8102	-2.1092	 0.2818	-1.8274	59.2630	99.9723	
   177	-1.9022	 0.4049	-1.4974	-2.1236	 0.3563	-1.7672	-2.2216	 0.2538	-1.9679	58.9067	99.9719	
   178	-2.1313	 0.4046	-1.7268	-2.4625	 0.3663	-2.0961	-2.5184	 0.2908	-2.2276	58.3906	99.9651	
   179	-2.3508	 0.4383	-1.9126	-2.7238	 0.3876	-2.3361	-2.6811	 0.3483	-2.3328	58.2663	99.9558	
   180	-2.2160	 0.4649	-1.7512	-2.5577	 0.3805	-2.1770	-2.5195	 0.3646	-2.1548	58.4614	99.9543	
   181	-2.2889	 0.1387	-2.1503	-2.6946	-0.0683	-2.7629	-2.7908	-0.0933	-2.8841	58.6558	99.9528	
   182	-2.2905	-0.1156	-2.4062	-2.6211	-0.3268	-2.9478	-2.6714	-0.3163	-2.9877	59.1326	99.9510	
   183	-2.4674	-0.3371	-2.8046	-2.8261	-0.4288	-3.2547	-2.8144	-0.2997	-3.1141	58.3690	99.9446	
   184	-2.2099	 0.1029	-2.1071	-2.4662	-0.0005	-2.4666	-2.3722	 0.0527	-2.3196	59.0241	99.9494	
   185	-2.0501	 0.0606	-1.9896	-2.4224	-0.1193	-2.5416	-2.5022	-0.0822	-2.5844	58.7054	99.9507	
   186	-2.4095	-0.4703	-2.8799	-3.0723	-0.8842	-3.9564	-3.4256	-1.0669	-4.4925	59.1021	99.9546	
   187	-3.6709	-1.9222	-5.5931	-4.4322	-2.4509	-6.8830	-4.7168	-2.5489	-7.2658	59.6245	99.9309	
   188	-4.0707	-2.5060	-6.5768	-4.6624	-2.9573	-7.6196	-4.8385	-2.9128	-7.7513	59.8348	99.9260	
   189	-3.8155	-2.6725	-6.4881	-4.4040	-3.1261	-7.5299	-4.5318	-3.0607	-7.5925	60.2879	99.9204	
   190	-3.3940	-2.5537	-5.9479	-3.9212	-2.9867	-6.9078	-4.0137	-2.9160	-6.9297	60.6771	99.9226	
   191	-2.9034	-2.2799	-5.1834	-3.4208	-2.6662	-6.0869	-3.4631	-2.6020	-6.0651	60.7843	99.9238	
   192	-2.4668	-1.9267	-4.3936	-2.8972	-2.2829	-5.1800	-2.9204	-2.1439	-5.0643	60.6364	99.9233	
   193	-1.8803	-1.3123	-3.1927	-2.3068	-1.6519	-3.9587	-2.3403	-1.5239	-3.8641	60.4243	99.9267	
   194	-1.9698	-1.3252	-3.2951	-2.5792	-1.8076	-4.3867	-2.8275	-1.7981	-4.6256	60.2741	99.9309	
   195	-2.8943	-1.7958	-4.6902	-3.4433	-2.2062	-5.6494	-3.6173	-2.0389	-5.6562	59.4842	99.9204	
   196	-2.6967	-1.1395	-3.8363	-2.8446	-1.3392	-4.1837	-2.7345	-1.1755	-3.9100	60.1588	99.9396	
   197	-2.2060	-0.9781	-3.1842	-2.7027	-1.3248	-4.0274	-2.7314	-1.2161	-3.9475	59.7657	99.9238	
   198	-2.2031	-0.9341	-3.1374	-2.6412	-1.2626	-3.9037	-2.6457	-1.1730	-3.8187	59.9703	99.9285	
   199	-2.2118	-0.9535	-3.1654	-2.6745	-1.2831	-3.9575	-2.6471	-1.1951	-3.8422	60.0153	99.9249	
   200	-2.1540	-0.9743	-3.1284	-2.6158	-1.3684	-3.9841	-2.6263	-1.3098	-3.9361	60.3530	99.9255	
   201	-2.0654	-0.9760	-3.0416	-2.5065	-1.3618	-3.8682	-2.5044	-1.3077	-3.8120	60.5024	99.9268	
   202	-1.8797	-0.9602	-2.8400	-2.3271	-1.3606	-3.6876	-2.2970	-1.3583	-3.6553	60.9587	99.9278	
   203	-1.8113	-1.0447	-2.8561	-2.2558	-1.4504	-3.7061	-2.2397	-1.4181	-3.6578	60.9605	99.9259	
   204	-1.7535	-1.0654	-2.8190	-2.1998	-1.4766	-3.6763	-2.1652	-1.4671	-3.6322	61.1874	99.9260	
   205	-1.7660	-1.1434	-2.9095	-2.2171	-1.5480	-3.7650	-2.2037	-1.5552	-3.7589	61.2221	99.9291	
   206	-2.0255	-1.5002	-3.5257	-2.5550	-2.0357	-4.5906	-2.7070	-2.0950	-4.8020	61.4396	99.9309	
   207	-2.3774	-1.8013	-4.1788	-2.8482	-2.2163	-5.0643	-2.9231	-2.1882	-5.1112	61.0096	99.9300	
   208	-2.3265	-1.6996	-4.0262	-2.7176	-2.0751	-4.7926	-2.7247	-2.0209	-4.7456	61.1037	99.9306	
   209	-1.9554	-1.3304	-3.2859	-2.2954	-1.5720	-3.8674	-2.1189	-1.3422	-3.4610	60.4341	99.9151	
   210	-1.1746	-0.5683	-1.7430	-1.4496	-0.7472	-2.1967	-1.1841	-0.6270	-1.8111	60.8844	99.9272	
   211	-1.3723	-0.1975	-1.5699	-1.5723	-0.2518	-1.8240	-1.3735	-0.0968	-1.4703	59.7921	99.9411	
   212	-1.4353	 0.3124	-1.1230	-1.5610	 0.3384	-1.2225	-1.2777	 0.3893	-0.8884	59.8042	99.9516	
   213	-1.2132	 0.5476	-0.6657	-1.2831	 0.5825	-0.7006	-1.0806	 0.5344	-0.5463	60.0197	99.9642	
   214	-1.1920	 0.5325	-0.6596	-1.2103	 0.5180	-0.6922	-1.1287	 0.4722	-0.6564	60.0381	99.9695	
   215	-1.2902	 0.5003	-0.7900	-1.2338	 0.5521	-0.6816	-1.1300	 0.4501	-0.6799	60.2272	99.9760	
   216	-1.4124	 0.4391	-0.9733	-1.3945	 0.4410	-0.9534	-1.3118	 0.2826	-1.0292	60.4440	99.9764	
   217	-1.7258	 0.1617	-1.5643	-1.9346	-0.0011	-1.9355	-2.0827	-0.2869	-2.3696	60.3461	99.9782	
   218	-2.2847	-0.1402	-2.4250	-2.6764	-0.4945	-3.1709	-2.9837	-0.8106	-3.7943	60.1284	99.9737	
   219	-3.2292	-0.8060	-4.0354	-3.8153	-1.2933	-5.1086	-4.1464	-1.5412	-5.6876	59.6812	99.9574	
   220	-3.6986	-1.0950	-4.7938	-4.0771	-1.3817	-5.4587	-3.9861	-1.2701	-5.2562	59.1919	99.9270	
   221	-2.0938	-0.5010	-2.5950	-2.2636	-0.6533	-2.9168	-1.8396	-0.5706	-2.4102	60.9364	99.9277	
   222	-0.9062	-0.4172	-1.3235	-1.3679	-1.1829	-2.5507	-1.6663	-1.3664	-3.0327	62.4310	99.9389	
   223	-1.7983	-1.5292	-3.3276	-2.3713	-2.0683	-4.4395	-2.4984	-2.1235	-4.6218	61.5845	99.9259	
   224	-2.1986	-1.6630	-3.8617	-2.6550	-2.0972	-4.7521	-2.6214	-2.0518	-4.6731	61.3693	99.9203	
   225	-2.0669	-1.4553	-3.5223	-2.4163	-1.8651	-4.2813	-2.3052	-1.7679	-4.0731	61.4753	99.9184	
   226	-1.5398	-1.0746	-2.6145	-1.9514	-1.3965	-3.3478	-1.8838	-1.3009	-3.1847	60.8359	99.9247	
   227	-1.8425	-0.6137	-2.4563	-2.2982	-0.7961	-3.0942	-2.1871	-0.6399	-2.8271	59.3628	99.9244	
   228	-1.9634	 0.0295	-1.9341	-2.1630	-0.0689	-2.2318	-1.9704	-0.0780	-2.0484	59.9431	99.9507	
   229	-1.7203	 0.3621	-1.3583	-1.8479	 0.2589	-1.5888	-1.7175	 0.1661	-1.5515	60.1770	99.9620	
   230	-1.2980	 0.6080	-0.6901	-1.4039	 0.4960	-0.9078	-1.3806	 0.3352	-1.0454	60.3092	99.9708	
   231	-1.1911	 0.5472	-0.6440	-1.3542	 0.3686	-0.9854	-1.4184	 0.0773	-1.3410	60.8166	99.9759	
   232	-1.8171	 0.0070	-1.8102	-2.2039	-0.3128	-2.5165	-2.5032	-0.6470	-3.1501	60.3078	99.9754	
   233	-2.6194	-0.4025	-3.0220	-3.1299	-0.8832	-4.0131	-3.5359	-1.2427	-4.7786	60.1924	99.9710	
   234	-3.5928	-1.0580	-4.6509	-4.2249	-1.5942	-5.8190	-4.5073	-1.8318	-6.3392	59.8254	99.9490	
   235	-3.3292	-0.9801	-4.3094	-3.7252	-1.2864	-5.0115	-3.5711	-1.2755	-4.8466	59.9829	99.9287	
   236	-1.7647	-0.4391	-2.2039	-1.9480	-0.9327	-2.8806	-1.9294	-0.9570	-2.8865	61.7330	99.9391	
   237	-1.6264	-1.1560	-2.7825	-2.1678	-1.7850	-3.9527	-2.3115	-1.9635	-4.2750	62.2716	99.9333	
   238	-2.2032	-1.8488	-4.0521	-2.7190	-2.4040	-5.1229	-2.8677	-2.4620	-5.3297	61.7901	99.9297	
   239	-2.3523	-1.8702	-4.2227	-2.7652	-2.3231	-5.0882	-2.7605	-2.2456	-5.0061	61.4503	99.9205	
   240	-1.9264	-1.4532	-3.3797	-2.2411	-1.8301	-4.0712	-2.1257	-1.7296	-3.8553	61.5392	99.9224	
   241	-1.5613	-0.8345	-2.3958	-1.9469	-1.0171	-2.9638	-1.7984	-0.8960	-2.6943	60.2315	99.9285	
   242	-1.9592	-0.3619	-2.3212	-2.3634	-0.5083	-2.8716	-2.2144	-0.3591	-2.5735	59.1779	99.9281	
   243	-1.8616	 0.2329	-1.6288	-2.1445	 0.1248	-2.0196	-2.0217	 0.0814	-1.9403	59.5613	99.9525	
   244	-1.6838	 0.4690	-1.2149	-1.8674	 0.3562	-1.5111	-1.8297	 0.2340	-1.5958	59.8346	99.9655	
   245	-1.3260	 0.7455	-0.5806	-1.3928	 0.6729	-0.7198	-1.3380	 0.4897	-0.8483	60.2895	99.9733	
   246	-1.3537	 0.5455	-0.8083	-1.4960	 0.3542	-1.1417	-1.6412	 0.0543	-1.5869	60.6146	99.9797	
   247	-2.0617	 0.1097	-1.9521	-2.3664	-0.1456	-2.5118	-2.6066	-0.4352	-3.0419	59.9894	99.9761	
   248	-2.6842	-0.1469	-2.8311	-3.1643	-0.6128	-3.7769	-3.5754	-0.9801	-4.5555	59.9273	99.9734	
   249	-3.6662	-0.8218	-4.4880	-4.3231	-1.4239	-5.7469	-4.6876	-1.7003	-6.3880	59.6368	99.9517	
   250	-3.6266	-0.8959	-4.5227	-4.0801	-1.2256	-5.3056	-3.9916	-1.1778	-5.1693	59.2532	99.9253	
   251	-2.1373	-0.3730	-2.5104	-2.4489	-0.6460	-3.0948	-2.1773	-0.5699	-2.7473	60.4613	99.9222	
   252	-1.6356	-0.6129	-2.2486	-2.0180	-1.4375	-3.4554	-2.3488	-1.8486	-4.1974	63.4457	99.9584	
   253	-2.4430	-1.6728	-4.1159	-2.9841	-2.2393	-5.2233	-3.1276	-2.2741	-5.4017	61.3180	99.9252	
   254	-2.5827	-1.5477	-4.1305	-2.9891	-2.0115	-5.0005	-2.9832	-1.9917	-4.9749	61.2595	99.9256	
   255	-2.3491	-1.2491	-3.5984	-2.7108	-1.6578	-4.3684	-2.6847	-1.6339	-4.3185	61.0779	99.9305	
   256	-2.2079	-1.0074	-3.2154	-2.6358	-1.3807	-4.0164	-2.6697	-1.2945	-3.9641	60.1785	99.9282	
   257	-2.3547	-0.4225	-2.7773	-2.7721	-0.5899	-3.3619	-2.6500	-0.4199	-3.0699	58.8248	99.9260	
   258	-2.4141	 0.2586	-2.1556	-2.6737	 0.1632	-2.5104	-2.4469	 0.2825	-2.1644	58.8090	99.9371	
   259	-2.0969	 0.7071	-1.3899	-2.3123	 0.6167	-1.6955	-2.2093	 0.5489	-1.6604	59.0993	99.9592	
   260	-1.7575	 1.0427	-0.7149	-1.9070	 0.9514	-0.9555	-1.9002	 0.8070	-1.0933	59.2466	99.9703	
   261	-1.7383	 1.1108	-0.6276	-1.8463	 1.0010	-0.8452	-1.8938	 0.8217	-1.0721	59.3680	99.9749	
   262	-2.0691	 0.7946	-1.2746	-2.3006	 0.5997	-1.7008	-2.5018	 0.2906	-2.2112	59.4751	99.9797	
   263	-2.7782	 0.5691	-2.2092	-3.1540	 0.2683	-2.8856	-3.4426	-0.0664	-3.5090	58.9999	99.9765	
   264	-3.5160	 0.1290	-3.3871	-4.1290	-0.3688	-4.4977	-4.5285	-0.7168	-5.2453	58.6635	99.9659	
   265	-4.3403	-0.3926	-4.7330	-4.9755	-0.7930	-5.7684	-5.0856	-0.8647	-5.9503	57.8051	99.9342	
   266	-3.1060	 0.1844	-2.9218	-3.4178	 0.0451	-3.3726	-3.0867	 0.0508	-3.0358	59.1315	99.9337	
   267	-1.7187	 0.7289	-0.9899	-2.1962	 0.1172	-2.0789	-2.4219	-0.1275	-2.5494	60.4424	99.9492	
   268	-2.8599	-0.5787	-3.4386	-3.4388	-1.1099	-4.5486	-3.5467	-1.2389	-4.7856	60.1225	99.9323	
   269	-3.2813	-0.6974	-3.9788	-3.7369	-1.0627	-4.7995	-3.6668	-1.0269	-4.6937	59.4546	99.9249	
   270	-3.0284	-0.4432	-3.4718	-3.4390	-0.8063	-4.2452	-3.3476	-0.7837	-4.1313	59.6371	99.9274	
   271	-2.7333	-0.1068	-2.8401	-3.1465	-0.4318	-3.5782	-3.0765	-0.4218	-3.4983	59.3573	99.9325	
   272	-2.8193	 0.2765	-2.5429	-3.3386	 0.0817	-3.2568	-3.3415	 0.2313	-3.1103	57.3149	99.9293	
   273	-3.1800	 0.9831	-2.1970	-3.6296	 0.9595	-2.6701	-3.4522	 1.0558	-2.3964	56.6585	99.9371	
   274	-3.0430	 1.6162	-1.4269	-3.3155	 1.5782	-1.7372	-3.3028	 1.5116	-1.7912	56.8911	99.9643	
   275	-2.8585	 1.9549	-0.9037	-3.1081	 1.9247	-1.1832	-3.1303	 1.8010	-1.3293	56.8697	99.9700	
   276	-2.7818	 2.2272	-0.5546	-2.9289	 2.2295	-0.6993	-2.9533	 2.0719	-0.8814	56.9768	99.9762	
   277	-2.9270	 2.1519	-0.7752	-3.1170	 2.0893	-1.0276	-3.2637	 1.7917	-1.4721	57.2367	99.9826	
   278	-3.7265	 1.7864	-1.9402	-4.0727	 1.6585	-2.4141	-4.3234	 1.3919	-2.9315	56.3038	99.9793	
   279	-4.3914	 1.6725	-2.7190	-4.9195	 1.3312	-3.5882	-5.3021	 0.9579	-4.3442	56.1737	99.9765	
   280	-5.3869	 1.0174	-4.3696	-6.1136	 0.5713	-5.5422	-6.4926	 0.3162	-6.1764	55.3019	99.9580	
   281	-5.3504	 1.0118	-4.3387	-5.8894	 0.8796	-5.0097	-5.7241	 0.9375	-4.7867	55.1770	99.9298	
   282	-4.0274	 1.4745	-2.5531	-4.4683	 1.1718	-3.2964	-4.4994	 1.2281	-3.2714	56.1659	99.9370	
   283	-4.1388	 1.2370	-2.9019	-4.6668	 0.6607	-4.0059	-4.9022	 0.3363	-4.5659	58.0449	99.9562	
   284	-4.8543	 0.5715	-4.2829	-5.4607	 0.2567	-5.2039	-5.4885	 0.2552	-5.2333	56.1448	99.9312	
   285	-4.9296	 0.8909	-4.0389	-5.4711	 0.6026	-4.8684	-5.4020	 0.5863	-4.8157	56.2354	99.9315	
   286	-4.6893	 1.1795	-3.5099	-5.1669	 0.9601	-4.2067	-5.0236	 0.9838	-4.0398	56.1481	99.9316	
   287	-4.3701	 1.5449	-2.8253	-4.9195	 1.3312	-3.5882	-4.8962	 1.3513	-3.5449	55.4497	99.9364	
   288	-4.6227	 1.9803	-2.6425	-5.3121	 1.9156	-3.3965	-5.3509	 1.9810	-3.3700	53.4351	99.9391	
   289	-5.0219	 2.6633	-2.3587	-5.5143	 2.6780	-2.8362	-5.5249	 2.7657	-2.7592	52.8058	99.9507	
   290	-4.9397	 3.2486	-1.6912	-5.3204	 3.3199	-2.0004	-5.3231	 3.2651	-2.0579	53.0415	99.9661	
   291	-4.7120	 3.6842	-1.0279	-5.0718	 3.8132	-1.2584	-5.1303	 3.7056	-1.4247	52.7013	99.9738	
   292	-4.7305	 3.9683	-0.7624	-5.0528	 4.1165	-0.9362	-5.1572	 3.9016	-1.2556	52.7312	99.9811	
   293	-5.3761	 3.6975	-1.6787	-5.7625	 3.7279	-2.0345	-6.0254	 3.4624	-2.5630	52.3679	99.9837	
   294	-6.1421	 3.6199	-2.5224	-6.6899	 3.5454	-3.1444	-7.0080	 3.2389	-3.7691	51.6340	99.9801	
   295	-6.9176	 3.2832	-3.6345	-7.6853	 2.9930	-4.6922	-8.0905	 2.6438	-5.4467	51.2370	99.9713	
   296	-7.7400	 2.7910	-4.9491	-8.5176	 2.5896	-5.9279	-8.6839	 2.5370	-6.1469	50.2471	99.9446	
   297	-6.3681	 3.4385	-2.9297	-6.7698	 3.4962	-3.2736	-6.4249	 3.5414	-2.8835	52.4187	99.9400	
   298	-5.0280	 4.0525	-0.9757	-5.6534	 4.0381	-1.6152	-5.4490	 3.6543	-1.7947	53.6822	99.9589	
   299	-6.1675	 2.9992	-3.1684	-7.1240	 2.6462	-4.4778	-7.2580	 2.4005	-4.8575	52.3002	99.9373	
   300	-7.0672	 2.7971	-4.2702	-7.7658	 2.6275	-5.1382	-7.7815	 2.6250	-5.1565	51.3087	99.9371	
   301	-7.1888	 3.0881	-4.1008	-7.7844	 2.9440	-4.8403	-7.7130	 2.9342	-4.7788	51.5010	99.9394	
   302	-7.1640	 3.3566	-3.8075	-7.8105	 3.2439	-4.5665	-7.7410	 3.2040	-4.5370	51.0898	99.9410	
   303	-7.0083	 3.5931	-3.4153	-7.6078	 3.5145	-4.0932	-7.4584	 3.5732	-3.8852	50.9249	99.9332	
   304	-6.5363	 4.1511	-2.3853	-7.2380	 4.2040	-3.0339	-7.1913	 4.3264	-2.8649	49.4074	99.9379	
   305	-6.8786	 4.7986	-2.0801	-7.4844	 4.9756	-2.5087	-7.4219	 5.0012	-2.4207	48.8112	99.9549	
   306	-6.9283	 5.4012	-1.5272	-7.5268	 5.6300	-1.8967	-7.5747	 5.5864	-1.9883	47.9502	99.9668	
   307	-6.9240	 5.9245	-0.9996	-7.3858	 6.1420	-1.2437	-7.5524	 6.0475	-1.5049	47.7810	99.9783	
   308	-7.0485	 6.2840	-0.7646	-7.4976	 6.6077	-0.8898	-7.5838	 6.4428	-1.1410	47.5469	99.9808	
   309	-7.5960	 6.1580	-1.4381	-8.1645	 6.3913	-1.7731	-8.3701	 6.0765	-2.2936	47.2238	99.9837	
   310	-8.5535	 5.9766	-2.5770	-9.1735	 6.1343	-3.0391	-9.4261	 5.8280	-3.5981	46.4173	99.9826	
   311	-9.2299	 5.7994	-3.4307	-10.0383	 5.7230	-4.3152	-10.4017	 5.3533	-5.0484	45.9675	99.9775	
   312	-10.0494	 5.2386	-4.8109	-11.0051	 5.1153	-5.8898	-11.2744	 4.9327	-6.3417	44.9626	99.9568	
   313	-9.3500	 5.5425	-3.8075	-9.9898	 5.6800	-4.3097	-9.8248	 5.7372	-4.0876	46.2375	99.9448	
   314	-8.0897	 6.0652	-2.0246	-8.8397	 6.1455	-2.6941	-8.6489	 6.1354	-2.5135	47.0613	99.9386	
   315	-8.7206	 5.5642	-3.1564	-9.7220	 5.2496	-4.4723	-9.9920	 5.0786	-4.9134	46.4496	99.9431	
   316	-9.8451	 4.9704	-4.8748	-10.5685	 4.8254	-5.7430	-10.5612	 4.7316	-5.8296	47.0401	99.9447	
   317	-10.1636	 4.8447	-5.3189	-10.8968	 4.6960	-6.2008	-10.8599	 4.7354	-6.1245	46.4417	99.9322	
   318	-10.3582	 5.0345	-5.3238	-11.0068	 4.8834	-6.1234	-10.9475	 4.9359	-6.0116	46.4373	99.9345	
   319	-10.3026	 5.3219	-4.9808	-10.8973	 5.3032	-5.5940	-10.6961	 5.3387	-5.3574	46.5065	99.9377	
   320	-10.2854	 5.4732	-4.8123	-10.9286	 5.4176	-5.5109	-10.7954	 5.4359	-5.3595	46.1681	99.9387	
   321	-10.5615	 5.3173	-5.2443	-11.1995	 5.0806	-6.1188	-11.1203	 5.0082	-6.1121	46.8930	99.9381	
   322	-10.7133	 5.0269	-5.6865	-11.3374	 4.9227	-6.4147	-11.1951	 4.9612	-6.2339	46.3816	99.9345	
   323	-10.5471	 5.3121	-5.2350	-11.1183	 5.2521	-5.8661	-10.9891	 5.3461	-5.6430	46.0528	99.9370	
   324	-10.2751	 5.7469	-4.5283	-10.8837	 5.7246	-5.1590	-10.7235	 5.8004	-4.9231	45.8217	99.9367	
   325	-10.0640	 6.3834	-3.6807	-10.6253	 6.2726	-4.3525	-10.5771	 6.1160	-4.4611	46.3955	99.9566	
   326	-10.6148	 5.6363	-4.9786	-11.3517	 5.4121	-5.9395	-11.3373	 5.2657	-6.0716	46.1837	99.9433	
   327	-10.7993	 5.4101	-5.3893	-11.6483	 5.2779	-6.3703	-11.6547	 5.2366	-6.4181	44.9782	99.9364	
   328	-10.9092	 5.5395	-5.3698	-11.7842	 5.4615	-6.3225	-11.7741	 5.4596	-6.3145	44.3699	99.9344	
   329	-10.8747	 5.7295	-5.1453	-11.7641	 5.6805	-6.0835	-11.7492	 5.6881	-6.0610	44.0537	99.9344	
   330	-10.7508	 5.9325	-4.8184	-11.6221	 5.9015	-5.7205	-11.5952	 5.9445	-5.6507	43.9080	99.9332	
   331	-10.4699	 6.1616	-4.3084	-11.3760	 6.1504	-5.2255	-11.3928	 6.1782	-5.2147	43.6634	99.9366	
   332	-10.4536	 6.1858	-4.2679	-11.4610	 6.1223	-5.3386	-11.5883	 6.1512	-5.4371	43.0420	99.9350	
   333	-10.7567	 6.0695	-4.6872	-11.7944	 6.0141	-5.7803	-11.8683	 6.0071	-5.8612	43.0393	99.9329	
   334	-11.0684	 5.9339	-5.1345	-12.1428	 5.8724	-6.2703	-12.2256	 5.8678	-6.3578	42.6909	99.9309	
   335	-11.3821	 5.8815	-5.5007	-12.4974	 5.8362	-6.6610	-12.5569	 5.8831	-6.6738	42.1067	99.9238	
   336	-11.8008	 5.9192	-5.8817	-12.8648	 5.9015	-6.9632	-12.8395	 5.9716	-6.8678	42.0007	99.9209	
   337	-12.4528	 6.3480	-6.1049	-13.3006	 6.4106	-6.8899	-13.0915	 6.4732	-6.6183	42.2611	99.9273	
   338	-12.8371	 6.5758	-6.2614	-13.6214	 6.5046	-7.1167	-13.4313	 6.4407	-6.9906	42.8019	99.9337	
   339	-13.0465	 6.1935	-6.8531	-13.8010	 6.0902	-7.7108	-13.6786	 6.1043	-7.5744	42.6211	99.9320	
   340	-12.5681	 6.1644	-6.4038	-13.2439	 6.1904	-7.0534	-12.9931	 6.2689	-6.7242	43.1972	99.9308	
   341	-11.8410	 6.6683	-5.1727	-12.6700	 6.7626	-5.9073	-12.4555	 6.7345	-5.7211	42.8801	99.9365	
   342	-12.1538	 6.6306	-5.5233	-12.9816	 6.5950	-6.3865	-12.7790	 6.6057	-6.1732	42.8996	99.9267	
   343	-12.0065	 6.6227	-5.3838	-12.8221	 6.5838	-6.2382	-12.6929	 6.5640	-6.1288	42.9400	99.9345	
   344	-12.0989	 6.6784	-5.4206	-12.9008	 6.6569	-6.2439	-12.7373	 6.6532	-6.0841	42.8619	99.9329	
   345	-12.1038	 6.7176	-5.3863	-12.9553	 6.7084	-6.2468	-12.7895	 6.7055	-6.0840	42.5948	99.9306	
   346	-12.0452	 6.8241	-5.2212	-12.8663	 6.7996	-6.0665	-12.6527	 6.7702	-5.8825	43.0068	99.9302	
   347	-11.9018	 6.8701	-5.0318	-12.7170	 6.8309	-5.8861	-12.5383	 6.8315	-5.7068	42.9404	99.9297	
   348	-11.8470	 6.9179	-4.9292	-12.6696	 6.8722	-5.7973	-12.5183	 6.8866	-5.6317	42.7930	99.9297	
   349	-11.8278	 6.9860	-4.8419	-12.6641	 6.9607	-5.7033	-12.5143	 6.9530	-5.5613	42.7006	99.9320	
   350	-11.8250	 7.0300	-4.7951	-12.6801	 7.0115	-5.6684	-12.5231	 6.9900	-5.5331	42.6456	99.9319	
   351	-11.8760	 7.0408	-4.8353	-12.7251	 7.0081	-5.7169	-12.5665	 7.0053	-5.5612	42.5994	99.9299	
   352	-11.8163	 7.0494	-4.7671	-12.6409	 7.0235	-5.6173	-12.4771	 7.0190	-5.4581	42.7444	99.9315	
   353	-11.7779	 7.0730	-4.7049	-12.6319	 7.0656	-5.5662	-12.4687	 7.0668	-5.4018	42.5600	99.9306	
   354	-11.7972	 7.1175	-4.6798	-12.6362	 7.0994	-5.5367	-12.4877	 7.1188	-5.3689	42.4766	99.9305	
   355	-11.8020	 7.1567	-4.6454	-12.6514	 7.1629	-5.4884	-12.4958	 7.1669	-5.3290	42.3933	99.9321	
   356	-11.8136	 7.2058	-4.6079	-12.6800	 7.2182	-5.4617	-12.4989	 7.2075	-5.2914	42.4022	99.9308	
   357	-11.7809	 7.2541	-4.5270	-12.6075	 7.2507	-5.3567	-12.4559	 7.2771	-5.1789	42.3545	99.9314	
   358	-11.6982	 7.2769	-4.4214	-12.5358	 7.2705	-5.2651	-12.3889	 7.2873	-5.1016	42.4005	99.9316	
   359	-11.7040	 7.3014	-4.4026	-12.5593	 7.3047	-5.2545	-12.4099	 7.3060	-5.1039	42.3368	99.9322	
   360	-11.7098	 7.3260	-4.3839	-12.5585	 7.3173	-5.2411	-12.4302	 7.3358	-5.0944	42.2360	99.9320	
   361	-11.7156	 7.3506	-4.3651	-12.5761	 7.3429	-5.2331	-12.4665	 7.3769	-5.0896	42.0341	99.9316	
   362	-11.7214	 7.3752	-4.3463	-12.5737	 7.3808	-5.1928	-12.4211	 7.3947	-5.0264	42.2256	99.9314	
   363	-11.6165	 7.3975	-4.2191	-12.4511	 7.3956	-5.0554	-12.3036	 7.4154	-4.8882	42.3617	99.9319	
   364	-11.5925	 7.4264	-4.1662	-12.4487	 7.4335	-5.0151	-12.3023	 7.4375	-4.8648	42.2982	99.9324	
   365	-11.5915	 7.4410	-4.1506	-12.4421	 7.4376	-5.0043	-12.3124	 7.4524	-4.8600	42.2434	99.9325	
   366	-11.6050	 7.4609	-4.1442	-12.4546	 7.4421	-5.0124	-12.3233	 7.4562	-4.8671	42.2804	99.9315	
   367	-11.6194	 7.4661	-4.1535	-12.4914	 7.4680	-5.0233	-12.3494	 7.4824	-4.8670	42.1428	99.9308	
   368	-11.5588	 7.4893	-4.0696	-12.4064	 7.4961	-4.9102	-12.2427	 7.5069	-4.7358	42.3513	99.9313	
   369	-11.4770	 7.4974	-3.9797	-12.3296	 7.4948	-4.8347	-12.1770	 7.4950	-4.6820	42.4340	99.9319	
   370	-11.4770	 7.4974	-3.9797	-12.3547	 7.5036	-4.8509	-12.1885	 7.4877	-4.7008	42.4164	99.9313	
   371	-11.4992	 7.4979	-4.0014	-12.3797	 7.5125	-4.8671	-12.2427	 7.5069	-4.7358	42.2065	99.9329	
   372	-11.5146	 7.4884	-4.0262	-12.4005	 7.4875	-4.9129	-12.2823	 7.4926	-4.7897	42.1249	99.9321	
   373	-11.5223	 7.4837	-4.0387	-12.3880	 7.4831	-4.9048	-12.2383	 7.4884	-4.7499	42.3159	99.9311	
   374	-11.4404	 7.4918	-3.9487	-12.2920	 7.4815	-4.8104	-12.1546	 7.4984	-4.6563	42.3882	99.9313	
   375	-11.4328	 7.4966	-3.9363	-12.3037	 7.4985	-4.8051	-12.1661	 7.4911	-4.6750	42.3617	99.9327	
   376	-11.4337	 7.4819	-3.9519	-12.3178	 7.4777	-4.8400	-12.1949	 7.4730	-4.7219	42.2804	99.9324	
   377	-11.4577	 7.4530	-4.0048	-12.3637	 7.4616	-4.9020	-12.2511	 7.4590	-4.7921	42.1070	99.9324	
   378	-11.4943	 7.4587	-4.0358	-12.3896	 7.4578	-4.9316	-12.2511	 7.4590	-4.7921	42.2256	99.9305	
   379	-11.4193	 7.4767	-3.9426	-12.2677	 7.4600	-4.8076	-12.1126	 7.4609	-4.6517	42.5801	99.9310	
   380	-11.3307	 7.4750	-3.8559	-12.1893	 7.4840	-4.7053	-12.0493	 7.5007	-4.5486	42.4234	99.9318	
   381	-11.2201	 7.5852	-3.6350	-12.0569	 7.5534	-4.5034	-11.8972	 7.5430	-4.3542	42.8325	99.9313	
   382	-11.2355	 7.5758	-3.6599	-12.0785	 7.5158	-4.5625	-11.9497	 7.4994	-4.4503	42.8091	99.9317	
   383	-11.2884	 7.5573	-3.7313	-12.1270	 7.5588	-4.5681	-11.9521	 7.5511	-4.4010	42.7129	99.9320	
   384	-11.0961	 7.6757	-3.4205	-11.9295	 7.6440	-4.2854	-11.7604	 7.6077	-4.1527	43.0124	99.9328	
   385	-11.0499	 7.7041	-3.3459	-11.8668	 7.6219	-4.2449	-11.7170	 7.5924	-4.1247	43.1778	99.9314	
   386	-11.0489	 7.7188	-3.3303	-11.9021	 7.6731	-4.2289	-11.7533	 7.6335	-4.1199	42.9325	99.9324	
   387	-11.0769	 7.7438	-3.3332	-11.9405	 7.6737	-4.2666	-11.8160	 7.6047	-4.2112	42.9466	99.9341	
   388	-11.2462	 7.6396	-3.6067	-12.1772	 7.5765	-4.6005	-12.0926	 7.5160	-4.5766	42.4128	99.9328	
   389	-11.4261	 7.5991	-3.8271	-12.2555	 7.5525	-4.7029	-12.0811	 7.5232	-4.5579	42.8264	99.9313	
   390	-11.2394	 7.6296	-3.6099	-12.0420	 7.5869	-4.4550	-11.8437	 7.5128	-4.3309	43.3148	99.9346	
   391	-11.1942	 7.6434	-3.5509	-12.0279	 7.6077	-4.4200	-11.8684	 7.5611	-4.3073	42.9610	99.9339	
   392	-11.2086	 7.6486	-3.5601	-12.0420	 7.5869	-4.4550	-11.9094	 7.5247	-4.3847	42.9924	99.9353	
   393	-11.2462	 7.6396	-3.6067	-12.0553	 7.5787	-4.4765	-11.9080	 7.5469	-4.3612	42.9981	99.9335	
   394	-11.1798	 7.6382	-3.5416	-11.9777	 7.5900	-4.3876	-11.8034	 7.5381	-4.2652	43.2319	99.9345	
   395	-10.9978	 7.5955	-3.4024	-11.7874	 7.5615	-4.2257	-11.5889	 7.5132	-4.0757	43.4982	99.9339	
   396	-10.8765	 7.5295	-3.3471	-11.6887	 7.5008	-4.1878	-11.4913	 7.4787	-4.0126	43.4694	99.9310	
   397	-10.8091	 7.5428	-3.2664	-11.5985	 7.5077	-4.0907	-11.4134	 7.4851	-3.9283	43.5853	99.9328	
   398	-10.7196	 7.5557	-3.1640	-11.5135	 7.5358	-3.9776	-11.3227	 7.5209	-3.8018	43.5813	99.9325	
   399	-10.6619	 7.5350	-3.1270	-11.4767	 7.5099	-3.9667	-11.3017	 7.5021	-3.7995	43.5111	99.9315	
   400	-10.5743	 7.5185	-3.0558	-11.3490	 7.5035	-3.8454	-11.1045	 7.4664	-3.6381	44.0785	99.9318	
   401	-10.3634	 7.4654	-2.8981	-11.1343	 7.4535	-3.6808	-10.9232	 7.4419	-3.4813	44.1107	99.9325	
   402	-10.2739	 7.4783	-2.7957	-11.0317	 7.4560	-3.5756	-10.8402	 7.4408	-3.3994	44.2089	99.9341	
   403	-10.2104	 7.4330	-2.7774	-10.9831	 7.4130	-3.5701	-10.7925	 7.4070	-3.3855	44.2089	99.9327	
   404	-10.1449	 7.4170	-2.7280	-10.9197	 7.4035	-3.5161	-10.7274	 7.3840	-3.3434	44.3071	99.9339	
   405	-10.0342	 7.4148	-2.6195	-10.7861	 7.3886	-3.3974	-10.5607	 7.3929	-3.1678	44.5741	99.9304	
   406	-9.7840	 7.4000	-2.3840	-10.5299	 7.3885	-3.1413	-10.2921	 7.3489	-2.9432	44.9875	99.9339	
   407	-9.6675	 7.3733	-2.2943	-10.4296	 7.3530	-3.0765	-10.2053	 7.3182	-2.8871	45.0247	99.9329	
   408	-9.5549	 7.4004	-2.1546	-10.2862	 7.3928	-2.8933	-10.0194	 7.3712	-2.6482	45.2728	99.9316	
   409	-9.3308	 7.5524	-1.7785	-10.1055	 7.5162	-2.5892	-9.8921	 7.4618	-2.4303	45.2200	99.9334	
   410	-9.4424	 7.5399	-1.9026	-10.2364	 7.4720	-2.7643	-10.0340	 7.4046	-2.6294	45.1814	99.9321	
   411	-9.3770	 7.5240	-1.8531	-10.1103	 7.4404	-2.6698	-9.8751	 7.3767	-2.4984	45.6303	99.9321	
   412	-9.2374	 7.5114	-1.7261	-9.9951	 7.4385	-2.5565	-9.7870	 7.3682	-2.4188	45.5707	99.9336	
   413	-9.2094	 7.4864	-1.7232	-9.9716	 7.4043	-2.5672	-9.7775	 7.3422	-2.4353	45.5558	99.9331	
   414	-9.2421	 7.4381	-1.8041	-10.0324	 7.3547	-2.6775	-9.8537	 7.2731	-2.5806	45.4885	99.9339	
   415	-9.3037	 7.4002	-1.9036	-10.0966	 7.3516	-2.7449	-9.9042	 7.2627	-2.6415	45.4061	99.9354	
   416	-9.2132	 7.4278	-1.7856	-9.9505	 7.3323	-2.6181	-9.7273	 7.2567	-2.4706	45.8917	99.9327	
   417	-9.0563	 7.3415	-1.7149	-9.7942	 7.2706	-2.5235	-9.6081	 7.2145	-2.3935	45.8168	99.9351	
   418	-8.9677	 7.3397	-1.6281	-9.6990	 7.2564	-2.4426	-9.5206	 7.1950	-2.3257	45.9584	99.9356	
   419	-8.8743	 7.2987	-1.5757	-9.6313	 7.2130	-2.4181	-9.4525	 7.1313	-2.3212	46.0709	99.9354	
   420	-8.8675	 7.1763	-1.6913	-9.6258	 7.0949	-2.5309	-9.4687	 7.0466	-2.4221	45.9667	99.9345	
   421	-8.8597	 7.0685	-1.7912	-9.6165	 7.0399	-2.5765	-9.3897	 6.9792	-2.4105	46.1735	99.9340	
   422	-8.5978	 7.0046	-1.5933	-9.2874	 6.9753	-2.3120	-9.0808	 6.9604	-2.1203	46.4659	99.9355	
   423	-8.4005	 6.9713	-1.4292	-9.1088	 6.9639	-2.1448	-8.8880	 6.9432	-1.9448	46.5969	99.9352	
   424	-8.3014	 7.0183	-1.2832	-8.9846	 7.0039	-1.9805	-8.7678	 7.0081	-1.7597	46.6527	99.9346	
   425	-8.1580	 7.0643	-1.0938	-8.8521	 7.0734	-1.7786	-8.6374	 7.0581	-1.5793	46.6805	99.9369	
   426	-8.1013	 7.1414	-0.9600	-8.7604	 7.1056	-1.6548	-8.5856	 7.0906	-1.4950	46.8062	99.9387	
   427	-7.9414	 6.9866	-0.9549	-8.6038	 6.9469	-1.6568	-8.4029	 6.9074	-1.4955	47.2618	99.9382	
   428	-7.8016	 6.7490	-1.0527	-8.5244	 6.6799	-1.8444	-8.4241	 6.6493	-1.7748	47.1127	99.9389	
   429	-8.0033	 6.3716	-1.6319	-8.7953	 6.3429	-2.4523	-8.7186	 6.3578	-2.3607	46.6302	99.9358	
   430	-8.1841	 6.2040	-1.9802	-8.9450	 6.2021	-2.7429	-8.8364	 6.2412	-2.5951	46.6514	99.9352	
   431	-8.1601	 6.2329	-1.9273	-8.9552	 6.2444	-2.7107	-8.8777	 6.2897	-2.5880	46.3471	99.9357	
   432	-8.0725	 6.2164	-1.8561	-8.8064	 6.1660	-2.6403	-8.6385	 6.2165	-2.4220	47.1746	99.9288	
   433	-7.1947	 6.1940	-1.0008	-7.9186	 6.2269	-1.6916	-7.8107	 6.3535	-1.4572	47.2206	99.9326	
   434	-6.3537	 6.4022	 0.0484	-7.1616	 6.4503	-0.7112	-7.1557	 6.5628	-0.5929	47.1356	99.9364	
   435	-6.1902	 6.5310	 0.3407	-7.0667	 6.5330	-0.5337	-7.1015	 6.5437	-0.5578	47.3234	99.9399	
   436	-6.3295	 6.2061	-0.1235	-7.2851	 6.2162	-1.0688	-7.3838	 6.2705	-1.1134	46.8037	99.9370	
   437	-6.7065	 5.9739	-0.7327	-7.6316	 6.0028	-1.6287	-7.7590	 6.1092	-1.6498	46.4205	99.9379	
   438	-6.9095	 5.9193	-0.9903	-7.7550	 5.9754	-1.7795	-7.8420	 6.1103	-1.7318	46.5056	99.9392	
   439	-6.9039	 6.0072	-0.8967	-7.7553	 6.0723	-1.6829	-7.8902	 6.2290	-1.6612	46.1347	99.9409	
   440	-7.0453	 5.9905	-1.0549	-7.9430	 6.0418	-1.9011	-8.0697	 6.1907	-1.8790	45.9657	99.9378	
   441	-7.1147	 6.0604	-1.0544	-7.9817	 6.1394	-1.8422	-8.0969	 6.2907	-1.8062	45.8827	99.9402	
   442	-7.1272	 6.0948	-1.0325	-8.0319	 6.1571	-1.8746	-8.1843	 6.3103	-1.8740	45.6303	99.9395	
   443	-7.2408	 6.0531	-1.1878	-8.1169	 6.1291	-1.9877	-8.2023	 6.2884	-1.9138	45.8307	99.9371	
   444	-7.0483	 6.0590	-0.9893	-7.9049	 6.1381	-1.7667	-8.0343	 6.3195	-1.7148	45.8227	99.9395	
   445	-7.0714	 6.0448	-1.0266	-7.9708	 6.1097	-1.8609	-8.1582	 6.2841	-1.8741	45.5333	99.9405	
   446	-7.2003	 5.9936	-1.2068	-8.1193	 6.0911	-2.0280	-8.2866	 6.2673	-2.0192	45.3392	99.9401	
   447	-7.2513	 6.0044	-1.2470	-8.2152	 6.0928	-2.1224	-8.3926	 6.2539	-2.1387	45.1737	99.9389	
   448	-7.3524	 6.0407	-1.3118	-8.3163	 6.1156	-2.2006	-8.5010	 6.2923	-2.2088	45.0159	99.9375	
   449	-7.2379	 6.0971	-1.1410	-8.1662	 6.1594	-2.0067	-8.3306	 6.2716	-2.0590	45.5484	99.9419	
   450	-7.1648	 6.0858	-1.0790	-8.2062	 6.1348	-2.0713	-8.3838	 6.2169	-2.1669	45.3301	99.9381	
   451	-7.3322	 6.0109	-1.3214	-8.3794	 6.0281	-2.3512	-8.5870	 6.1531	-2.4339	45.0723	99.9347	
   452	-7.3995	 5.9976	-1.4020	-8.4311	 6.0205	-2.4105	-8.6157	 6.1350	-2.4807	45.1784	99.9352	
   453	-7.4755	 5.9649	-1.5108	-8.5295	 5.9842	-2.5452	-8.7238	 6.0884	-2.6354	45.0713	99.9352	
   454	-7.5977	 5.9037	-1.6941	-8.6220	 5.9394	-2.6825	-8.7220	 6.0256	-2.6964	45.4657	99.9329	
   455	-7.4022	 5.8411	-1.5612	-8.3638	 5.8676	-2.4962	-8.4656	 5.9633	-2.5023	45.9173	99.9351	
   456	-7.2877	 5.7850	-1.5027	-8.2609	 5.7731	-2.4877	-8.4204	 5.8852	-2.5353	45.9034	99.9346	
   457	-7.2769	 5.6087	-1.6683	-8.2476	 5.5747	-2.6729	-8.4095	 5.7005	-2.7090	46.1006	99.9324	
   458	-7.2633	 5.4764	-1.7870	-8.2422	 5.4565	-2.7856	-8.4016	 5.5564	-2.8452	46.2530	99.9345	
   459	-7.2468	 5.3880	-1.8589	-8.2470	 5.3807	-2.8662	-8.3947	 5.4862	-2.9085	46.2457	99.9329	
   460	-7.1024	 5.3362	-1.7663	-8.0523	 5.3184	-2.7338	-8.1542	 5.4351	-2.7191	46.7619	99.9310	
   461	-6.8772	 5.2779	-1.5993	-7.8008	 5.2424	-2.5583	-7.9373	 5.3585	-2.5788	47.0544	99.9336	
   462	-6.8145	 5.2180	-1.5966	-7.7722	 5.1871	-2.5850	-7.9190	 5.2955	-2.6235	47.0196	99.9332	
   463	-6.8097	 5.1788	-1.6310	-7.7570	 5.1236	-2.6333	-7.9325	 5.2551	-2.6774	46.9986	99.9324	
   464	-6.8125	 5.1348	-1.6778	-7.7903	 5.1031	-2.6871	-7.9518	 5.2110	-2.7408	46.9776	99.9330	
   465	-6.8221	 5.1008	-1.7215	-7.7868	 5.0567	-2.7300	-7.9430	 5.1740	-2.7690	47.0754	99.9318	
   466	-6.6334	 5.0481	-1.5854	-7.5780	 5.0152	-2.5627	-7.6960	 5.1376	-2.5584	47.4369	99.9306	
   467	-6.5111	 4.9967	-1.5145	-7.4609	 4.9415	-2.5193	-7.6068	 5.0553	-2.5516	47.5907	99.9314	
   468	-6.5217	 4.9480	-1.5738	-7.4825	 4.9039	-2.5785	-7.6319	 5.0076	-2.6243	47.5704	99.9324	
   469	-6.5390	 4.9092	-1.6298	-7.4990	 4.8452	-2.6537	-7.6678	 4.9638	-2.7040	47.5432	99.9313	
   470	-6.5640	 4.8657	-1.6983	-7.5456	 4.8164	-2.7291	-7.7246	 4.9387	-2.7860	47.3796	99.9315	
   471	-6.5726	 4.8463	-1.7264	-7.5272	 4.8035	-2.7236	-7.6596	 4.9157	-2.7439	47.6611	99.9310	
   472	-6.3830	 4.8083	-1.5747	-7.3192	 4.7494	-2.5697	-7.4414	 4.8612	-2.5802	48.0249	99.9303	
   473	-6.3136	 4.7384	-1.5752	-7.2597	 4.6767	-2.5829	-7.4346	 4.7910	-2.6436	47.9333	99.9328	
   474	-6.3463	 4.6902	-1.6562	-7.2954	 4.6183	-2.6770	-7.4769	 4.7324	-2.7444	47.9520	99.9324	
   475	-6.3866	 4.6372	-1.7495	-7.3444	 4.5516	-2.7927	-7.5351	 4.6852	-2.8499	47.8799	99.9301	
   476	-6.4405	 4.6040	-1.8366	-7.4161	 4.5317	-2.8842	-7.5927	 4.6490	-2.9436	47.8598	99.9303	
   477	-6.4193	 4.5889	-1.8305	-7.3409	 4.5052	-2.8356	-7.4944	 4.6256	-2.8688	48.1924	99.9308	
   478	-6.2460	 4.5268	-1.7193	-7.1779	 4.4476	-2.7302	-7.3324	 4.5571	-2.7753	48.3871	99.9313	
   479	-6.2142	 4.4479	-1.7664	-7.1893	 4.3677	-2.8216	-7.3767	 4.4654	-2.9114	48.2699	99.9319	
   480	-6.2468	 4.3996	-1.8473	-7.2058	 4.3089	-2.8968	-7.4126	 4.4216	-2.9911	48.2568	99.9323	
   481	-6.2959	 4.3272	-1.9687	-7.2932	 4.2429	-3.0502	-7.5118	 4.3379	-3.1739	48.1451	99.9327	
   482	-6.4469	 4.2765	-2.1706	-7.4500	 4.1950	-3.2549	-7.6625	 4.3177	-3.3448	47.9419	99.9299	
   483	-6.4152	 4.3101	-2.1052	-7.3575	 4.2398	-3.1176	-7.5213	 4.3639	-3.1574	48.2765	99.9307	
   484	-6.3122	 4.3031	-2.0092	-7.2748	 4.2300	-3.0448	-7.4664	 4.3558	-3.1106	48.2112	99.9311	
   485	-6.3777	 4.3191	-2.0587	-7.3250	 4.2477	-3.0772	-7.4990	 4.3673	-3.1317	48.2699	99.9314	
   486	-6.3988	 4.3342	-2.0648	-7.3684	 4.2695	-3.0988	-7.5532	 4.3865	-3.1667	48.1067	99.9315	
   487	-6.5172	 4.3317	-2.1857	-7.5036	 4.2591	-3.2444	-7.6931	 4.3624	-3.3306	48.0078	99.9315	
   488	-6.6144	 4.3140	-2.3005	-7.5694	 4.2307	-3.3386	-7.7378	 4.3556	-3.3822	48.0802	99.9295	
   489	-6.5394	 4.3321	-2.2074	-7.4535	 4.2414	-3.2119	-7.6043	 4.3650	-3.2393	48.3676	99.9302	
   490	-6.5249	 4.3269	-2.1981	-7.4660	 4.2458	-3.2200	-7.6267	 4.3616	-3.2651	48.2502	99.9306	
   491	-6.6058	 4.3334	-2.2724	-7.5302	 4.2427	-3.2874	-7.7046	 4.3552	-3.3494	48.2305	99.9321	
   492	-6.6519	 4.3050	-2.3470	-7.5961	 4.2143	-3.3817	-7.7665	 4.3375	-3.4290	48.1193	99.9299	
   493	-6.7251	 4.3163	-2.4090	-7.6713	 4.2409	-3.4303	-7.8533	 4.3682	-3.4851	47.9230	99.9313	
   494	-6.8292	 4.4210	-2.4082	-7.7511	 4.3982	-3.3528	-7.8439	 4.5231	-3.3208	47.9454	99.9303	
   495	-6.8476	 4.5926	-2.2551	-7.7024	 4.5619	-3.1405	-7.7797	 4.6699	-3.1098	48.1542	99.9339	
   496	-6.9411	 4.7461	-2.1951	-7.7572	 4.7104	-3.0467	-7.8252	 4.8329	-2.9923	48.0644	99.9342	
   497	-7.0106	 4.9284	-2.0822	-7.8088	 4.9094	-2.8993	-7.8196	 5.0174	-2.8022	48.0915	99.9337	
   498	-6.9512	 5.1620	-1.7892	-7.7296	 5.1527	-2.5768	-7.6900	 5.2372	-2.4528	48.2272	99.9339	
   499	-6.8310	 5.3064	-1.5247	-7.6331	 5.2607	-2.3723	-7.5979	 5.2951	-2.3028	48.4255	99.9344	
   500	-6.8175	 5.2865	-1.5311	-7.5579	 5.2341	-2.3237	-7.5040	 5.2902	-2.2139	48.6742	99.9345	
   501	-6.7327	 5.2261	-1.5067	-7.5109	 5.1658	-2.3450	-7.4820	 5.1976	-2.2844	48.7072	99.9353	
   502	-6.7875	 5.1783	-1.6093	-7.5635	 5.1457	-2.4177	-7.4948	 5.1682	-2.3266	48.7770	99.9352	
   503	-6.8028	 5.0564	-1.7466	-7.5929	 4.9817	-2.6111	-7.5750	 5.0327	-2.5423	48.7017	99.9330	
   504	-6.8624	 4.9353	-1.9272	-7.6576	 4.8689	-2.7886	-7.6366	 4.9301	-2.7064	48.6828	99.9322	
   505	-6.8613	 4.8374	-2.0240	-7.6256	 4.7672	-2.8583	-7.5850	 4.8667	-2.7183	48.8167	99.9294	
   506	-6.6591	 4.7649	-1.8943	-7.3991	 4.7001	-2.6989	-7.3675	 4.8012	-2.5663	49.0843	99.9315	
   507	-6.5753	 4.6899	-1.8856	-7.3228	 4.5892	-2.7335	-7.3563	 4.7124	-2.6438	49.0289	99.9313	
   508	-6.5685	 4.5675	-2.0011	-7.3742	 4.4846	-2.8894	-7.3860	 4.5873	-2.7987	49.0305	99.9292	
   509	-6.5953	 4.4946	-2.1008	-7.3989	 4.3965	-3.0023	-7.4296	 4.5067	-2.9229	49.0446	99.9290	
   510	-6.6001	 4.4214	-2.1788	-7.4221	 4.3337	-3.0883	-7.4553	 4.4479	-3.0074	48.9808	99.9284	
   511	-6.5423	 4.4006	-2.1418	-7.3210	 4.3109	-3.0100	-7.3022	 4.4164	-2.8857	49.4154	99.9279	
   512	-6.3979	 4.3488	-2.0492	-7.1831	 4.2622	-2.9209	-7.1951	 4.3560	-2.8391	49.4934	99.9306	
   513	-6.3931	 4.3096	-2.0835	-7.1745	 4.1945	-2.9799	-7.2137	 4.3230	-2.8907	49.4302	99.9281	
   514	-6.4017	 4.2902	-2.1116	-7.1996	 4.2034	-2.9961	-7.2042	 4.2971	-2.9071	49.5264	99.9294	
   515	-6.3940	 4.2950	-2.0991	-7.1871	 4.1990	-2.9880	-7.1920	 4.3154	-2.8767	49.4934	99.9273	
   516	-6.3623	 4.3286	-2.0338	-7.1013	 4.2397	-2.8615	-7.0833	 4.3730	-2.7103	49.6611	99.9279	
   517	-6.1313	 4.3582	-1.7732	-6.8501	 4.2607	-2.5893	-6.8337	 4.3809	-2.4528	49.9768	99.9296	
   518	-6.0197	 4.3706	-1.6491	-6.7518	 4.2970	-2.4546	-6.7422	 4.4277	-2.3146	49.8660	99.9300	
   519	-5.9341	 4.4374	-1.4968	-6.6718	 4.3463	-2.3254	-6.6515	 4.4634	-2.1881	50.0116	99.9289	
   520	-5.8831	 4.4266	-1.4566	-6.5958	 4.3323	-2.2634	-6.5787	 4.4773	-2.1014	50.0462	99.9281	
   521	-5.8072	 4.5718	-1.2355	-6.4621	 4.5241	-1.9380	-6.3623	 4.6664	-1.6959	50.2827	99.9291	
   522	-5.4254	 4.8772	-0.5483	-6.0193	 4.8455	-1.1737	-5.7965	 4.9581	-0.8384	50.9779	99.9277	
   523	-4.8943	 5.0916	 0.1972	-5.4625	 5.0427	-0.4197	-5.1303	 5.0787	-0.0516	51.9933	99.9265	
   524	-4.5200	 5.1673	 0.6472	-5.1322	 5.1004	-0.0317	-4.8308	 5.0859	 0.2551	52.2429	99.9287	
   525	-4.8308	 5.1588	 0.3279	-5.3500	 5.0998	-0.2501	-4.8742	 5.1013	 0.2270	52.7478	99.9215	
   526	-4.7385	 5.2156	 0.4771	-5.0879	 5.0912	 0.0034	-4.5910	 5.0238	 0.4328	53.8451	99.9308	
   527	-4.7297	 5.1225	 0.3927	-5.1126	 5.0030	-0.1095	-4.5790	 4.9461	 0.3671	53.8879	99.9259	
   528	-4.7056	 5.0389	 0.3332	-5.1115	 4.9187	-0.1927	-4.6291	 4.8508	 0.2217	53.7990	99.9288	
   529	-4.7758	 4.9816	 0.2057	-5.2432	 4.8619	-0.3812	-4.8323	 4.7870	-0.0453	53.4119	99.9307	
   530	-5.0520	 4.9382	-0.1139	-5.6244	 4.8093	-0.8150	-5.3082	 4.7008	-0.6074	52.7670	99.9331	
   531	-5.4051	 4.8475	-0.5578	-6.0253	 4.6474	-1.3778	-5.8494	 4.5417	-1.3077	52.2183	99.9352	
   532	-5.8130	 4.5964	-1.2167	-6.4583	 4.3806	-2.0776	-6.3621	 4.3047	-2.0574	51.7157	99.9359	
   533	-5.9504	 4.4133	-1.5372	-6.5595	 4.1968	-2.3626	-6.4761	 4.1585	-2.3176	51.7054	99.9358	
   534	-6.1052	 4.1914	-1.9139	-6.7766	 4.0023	-2.7742	-6.7270	 3.9476	-2.7794	51.4207	99.9374	
   535	-6.3676	 3.9032	-2.4646	-7.0401	 3.6820	-3.3579	-7.0317	 3.6710	-3.3606	51.2790	99.9348	
   536	-6.5502	 3.5938	-2.9565	-7.2259	 3.3731	-3.8527	-7.2310	 3.3968	-3.8342	51.2194	99.9327	
   537	-6.5827	 3.3205	-3.2622	-7.2601	 3.1334	-4.1266	-7.2857	 3.2240	-4.0617	50.9860	99.9307	
   538	-6.4363	 3.2980	-3.1384	-7.0799	 3.1472	-3.9326	-7.0412	 3.2393	-3.8019	51.3168	99.9305	
   539	-6.2352	 3.3234	-2.9119	-6.8997	 3.1610	-3.7386	-6.9280	 3.2784	-3.6496	51.1194	99.9310	
   540	-6.2554	 3.3531	-2.9024	-6.9306	 3.1784	-3.7521	-6.9707	 3.3048	-3.6659	51.0123	99.9297	
   541	-6.2189	 3.3475	-2.8715	-6.9232	 3.1952	-3.7279	-6.9382	 3.2933	-3.6449	51.0576	99.9301	
   542	-6.2324	 3.3673	-2.8651	-6.9408	 3.2207	-3.7199	-6.9305	 3.3301	-3.6003	51.0342	99.9276	
   543	-6.0727	 3.4375	-2.6353	-6.6932	 3.2882	-3.4048	-6.6544	 3.4078	-3.2467	51.4631	99.9296	
   544	-5.8051	 3.4615	-2.3437	-6.4420	 3.3093	-3.1326	-6.4546	 3.4163	-3.0383	51.5028	99.9329	
   545	-5.7897	 3.4710	-2.3188	-6.4538	 3.3264	-3.1273	-6.4437	 3.4125	-3.0313	51.5426	99.9320	
   546	-5.7531	 3.4654	-2.2879	-6.4162	 3.3131	-3.1030	-6.4322	 3.4197	-3.0125	51.4473	99.9317	
   547	-5.7599	 3.4753	-2.2847	-6.4287	 3.3175	-3.1111	-6.4495	 3.4088	-3.0407	51.4764	99.9325	
   548	-5.7320	 3.4503	-2.2818	-6.3594	 3.2995	-3.0598	-6.3231	 3.3924	-2.9307	51.8140	99.9313	
   549	-5.5057	 3.4066	-2.0992	-6.1263	 3.2365	-2.8897	-6.1209	 3.3492	-2.7716	51.9639	99.9308	
   550	-5.4585	 3.3372	-2.1214	-6.1052	 3.1645	-2.9406	-6.1262	 3.2607	-2.8655	51.9681	99.9322	
   551	-5.4777	 3.2691	-2.2087	-6.1534	 3.1105	-3.0428	-6.1519	 3.2020	-2.9499	51.9579	99.9303	
   552	-5.5239	 3.2407	-2.2833	-6.1808	 3.0814	-3.0993	-6.1705	 3.1690	-3.0015	52.0530	99.9311	
   553	-5.5181	 3.2161	-2.3021	-6.1691	 3.0643	-3.1047	-6.1207	 3.1684	-2.9524	52.1332	99.9280	
   554	-5.2755	 3.1966	-2.0790	-5.8577	 3.0253	-2.8322	-5.8399	 3.1426	-2.6973	52.5012	99.9315	
   555	-5.1551	 3.1159	-2.0393	-5.7923	 2.9441	-2.8481	-5.8127	 3.0426	-2.7701	52.4474	99.9323	
   556	-5.1839	 3.0138	-2.1702	-5.8245	 2.8392	-2.9851	-5.8462	 2.9470	-2.8991	52.4776	99.9312	
   557	-5.1607	 2.9155	-2.2453	-5.8116	 2.7378	-3.0737	-5.8299	 2.8509	-2.9790	52.5577	99.9297	
   558	-5.1231	 2.8120	-2.3111	-5.7846	 2.6573	-3.1272	-5.7790	 2.7764	-3.0026	52.6173	99.9285	
   559	-4.8901	 2.7585	-2.1317	-5.4814	 2.5889	-2.8924	-5.4822	 2.7393	-2.7429	53.0027	99.9292	
   560	-4.6725	 2.6954	-1.9772	-5.2934	 2.5225	-2.7708	-5.3202	 2.6708	-2.6494	53.0828	99.9291	
   561	-4.6022	 2.6402	-1.9621	-5.2405	 2.4457	-2.7948	-5.3026	 2.5968	-2.7058	53.0949	99.9287	
   562	-4.6310	 2.5381	-2.0930	-5.3045	 2.3455	-2.9588	-5.3814	 2.4834	-2.8981	53.0480	99.9289	
   563	-4.7608	 2.4722	-2.2887	-5.4428	 2.2846	-3.1581	-5.4583	 2.4031	-3.0551	53.2281	99.9261	
   564	-4.6857	 2.3778	-2.3080	-5.3097	 2.1601	-3.1495	-5.3373	 2.2982	-3.0390	53.5661	99.9265	
   565	-4.5768	 2.2338	-2.3431	-5.2349	 2.0239	-3.2109	-5.2680	 2.1608	-3.1073	53.6381	99.9254	
   566	-4.6267	 2.1467	-2.4801	-5.2988	 1.9238	-3.3749	-5.3130	 2.0580	-3.2550	53.7555	99.9225	
   567	-4.6228	 2.0928	-2.5301	-5.3070	 1.8944	-3.4125	-5.3093	 2.0284	-3.2809	53.7148	99.9227	
   568	-4.5863	 2.0872	-2.4991	-5.2444	 1.8723	-3.3720	-5.2767	 2.0169	-3.2598	53.7599	99.9242	
   569	-4.5208	 2.0712	-2.4496	-5.1750	 1.8542	-3.3207	-5.1727	 1.9971	-3.1756	53.9666	99.9220	
   570	-4.3619	 2.0143	-2.3478	-5.0313	 1.7970	-3.2342	-5.0606	 1.9292	-3.1313	54.0436	99.9241	
   571	-4.3879	 1.9561	-2.4319	-5.0795	 1.7430	-3.3364	-5.1195	 1.8709	-3.2485	53.9723	99.9242	
   572	-4.4485	 1.9328	-2.5157	-5.1219	 1.6804	-3.4413	-5.1682	 1.7977	-3.3705	54.1767	99.9238	
   573	-4.5264	 1.8708	-2.6556	-5.2335	 1.6359	-3.5975	-5.2596	 1.7509	-3.5087	54.0687	99.9218	
   574	-4.5562	 1.8665	-2.6898	-5.2218	 1.6189	-3.6028	-5.2213	 1.7430	-3.4783	54.2800	99.9207	
   575	-4.4166	 1.8540	-2.5628	-5.0925	 1.6378	-3.4546	-5.0821	 1.7560	-3.3261	54.3056	99.9221	
   576	-4.5457	 1.9152	-2.6305	-5.2504	 1.6742	-3.5761	-5.2850	 1.7882	-3.4969	54.0190	99.9222	
   577	-4.8055	 1.8960	-2.9096	-5.5031	 1.6278	-3.8751	-5.5235	 1.6916	-3.8319	54.1940	99.9241	
   578	-5.0276	 1.6607	-3.3670	-5.7543	 1.4002	-4.3540	-5.8018	 1.4848	-4.3170	53.9409	99.9229	
   579	-5.2671	 1.4992	-3.7680	-5.9491	 1.2559	-4.6931	-6.0025	 1.3692	-4.6333	53.8403	99.9248	
   580	-5.2825	 1.4898	-3.7928	-5.9217	 1.2849	-4.6366	-5.9226	 1.4088	-4.5138	53.9530	99.9255	
   581	-5.2662	 1.5139	-3.7524	-5.9518	 1.3150	-4.6368	-5.9884	 1.4207	-4.5676	53.7255	99.9272	
   582	-5.4067	 1.5118	-3.8950	-6.0960	 1.2626	-4.8333	-6.1584	 1.3565	-4.8019	53.7583	99.9263	
   583	-5.5375	 1.4313	-4.1063	-6.2418	 1.1849	-5.0568	-6.3219	 1.3069	-5.0150	53.4960	99.9244	
   584	-5.6587	 1.3848	-4.2740	-6.3852	 1.1452	-5.2399	-6.4523	 1.2569	-5.1954	53.4219	99.9236	
   585	-5.6578	 1.3994	-4.2584	-6.3025	 1.1353	-5.1671	-6.3463	 1.2703	-5.0760	53.7583	99.9230	
   586	-5.5355	 1.3481	-4.1875	-6.2348	 1.0920	-5.1427	-6.3107	 1.2182	-5.0925	53.6297	99.9233	
   587	-5.5980	 1.2955	-4.3026	-6.2963	 1.0298	-5.2664	-6.3753	 1.1563	-5.2191	53.6574	99.9228	
   588	-5.6230	 1.2520	-4.3711	-6.3371	 0.9926	-5.3444	-6.4156	 1.1309	-5.2847	53.5558	99.9212	
   589	-5.6528	 1.2477	-4.4052	-6.3579	 0.9676	-5.3902	-6.4495	 1.1203	-5.3292	53.5465	99.9199	
   590	-5.5931	 1.2563	-4.3369	-6.2854	 1.0001	-5.2851	-6.3256	 1.1556	-5.1699	53.6941	99.9185	
   591	-5.3988	 1.2915	-4.1073	-6.1102	 1.0351	-5.0750	-6.1684	 1.1905	-4.9779	53.7032	99.9185	
   592	-5.3882	 1.3402	-4.0481	-6.1196	 1.0901	-5.0294	-6.1823	 1.2350	-4.9474	53.6020	99.9191	
   593	-5.3921	 1.3941	-3.9981	-6.1290	 1.1451	-4.9838	-6.1956	 1.2905	-4.9051	53.5100	99.9191	
   594	-5.4037	 1.4433	-3.9606	-6.1333	 1.1789	-4.9543	-6.2217	 1.3167	-4.9050	53.4960	99.9207	
   595	-5.3951	 1.4627	-3.9325	-6.1125	 1.2038	-4.9086	-6.1597	 1.3343	-4.8254	53.6664	99.9196	
   596	-5.2315	 1.4790	-3.7526	-5.9573	 1.2265	-4.7307	-6.0039	 1.3471	-4.6568	53.7764	99.9203	
   597	-5.2151	 1.5031	-3.7122	-5.9632	 1.2350	-4.7281	-6.0364	 1.3586	-4.6778	53.6572	99.9195	
   598	-5.2517	 1.5087	-3.7431	-6.0083	 1.2316	-4.7766	-6.0970	 1.3631	-4.7340	53.5467	99.9187	
   599	-5.3114	 1.5001	-3.8114	-6.0725	 1.2284	-4.8440	-6.1750	 1.3567	-4.8183	53.4359	99.9202	
   600	-5.3480	 1.5057	-3.8423	-6.1043	 1.2332	-4.8710	-6.1794	 1.3752	-4.8042	53.4546	99.9172	
   601	-5.2055	 1.5371	-3.6685	-5.9299	 1.2556	-4.6743	-5.9744	 1.3762	-4.5982	53.8682	99.9181	
   602	-5.1256	 1.5160	-3.6098	-5.8923	 1.2423	-4.6499	-5.9809	 1.3616	-4.6193	53.6480	99.9194	
   603	-5.1690	 1.5315	-3.6376	-5.9174	 1.2511	-4.6661	-6.0076	 1.3767	-4.6310	53.6526	99.9196	
   604	-5.1902	 1.5466	-3.6437	-5.9601	 1.2856	-4.6744	-6.0446	 1.4067	-4.6379	53.5100	99.9197	
   605	-5.1941	 1.6005	-3.5937	-5.9369	 1.3484	-4.5884	-6.0060	 1.4948	-4.5113	53.4598	99.9187	
   606	-4.9805	 1.7038	-3.2768	-5.6728	 1.4747	-4.1980	-5.6724	 1.6086	-4.0638	53.8885	99.9196	
   607	-4.7544	 1.7727	-2.9818	-5.4769	 1.5346	-3.9421	-5.5095	 1.6471	-3.8624	53.9251	99.9213	
   608	-4.7669	 1.8072	-2.9599	-5.5062	 1.5773	-3.9288	-5.5509	 1.6956	-3.8553	53.7341	99.9213	
   609	-4.8363	 1.8770	-2.9594	-5.5415	 1.6285	-3.9129	-5.5706	 1.7365	-3.8341	53.8841	99.9219	
   610	-4.8845	 1.9318	-2.9528	-5.5634	 1.6879	-3.8754	-5.5723	 1.7992	-3.7731	53.9107	99.9221	
   611	-4.7353	 1.9533	-2.7822	-5.3757	 1.7185	-3.6571	-5.3335	 1.8109	-3.5226	54.3380	99.9230	
   612	-4.5592	 1.9351	-2.6242	-5.2112	 1.6862	-3.5249	-5.2180	 1.7984	-3.4196	54.2843	99.9230	
   613	-4.5582	 1.9497	-2.6086	-5.2096	 1.7114	-3.4981	-5.2224	 1.8169	-3.4055	54.2391	99.9248	
   614	-4.5284	 1.9540	-2.5745	-5.2021	 1.7282	-3.4739	-5.1987	 1.8424	-3.3563	54.1573	99.9225	
   615	-4.5409	 1.9885	-2.5525	-5.1880	 1.7490	-3.4389	-5.2089	 1.8573	-3.3516	54.1982	99.9253	
   616	-4.5024	 2.0122	-2.4904	-5.1163	 1.7689	-3.3473	-5.1239	 1.8894	-3.2344	54.3226	99.9250	
   617	-4.3387	 1.9160	-2.4229	-5.0133	 1.6744	-3.3389	-5.0381	 1.7518	-3.2863	54.4609	99.9263	
   618	-4.3454	 1.8134	-2.5321	-5.0063	 1.5815	-3.4247	-5.0370	 1.6779	-3.3591	54.4651	99.9266	
   619	-4.3309	 1.8082	-2.5228	-4.9621	 1.5723	-3.3897	-5.0045	 1.6664	-3.3380	54.5639	99.9290	
   620	-4.4079	 1.7608	-2.6471	-5.0980	 1.5493	-3.5486	-5.1711	 1.6575	-3.5136	54.1097	99.9282	
   621	-4.5852	 1.9894	-2.5959	-5.2091	 1.8211	-3.3880	-5.1608	 1.9194	-3.2414	54.2174	99.9277	
   622	-4.4499	 2.3682	-2.0818	-4.9284	 2.2127	-2.7156	-4.7505	 2.2944	-2.4562	54.8485	99.9295	
   623	-4.1875	 2.7689	-1.4187	-4.6744	 2.5879	-2.0864	-4.4828	 2.6010	-1.8818	55.0605	99.9320	
   624	-4.1241	 2.9486	-1.1757	-4.6872	 2.6893	-1.9978	-4.4784	 2.5825	-1.8959	55.5230	99.9310	
   625	-4.3723	 2.7677	-1.6047	-4.9075	 2.4443	-2.4632	-4.7970	 2.3503	-2.4467	55.4772	99.9339	
   626	-4.6473	 2.5140	-2.1334	-5.1662	 2.1998	-2.9663	-5.1180	 2.1699	-2.9481	55.0676	99.9345	
   627	-4.8956	 2.4456	-2.4501	-5.4099	 2.1955	-3.2143	-5.2986	 2.2054	-3.0931	54.7403	99.9317	
   628	-4.8648	 2.4645	-2.4004	-5.3739	 2.1570	-3.2168	-5.2528	 2.1384	-3.1144	55.1283	99.9298	
   629	-4.7317	 2.2369	-2.4950	-5.2365	 1.9986	-3.2378	-5.1216	 2.0186	-3.1030	55.0253	99.9318	
   630	-4.5036	 2.2225	-2.2812	-5.0042	 1.9230	-3.0811	-4.8665	 1.9341	-2.9324	55.5780	99.9269	
   631	-4.1597	 1.9418	-2.2181	-4.7038	 1.7071	-2.9966	-4.6804	 1.8062	-2.8742	55.0332	99.9292	
   632	-3.8873	 1.9265	-1.9609	-4.4218	 1.7108	-2.7109	-4.3681	 1.8428	-2.5253	55.1890	99.9261	
   633	-3.6218	 2.0337	-1.5882	-4.1702	 1.8415	-2.3286	-4.1450	 1.9617	-2.1832	55.1233	99.9298	
   634	-3.5334	 2.1444	-1.3890	-4.0737	 1.9495	-2.1242	-4.0298	 2.0341	-1.9958	55.3200	99.9317	
   635	-3.5103	 2.1587	-1.3517	-4.1036	 1.8825	-2.2210	-4.1317	 1.9062	-2.2255	55.4885	99.9331	
   636	-3.7680	 1.9437	-1.8244	-4.3313	 1.6207	-2.7105	-4.4147	 1.6219	-2.7928	55.6790	99.9370	
   637	-4.1373	 1.6038	-2.5336	-4.8051	 1.3167	-3.4883	-4.8274	 1.2987	-3.5287	55.5050	99.9310	
   638	-4.8123	 0.9913	-3.8212	-5.4175	 0.5385	-4.8789	-5.5490	 0.5366	-5.0125	56.0005	99.9291	
   639	-5.9122	 0.7785	-5.1339	-6.3714	 0.5462	-5.8251	-6.3083	 0.7088	-5.5995	54.8529	99.9260	
   640	-5.8778	 0.9685	-4.9093	-6.2495	 0.7549	-5.4944	-6.0727	 0.9420	-5.1307	55.1672	99.9225	
   641	-4.8410	 1.8037	-3.0374	-5.0008	 1.6700	-3.3308	-4.6306	 1.8056	-2.8250	56.3314	99.9314	
   642	-3.5376	 2.5358	-1.0019	-3.8993	 2.1784	-1.7208	-3.5956	 2.0728	-1.5228	57.6344	99.9289	
   643	-3.6603	 2.0100	-1.6504	-4.1268	 1.6130	-2.5137	-4.0250	 1.4729	-2.5521	57.4150	99.9364	
   644	-3.8986	 1.6382	-2.2605	-4.3561	 1.3259	-3.0301	-4.3091	 1.2625	-3.0466	56.8090	99.9397	
   645	-4.0448	 1.5482	-2.4967	-4.4745	 1.2773	-3.1970	-4.3978	 1.2600	-3.1379	56.6115	99.9384	
   646	-4.0505	 1.4602	-2.5904	-4.4816	 1.1636	-3.3179	-4.4689	 1.1834	-3.2855	56.4462	99.9379	
   647	-4.0628	 1.2697	-2.7932	-4.5737	 1.0218	-3.5518	-4.5904	 1.0963	-3.4941	55.8742	99.9343	
   648	-4.0493	 1.2499	-2.7995	-4.5612	 1.0174	-3.5437	-4.5207	 1.1508	-3.3699	55.7872	99.9266	
   649	-3.8550	 1.2852	-2.5699	-4.3802	 1.0438	-3.3363	-4.3419	 1.1780	-3.1638	55.8914	99.9252	
   650	-3.7357	 1.4148	-2.3210	-4.2332	 1.2438	-2.9893	-4.1618	 1.4083	-2.7536	55.6599	99.9270	
   651	-3.5589	 1.6363	-1.9227	-4.1061	 1.4314	-2.6747	-4.0369	 1.5506	-2.4863	55.7378	99.9258	
   652	-3.5378	 1.7337	-1.8042	-4.1006	 1.5198	-2.5807	-4.0533	 1.6468	-2.4065	55.5525	99.9252	
   653	-3.4966	 1.9138	-1.5828	-4.0653	 1.6752	-2.3899	-4.0293	 1.7683	-2.2610	55.5895	99.9268	
   654	-3.3734	 1.9896	-1.3839	-3.9861	 1.7118	-2.2742	-3.9707	 1.7306	-2.2400	55.8576	99.9292	
   655	-3.5495	 1.8953	-1.6543	-4.1993	 1.5805	-2.6187	-4.2277	 1.6011	-2.6266	55.6940	99.9274	
   656	-3.7842	 1.8071	-1.9773	-4.3976	 1.4827	-2.9148	-4.4437	 1.5079	-2.9359	55.6678	99.9296	
   657	-3.9325	 1.8003	-2.1323	-4.5445	 1.4894	-3.0550	-4.5657	 1.5057	-3.0599	55.6189	99.9297	
   658	-4.0124	 1.8214	-2.1910	-4.6005	 1.5156	-3.0848	-4.6020	 1.5468	-3.0551	55.5926	99.9289	
   659	-3.7988	 1.9248	-1.8741	-4.3223	 1.6627	-2.6595	-4.2484	 1.7158	-2.5327	55.8421	99.9286	
   660	-3.4957	 2.0410	-1.4549	-4.0597	 1.7637	-2.2959	-4.0517	 1.7649	-2.2868	55.9059	99.9339	
   661	-3.4726	 2.0552	-1.4176	-4.0547	 1.7425	-2.3120	-4.0855	 1.7543	-2.3313	55.8320	99.9323	
   662	-3.4062	 2.0539	-1.3525	-4.0264	 1.7842	-2.2421	-4.0401	 1.7721	-2.2680	55.7460	99.9338	
   663	-3.3927	 2.0340	-1.3588	-4.0911	 1.6715	-2.4196	-4.1735	 1.5819	-2.5916	55.9891	99.9340	
   664	-3.7667	 1.6209	-2.1460	-4.3977	 1.2760	-3.1216	-4.4215	 1.2344	-3.1871	56.2195	99.9311	
   665	-3.7656	 1.4105	-2.3551	-4.3911	 1.0735	-3.3175	-4.4360	 1.0870	-3.3490	56.1252	99.9287	
   666	-3.9745	 1.4930	-2.4816	-4.5529	 1.2534	-3.2994	-4.4992	 1.3240	-3.1751	55.7238	99.9267	
   667	-3.9961	 1.9580	-2.0382	-4.4026	 1.7104	-2.6920	-4.1942	 1.6966	-2.4976	56.6264	99.9326	
   668	-3.6942	 2.2846	-1.4097	-4.1639	 1.9426	-2.2212	-3.9711	 1.8155	-2.1555	57.1234	99.9329	
   669	-3.9626	 2.1335	-1.8293	-4.4962	 1.7500	-2.7461	-4.4083	 1.6366	-2.7717	56.6540	99.9326	
   670	-4.3513	 1.9505	-2.4009	-4.8128	 1.6035	-3.2092	-4.6978	 1.5185	-3.1793	56.5708	99.9350	
   671	-4.5955	 1.7157	-2.8799	-5.0033	 1.4254	-3.5778	-4.8207	 1.4094	-3.4113	56.4805	99.9317	
   672	-4.4482	 1.7079	-2.7405	-4.7671	 1.4130	-3.3540	-4.5615	 1.3913	-3.1703	56.9835	99.9351	
   673	-4.1066	 1.7353	-2.3714	-4.3800	 1.4571	-2.9228	-4.1076	 1.3891	-2.7185	57.6724	99.9377	
   674	-3.7349	 1.5420	-2.1930	-4.1451	 1.1158	-3.0292	-4.0290	 0.9488	-3.0802	58.2452	99.9384	
   675	-3.9451	 0.9201	-3.0250	-4.3425	 0.5203	-3.8220	-4.2211	 0.5195	-3.7017	57.9723	99.9269	
   676	-3.7168	 0.7933	-2.9237	-4.1086	 0.4700	-3.6385	-4.0162	 0.5205	-3.4957	57.6931	99.9300	
   677	-3.4455	 0.8759	-2.5697	-3.8645	 0.5839	-3.2805	-3.7764	 0.6392	-3.1372	57.5859	99.9305	
   678	-3.2261	 0.9547	-2.2716	-3.6744	 0.6524	-3.0219	-3.6244	 0.6816	-2.9428	57.6216	99.9328	
   679	-3.1866	 0.8805	-2.3062	-3.6874	 0.5472	-3.1401	-3.6866	 0.5679	-3.1187	57.5732	99.9317	
   680	-3.2318	 0.8667	-2.3652	-3.6541	 0.5677	-3.0863	-3.5505	 0.6215	-2.9289	57.8297	99.9288	
   681	-3.0144	 0.9162	-2.0983	-3.4398	 0.6147	-2.8250	-3.3493	 0.6522	-2.6971	57.9749	99.9306	
   682	-2.9548	 1.0373	-1.9176	-3.3194	 0.7982	-2.5211	-3.0838	 0.8296	-2.2542	58.2908	99.9291	
   683	-2.4925	 1.6737	-0.8189	-2.6707	 1.4408	-1.2298	-2.2598	 1.4539	-0.8059	59.1198	99.9299	
   684	-1.8931	 1.9160	 0.0228	-2.2770	 1.4890	-0.7879	-2.1076	 1.3154	-0.7922	59.5387	99.9363	
   685	-2.2701	 1.5714	-0.6987	-2.7030	 1.1293	-1.5736	-2.5677	 0.9411	-1.6266	59.4677	99.9360	
   686	-2.8103	 0.8730	-1.9374	-3.2424	 0.4933	-2.7490	-3.1391	 0.4649	-2.6742	58.7608	99.9294	
   687	-2.9786	 0.7834	-2.1953	-3.3443	 0.5035	-2.8407	-3.1676	 0.5428	-2.6249	58.4683	99.9294	
   688	-2.7036	 1.0372	-1.6665	-3.0602	 0.6420	-2.4180	-2.9549	 0.5807	-2.3743	59.1028	99.9351	
   689	-2.8342	 0.7316	-2.1027	-3.2570	 0.3628	-2.8940	-3.1529	 0.3285	-2.8244	58.8896	99.9310	
   690	-2.9390	 0.5968	-2.3423	-3.3248	 0.1995	-3.1252	-3.2382	 0.2004	-3.0378	58.9714	99.9293	
   691	-2.7935	 0.4471	-2.3465	-3.1792	 0.0706	-3.1085	-3.0738	 0.0802	-2.9936	59.1650	99.9286	
   692	-2.6211	 0.3703	-2.2509	-3.0237	-0.0037	-3.0273	-2.9329	 0.0304	-2.9025	59.1698	99.9266	
   693	-2.4720	 0.3918	-2.0803	-2.9085	-0.0057	-2.9141	-2.8295	-0.0005	-2.8300	59.3364	99.9262	
   694	-2.4623	 0.3134	-2.1490	-2.9132	-0.0815	-2.9947	-2.8552	-0.0592	-2.9144	59.2373	99.9255	
   695	-2.4622	 0.2009	-2.2614	-2.9360	-0.2414	-3.1773	-2.9323	-0.2354	-3.1677	59.3760	99.9259	
   696	-2.4861	 0.0595	-2.4267	-2.9306	-0.3595	-3.2900	-2.8872	-0.3135	-3.2007	59.4447	99.9229	
   697	-2.3407	 0.0224	-2.3185	-2.7794	-0.4000	-3.1794	-2.7456	-0.3522	-3.0978	59.5862	99.9234	
   698	-2.3368	-0.0315	-2.3684	-2.8084	-0.4544	-3.2627	-2.7828	-0.4182	-3.2010	59.5701	99.9230	
   699	-2.3772	-0.0845	-2.4618	-2.8316	-0.5172	-3.3487	-2.8034	-0.4844	-3.2878	59.7027	99.9234	
   700	-2.3945	-0.1233	-2.5179	-2.8281	-0.5637	-3.3916	-2.8444	-0.5207	-3.3651	59.6486	99.9263	
   701	-2.3887	-0.1479	-2.5367	-2.8097	-0.5766	-3.3862	-2.7512	-0.5367	-3.2879	59.8979	99.9229	
   702	-2.1615	-0.1769	-2.3385	-2.5809	-0.6058	-3.1866	-2.5151	-0.5693	-3.0844	60.1369	99.9226	
   703	-2.0691	-0.2325	-2.3017	-2.5089	-0.6829	-3.1917	-2.4866	-0.6472	-3.1337	60.1649	99.9229	
   704	-2.0729	-0.2911	-2.3641	-2.5312	-0.7331	-3.2642	-2.4957	-0.7061	-3.2018	60.2057	99.9222	
   705	-2.0671	-0.3157	-2.3829	-2.5269	-0.7669	-3.2938	-2.5238	-0.7131	-3.2369	60.0645	99.9213	
   706	-2.0757	-0.3351	-2.4109	-2.5352	-0.7963	-3.3314	-2.5258	-0.7463	-3.2721	60.1524	99.9204	
   707	-1.9583	-0.3472	-2.3056	-2.3683	-0.7907	-3.1589	-2.2992	-0.7529	-3.0521	60.5455	99.9215	
   708	-1.7754	-0.3753	-2.1508	-2.2288	-0.8141	-3.0429	-2.1901	-0.7802	-2.9702	60.4930	99.9217	
   709	-1.7696	-0.3999	-2.1696	-2.2179	-0.8438	-3.0616	-2.1799	-0.7951	-2.9750	60.4949	99.9203	
   710	-1.7619	-0.3952	-2.1571	-2.2053	-0.8483	-3.0535	-2.1595	-0.8249	-2.9844	60.6721	99.9216	
   711	-1.7888	-0.4680	-2.2568	-2.2567	-0.9528	-3.2094	-2.2594	-0.9195	-3.1790	60.6023	99.9203	
   712	-1.8060	-0.5068	-2.3129	-2.2567	-0.9528	-3.2094	-2.1974	-0.9019	-3.0993	60.6273	99.9182	
   713	-1.5991	-0.5060	-2.1052	-2.0221	-0.9905	-3.0125	-2.0118	-0.9449	-2.9566	60.8961	99.9209	
   714	-1.5586	-0.5655	-2.1243	-2.0178	-1.0243	-3.0420	-2.0073	-0.9634	-2.9707	60.7150	99.9192	
   715	-1.5721	-0.5457	-2.1179	-2.0236	-1.0158	-3.0393	-2.0131	-0.9670	-2.9801	60.8028	99.9199	
   716	-1.5962	-0.5746	-2.1708	-2.0644	-1.0530	-3.1174	-2.0764	-1.0068	-3.0832	60.7448	99.9201	
   717	-1.6722	-0.6073	-2.2795	-2.1428	-1.0770	-3.2197	-2.1499	-1.0317	-3.1816	60.6961	99.9203	
   718	-1.6875	-0.6167	-2.3044	-2.1302	-1.0814	-3.2116	-2.1110	-1.0285	-3.1395	60.7990	99.9198	
   719	-1.5403	-0.6246	-2.1650	-2.0033	-1.1005	-3.1037	-1.9910	-1.0596	-3.0506	60.9318	99.9193	
   720	-1.5566	-0.6487	-2.2054	-2.0249	-1.1380	-3.1628	-2.0428	-1.0921	-3.1350	60.8759	99.9196	
   721	-1.6105	-0.6819	-2.2925	-2.0782	-1.1709	-3.2490	-2.0946	-1.1247	-3.2193	60.8723	99.9196	
   722	-1.6634	-0.7004	-2.3639	-2.1558	-1.1822	-3.3379	-2.1732	-1.1421	-3.3153	60.7729	99.9193	
   723	-1.7240	-0.7236	-2.4477	-2.2275	-1.2021	-3.4295	-2.2735	-1.1519	-3.4254	60.5809	99.9200	
   724	-1.7760	-0.7275	-2.5036	-2.2659	-1.2014	-3.4672	-2.2785	-1.1445	-3.4230	60.6357	99.9181	
   725	-1.6711	-0.7051	-2.3763	-2.1299	-1.1784	-3.3082	-2.1119	-1.1355	-3.2474	60.9246	99.9191	
   726	-1.6201	-0.7159	-2.3361	-2.0931	-1.2044	-3.2974	-2.1241	-1.1538	-3.2779	60.8217	99.9199	
   727	-1.6653	-0.7297	-2.3951	-2.1640	-1.2116	-3.3755	-2.2026	-1.1713	-3.3739	60.7202	99.9203	
   728	-1.7173	-0.7335	-2.4509	-2.2408	-1.2103	-3.4510	-2.2748	-1.1740	-3.4488	60.6222	99.9193	
   729	-1.7923	-0.7516	-2.5440	-2.2882	-1.2517	-3.5398	-2.3483	-1.1989	-3.5472	60.6163	99.9195	
   730	-1.8741	-0.7598	-2.6340	-2.3842	-1.2500	-3.6341	-2.4370	-1.2015	-3.6385	60.5199	99.9193	
   731	-1.8732	-0.7451	-2.6184	-2.3207	-1.2595	-3.5802	-2.3700	-1.1913	-3.5612	60.7164	99.9192	
   732	-1.7856	-0.7615	-2.5472	-2.2765	-1.2687	-3.5451	-2.3273	-1.2177	-3.5449	60.7088	99.9188	
   733	-1.8106	-0.8050	-2.6157	-2.3114	-1.3145	-3.6258	-2.3963	-1.2611	-3.6574	60.6047	99.9202	
   734	-1.8693	-0.7990	-2.6684	-2.3690	-1.3136	-3.6824	-2.4563	-1.2455	-3.7018	60.5119	99.9187	
   735	-1.9357	-0.7977	-2.7334	-2.4516	-1.3037	-3.7552	-2.5349	-1.2630	-3.7979	60.5020	99.9207	
   736	-2.0030	-0.8110	-2.8141	-2.5300	-1.3277	-3.8576	-2.6236	-1.2655	-3.8892	60.3574	99.9179	
   737	-2.0839	-0.8045	-2.8885	-2.5934	-1.3182	-3.9115	-2.6619	-1.2576	-3.9196	60.4090	99.9176	
   738	-2.0079	-0.7718	-2.7798	-2.4700	-1.2908	-3.7607	-2.5322	-1.2187	-3.7509	60.5652	99.9185	
   739	-1.9117	-0.7688	-2.6805	-2.4116	-1.2791	-3.6906	-2.4946	-1.2377	-3.7323	60.5534	99.9212	
   740	-1.9646	-0.7873	-2.7520	-2.4783	-1.3201	-3.7983	-2.5688	-1.2736	-3.8424	60.5415	99.9187	
   741	-2.0252	-0.8105	-2.8358	-2.5492	-1.3274	-3.8764	-2.6416	-1.2874	-3.9290	60.4444	99.9201	
   742	-2.0704	-0.8243	-2.8948	-2.6017	-1.3476	-3.9491	-2.7036	-1.3051	-4.0087	60.3907	99.9196	
   743	-2.1291	-0.8182	-2.9475	-2.6585	-1.3340	-3.9923	-2.7795	-1.2783	-4.0577	60.2040	99.9205	
   744	-2.1571	-0.7932	-2.9504	-2.6761	-1.3084	-3.9844	-2.7392	-1.2530	-3.9921	60.3574	99.9170	
   745	-2.0368	-0.7614	-2.7983	-2.5209	-1.2857	-3.8065	-2.6050	-1.2325	-3.8376	60.5040	99.9202	
   746	-2.0146	-0.7618	-2.7766	-2.5268	-1.2772	-3.8039	-2.6261	-1.2138	-3.8399	60.3161	99.9193	
   747	-2.0426	-0.7368	-2.7795	-2.5393	-1.2727	-3.8120	-2.6376	-1.2210	-3.8586	60.4505	99.9197	
   748	-2.0512	-0.7562	-2.8075	-2.5903	-1.2676	-3.8578	-2.6874	-1.2204	-3.9078	60.2601	99.9193	
   749	-2.1099	-0.7502	-2.8602	-2.6545	-1.2708	-3.9252	-2.7321	-1.2272	-3.9593	60.3036	99.9172	
   750	-2.1542	-0.7493	-2.9036	-2.6863	-1.2660	-3.9522	-2.7754	-1.2119	-3.9873	60.2125	99.9182	
   751	-2.1080	-0.7208	-2.8290	-2.6012	-1.2379	-3.8391	-2.6572	-1.1802	-3.8374	60.4172	99.9178	
   752	-2.0032	-0.6985	-2.7017	-2.4978	-1.2228	-3.7205	-2.5844	-1.1664	-3.7508	60.4151	99.9194	
   753	-2.0041	-0.7131	-2.7173	-2.5303	-1.2307	-3.7609	-2.6349	-1.1768	-3.8117	60.2664	99.9196	
   754	-2.0551	-0.7023	-2.7576	-2.5746	-1.2215	-3.7960	-2.6681	-1.1764	-3.8444	60.3119	99.9199	
   755	-2.1003	-0.7161	-2.8166	-2.6396	-1.2373	-3.8768	-2.7301	-1.1940	-3.9241	60.2580	99.9185	
   756	-2.1600	-0.7247	-2.8848	-2.6980	-1.2490	-3.9469	-2.7914	-1.2006	-3.9920	60.2082	99.9181	
   757	-2.1879	-0.6997	-2.8877	-2.7031	-1.2278	-3.9308	-2.7734	-1.1787	-3.9521	60.3098	99.9174	
   758	-2.0917	-0.6967	-2.7885	-2.6063	-1.2168	-3.8230	-2.6796	-1.1836	-3.8632	60.4050	99.9198	
   759	-2.0782	-0.7165	-2.7949	-2.6204	-1.2376	-3.8579	-2.6962	-1.1834	-3.8796	60.2643	99.9162	
   760	-2.0686	-0.6825	-2.7512	-2.6114	-1.1956	-3.8069	-2.6999	-1.1538	-3.8537	60.2167	99.9189	
   761	-2.1215	-0.7010	-2.8226	-2.6839	-1.2281	-3.9119	-2.7856	-1.1970	-3.9826	60.1998	99.9186	
   762	-2.1726	-0.6902	-2.8629	-2.6956	-1.2110	-3.9066	-2.7880	-1.1453	-3.9333	60.1256	99.9176	
   763	-2.1380	-0.6126	-2.7507	-2.6709	-1.1229	-3.7937	-2.7457	-1.0868	-3.8325	60.1754	99.9193	
   764	-2.0648	-0.6239	-2.6888	-2.6090	-1.1577	-3.7666	-2.7094	-1.1278	-3.8373	60.2560	99.9192	
   765	-2.0975	-0.6721	-2.7697	-2.6498	-1.1950	-3.8446	-2.7599	-1.1383	-3.8982	60.0714	99.9178	
   766	-2.0898	-0.6674	-2.7573	-2.6557	-1.1864	-3.8420	-2.7555	-1.1568	-3.9123	60.1584	99.9190	
   767	-2.1360	-0.6958	-2.8319	-2.7023	-1.2152	-3.9173	-2.8226	-1.1670	-3.9895	60.0149	99.9187	
   768	-2.1947	-0.6898	-2.8846	-2.7532	-1.2101	-3.9632	-2.8890	-1.1661	-4.0551	59.9626	99.9207	
   769	-2.2303	-0.6695	-2.8999	-2.7842	-1.1927	-3.9767	-2.8934	-1.1476	-4.0410	60.0149	99.9187	
   770	-2.1408	-0.6566	-2.7975	-2.6866	-1.1690	-3.8555	-2.7650	-1.1308	-3.8958	60.1690	99.9184	
   771	-2.1187	-0.6570	-2.7758	-2.6690	-1.1946	-3.8635	-2.7778	-1.1602	-3.9380	60.2019	99.9187	
   772	-2.1726	-0.6902	-2.8629	-2.7282	-1.2189	-3.9470	-2.8513	-1.1851	-4.0364	60.1020	99.9202	
   773	-2.1947	-0.6898	-2.8846	-2.7415	-1.2271	-3.9685	-2.8673	-1.1738	-4.0411	60.0584	99.9184	
   774	-2.2245	-0.6941	-2.9187	-2.7740	-1.2350	-4.0089	-2.9069	-1.1880	-4.0949	60.0519	99.9191	
   775	-2.2842	-0.7026	-2.9869	-2.8249	-1.2299	-4.0548	-2.9177	-1.1842	-4.1020	60.1084	99.9179	
   776	-2.1235	-0.6178	-2.7415	-2.6059	-1.1071	-3.7129	-2.6319	-1.0366	-3.6685	60.2564	99.9173	
   777	-1.7446	-0.3564	-2.1011	-2.1947	-0.7810	-2.9756	-2.1044	-0.7370	-2.8414	60.5572	99.9184	
   778	-1.2588	-0.0433	-1.3022	-1.7507	-0.5439	-2.2945	-1.7732	-0.5715	-2.3447	60.7617	99.9247	
   779	-1.3859	-0.0652	-1.4512	-1.8734	-0.5587	-2.4320	-1.8691	-0.5998	-2.4688	60.8046	99.9248	
   780	-1.4793	-0.0242	-1.5036	-1.9454	-0.4816	-2.4269	-1.9091	-0.5291	-2.4382	60.7282	99.9270	
   781	-1.5130	 0.0254	-1.4877	-1.9689	-0.4475	-2.4162	-1.9301	-0.5104	-2.4405	60.8157	99.9277	
   782	-1.4764	 0.0198	-1.4568	-1.9070	-0.4822	-2.3891	-1.9033	-0.5255	-2.4288	60.8586	99.9278	
   783	-1.6149	-0.0655	-1.6806	-2.0786	-0.5637	-2.6422	-2.1130	-0.6040	-2.7170	60.6081	99.9285	
   784	-1.7448	-0.1314	-1.8763	-2.2554	-0.6239	-2.8792	-2.2721	-0.6721	-2.9442	60.5004	99.9257	
   785	-1.8882	-0.1774	-2.0657	-2.3929	-0.6722	-3.0650	-2.4120	-0.6961	-3.1081	60.3591	99.9239	
   786	-1.9921	-0.1851	-2.1774	-2.5089	-0.6829	-3.1917	-2.5231	-0.7021	-3.2252	60.2605	99.9222	
   787	-2.0056	-0.1653	-2.1710	-2.4873	-0.6453	-3.1325	-2.4432	-0.6625	-3.1057	60.4223	99.9213	
   788	-1.8084	-0.0861	-1.8946	-2.2957	-0.5516	-2.8471	-2.2546	-0.5653	-2.8198	60.3934	99.9220	
   789	-1.6920	-0.0004	-1.6925	-2.2099	-0.5108	-2.7206	-2.2316	-0.5508	-2.7823	60.4143	99.9237	
   790	-1.7641	-0.0870	-1.8512	-2.3372	-0.6015	-2.9386	-2.3819	-0.6559	-3.0378	60.2934	99.9229	
   791	-1.9989	-0.1752	-2.1742	-2.5339	-0.6740	-3.2079	-2.5512	-0.7091	-3.2603	60.2522	99.9227	
   792	-2.0277	-0.1649	-2.1927	-2.5457	-0.6570	-3.2026	-2.5543	-0.6684	-3.2227	60.1722	99.9215	
   793	-1.9065	-0.1184	-2.0250	-2.3889	-0.6090	-2.9979	-2.3799	-0.6227	-3.0026	60.3753	99.9227	
   794	-1.7553	-0.1801	-1.9355	-2.3302	-0.6944	-3.0245	-2.4045	-0.7553	-3.1598	60.3264	99.9254	
   795	-2.0064	-0.2925	-2.2990	-2.5352	-0.7963	-3.3314	-2.5522	-0.8161	-3.3683	60.3407	99.9212	
   796	-2.0083	-0.3218	-2.3302	-2.5567	-0.8339	-3.3905	-2.6053	-0.8708	-3.4761	60.3222	99.9232	
   797	-2.0853	-0.3691	-2.4545	-2.6175	-0.8835	-3.5009	-2.6679	-0.8995	-3.5675	60.2768	99.9223	
   798	-2.0776	-0.3644	-2.4421	-2.6034	-0.8626	-3.4659	-2.6334	-0.8778	-3.5112	60.2872	99.9223	
   799	-1.9284	-0.3429	-2.2715	-2.4424	-0.8485	-3.2907	-2.4552	-0.8617	-3.3169	60.4846	99.9210	
   800	-1.8485	-0.3641	-2.2127	-2.3981	-0.8577	-3.2556	-2.4234	-0.8842	-3.3076	60.4313	99.9219	
   801	-1.8707	-0.3636	-2.2344	-2.4122	-0.8785	-3.2906	-2.4464	-0.8987	-3.3451	60.4726	99.9208	
   802	-1.8726	-0.3930	-2.2656	-2.4138	-0.9038	-3.3175	-2.4535	-0.9244	-3.3779	60.4706	99.9215	
   803	-1.8966	-0.4218	-2.3185	-2.4538	-0.9284	-3.3821	-2.5046	-0.9459	-3.4506	60.3718	99.9214	
   804	-1.8803	-0.3977	-2.2780	-2.3695	-0.9130	-3.2824	-2.3922	-0.9178	-3.3100	60.6241	99.9217	
   805	-1.6829	-0.4310	-2.1140	-2.2226	-0.9197	-3.1422	-2.2601	-0.9306	-3.1907	60.5317	99.9222	
   806	-1.6839	-0.4456	-2.1296	-2.2434	-0.9446	-3.1879	-2.2787	-0.9636	-3.2423	60.5691	99.9208	
   807	-1.7070	-0.4598	-2.1669	-2.2391	-0.9784	-3.2174	-2.2749	-0.9932	-3.2681	60.7069	99.9206	
   808	-1.7088	-0.4892	-2.1981	-2.2716	-0.9863	-3.2578	-2.3095	-1.0149	-3.3243	60.6086	99.9217	
   809	-1.7618	-0.5077	-2.2695	-2.3065	-1.0321	-3.3385	-2.3440	-1.0366	-3.3806	60.6539	99.9185	
   810	-1.6732	-0.5094	-2.1827	-2.1905	-1.0214	-3.2118	-2.2055	-1.0347	-3.2401	60.8520	99.9203	
   811	-1.6164	-0.5448	-2.1613	-2.1612	-1.0641	-3.2251	-2.2247	-1.0787	-3.3035	60.7445	99.9216	
   812	-1.7010	-0.5969	-2.2981	-2.2419	-1.1259	-3.3678	-2.3060	-1.1404	-3.4464	60.7823	99.9211	
   813	-1.7386	-0.6059	-2.3446	-2.2686	-1.1424	-3.4108	-2.3283	-1.1438	-3.4722	60.7842	99.9197	
   814	-1.7540	-0.6154	-2.3695	-2.2944	-1.1461	-3.4405	-2.3622	-1.1545	-3.5167	60.7331	99.9207	
   815	-1.7626	-0.6348	-2.3975	-2.2893	-1.1673	-3.4566	-2.3297	-1.1660	-3.4956	60.8333	99.9185	
   816	-1.6664	-0.6318	-2.2983	-2.1867	-1.1648	-3.3514	-2.2308	-1.1783	-3.4091	60.9730	99.9205	
   817	-1.6471	-0.6763	-2.3234	-2.1899	-1.2154	-3.4051	-2.2826	-1.2109	-3.4934	60.7767	99.9205	
   818	-1.6846	-0.6853	-2.3700	-2.2157	-1.2192	-3.4348	-2.2832	-1.2219	-3.5052	60.8731	99.9205	
   819	-1.6702	-0.6905	-2.3607	-2.2032	-1.2236	-3.4267	-2.2673	-1.2332	-3.5005	60.9185	99.9208	
   820	-1.6711	-0.7051	-2.3763	-2.2106	-1.2403	-3.4509	-2.2731	-1.2368	-3.5099	60.8731	99.9189	
   821	-1.6037	-0.6918	-2.2956	-2.1197	-1.2208	-3.3404	-2.1721	-1.2160	-3.3881	60.9767	99.9199	
   822	-1.5238	-0.7130	-2.2369	-2.0829	-1.2467	-3.3295	-2.1575	-1.2494	-3.4069	60.9185	99.9192	
   823	-1.5854	-0.7508	-2.3363	-2.1370	-1.2922	-3.4291	-2.2171	-1.3187	-3.5359	61.0458	99.9216	
   824	-1.6470	-0.7887	-2.4358	-2.1844	-1.3335	-3.5179	-2.2791	-1.3364	-3.6155	60.9530	99.9211	
   825	-1.6864	-0.8271	-2.5136	-2.2377	-1.3664	-3.6040	-2.3258	-1.3764	-3.7022	60.9475	99.9209	
   826	-1.7095	-0.8413	-2.5509	-2.2385	-1.3790	-3.6174	-2.3309	-1.3690	-3.6998	60.9075	99.9208	
   827	-1.5978	-0.8289	-2.4268	-2.1159	-1.3642	-3.4800	-2.1866	-1.3634	-3.5500	61.1019	99.9209	
   828	-1.5536	-0.8297	-2.3834	-2.0908	-1.3731	-3.4638	-2.1815	-1.3709	-3.5524	61.0494	99.9204	
   829	-1.5689	-0.8392	-2.4083	-2.1300	-1.3851	-3.5150	-2.2167	-1.4036	-3.6204	61.0859	99.9204	
   830	-1.5997	-0.8582	-2.4580	-2.1767	-1.4138	-3.5903	-2.2902	-1.4285	-3.7187	60.9821	99.9203	
   831	-1.6921	-0.9150	-2.6072	-2.2590	-1.5009	-3.7598	-2.4111	-1.5045	-3.9156	60.9656	99.9203	
   832	-1.7392	-0.9581	-2.6974	-2.2797	-1.5259	-3.8055	-2.3965	-1.5379	-3.9344	61.1137	99.9215	
   833	-1.7247	-0.9633	-2.6881	-2.2555	-1.5474	-3.8028	-2.3921	-1.5564	-3.9485	61.1559	99.9219	
   834	-1.7565	-0.9969	-2.7534	-2.3154	-1.5843	-3.8997	-2.4554	-1.5962	-4.0516	61.0994	99.9205	
   835	-1.8171	-1.0201	-2.8373	-2.3679	-1.6045	-3.9724	-2.5123	-1.6213	-4.1336	61.0959	99.9220	
   836	-1.8546	-1.0292	-2.8839	-2.4138	-1.6206	-4.0343	-2.5678	-1.6243	-4.1921	60.9986	99.9204	
   837	-1.8921	-1.0382	-2.9304	-2.4322	-1.6077	-4.0397	-2.5563	-1.6171	-4.1734	61.0554	99.9217	
   838	-1.8180	-1.0348	-2.8529	-2.3487	-1.6048	-3.9535	-2.4842	-1.6143	-4.0985	61.1048	99.9230	
   839	-1.8334	-1.0442	-2.8778	-2.3820	-1.6254	-4.0073	-2.5455	-1.6209	-4.1664	60.9564	99.9218	
   840	-1.8488	-1.0537	-2.9026	-2.4079	-1.6291	-4.0370	-2.5621	-1.6207	-4.1827	60.9105	99.9205	
   841	-1.8556	-1.0438	-2.8995	-2.4005	-1.6124	-4.0128	-2.5390	-1.6062	-4.1452	60.9637	99.9210	
   842	-1.8469	-1.0244	-2.8714	-2.3938	-1.6083	-4.0020	-2.5492	-1.5913	-4.1405	60.9142	99.9199	
   843	-1.7854	-0.9865	-2.7720	-2.3072	-1.5549	-3.8620	-2.4087	-1.5562	-3.9649	61.1647	99.9204	
   844	-1.6949	-0.9590	-2.6540	-2.2421	-1.5392	-3.7812	-2.3914	-1.5454	-3.9367	61.0608	99.9219	
   845	-1.7555	-0.9822	-2.7378	-2.3280	-1.5799	-3.9078	-2.4994	-1.5919	-4.0914	60.9968	99.9212	
   846	-1.8691	-1.0240	-2.8931	-2.4455	-1.6159	-4.0613	-2.6240	-1.6383	-4.2624	60.9397	99.9229	
   847	-1.9604	-1.0662	-3.0267	-2.5439	-1.6521	-4.1959	-2.6975	-1.6632	-4.3608	60.8936	99.9200	
   848	-2.0192	-1.0601	-3.0794	-2.5556	-1.6351	-4.1906	-2.6745	-1.6488	-4.3233	61.0482	99.9215	
   849	-1.9451	-1.0567	-3.0018	-2.4855	-1.6405	-4.1259	-2.6406	-1.6381	-4.2788	60.9527	99.9217	
   850	-1.9826	-1.0657	-3.0484	-2.5239	-1.6398	-4.1636	-2.6688	-1.6451	-4.3139	60.9527	99.9223	
   851	-1.9970	-1.0605	-3.0577	-2.5297	-1.6313	-4.1610	-2.6847	-1.6339	-4.3185	60.9067	99.9236	
   852	-2.0115	-1.0554	-3.0669	-2.5556	-1.6351	-4.1906	-2.7179	-1.6334	-4.3513	60.8552	99.9224	
   853	-2.0490	-1.0644	-3.1135	-2.5999	-1.6259	-4.2257	-2.7396	-1.6258	-4.3653	60.8130	99.9219	
   854	-1.9951	-1.0312	-3.0265	-2.5090	-1.6064	-4.1152	-2.6603	-1.5973	-4.2576	60.9142	99.9231	
   855	-1.9653	-1.0269	-2.9923	-2.5023	-1.6023	-4.1045	-2.6654	-1.5898	-4.2552	60.8168	99.9222	
   856	-1.9720	-1.0170	-2.9892	-2.5207	-1.5893	-4.1099	-2.6820	-1.5896	-4.2716	60.8130	99.9228	
   857	-1.9942	-1.0166	-3.0109	-2.5650	-1.5801	-4.1450	-2.7044	-1.5930	-4.2974	60.8111	99.9217	
   858	-2.0375	-1.0010	-3.0387	-2.5967	-1.5754	-4.1720	-2.7376	-1.5926	-4.3301	60.8552	99.9221	
   859	-2.0077	-0.9967	-3.0045	-2.5383	-1.5637	-4.1019	-2.6692	-1.5602	-4.2294	60.8702	99.9218	
   860	-1.9182	-0.9839	-2.9021	-2.4608	-1.5524	-4.0130	-2.6187	-1.5498	-4.1685	60.8206	99.9230	
   861	-1.9480	-0.9882	-2.9363	-2.5058	-1.5558	-4.0615	-2.6532	-1.5715	-4.2247	60.8608	99.9230	
   862	-1.9788	-1.0071	-2.9860	-2.5383	-1.5637	-4.1019	-2.6973	-1.5673	-4.2645	60.7211	99.9235	
   863	-2.0154	-1.0015	-3.0170	-2.5767	-1.5630	-4.1397	-2.7362	-1.5704	-4.3067	60.7172	99.9234	
   864	-2.0664	-0.9907	-3.0572	-2.5834	-1.5671	-4.1504	-2.7356	-1.5594	-4.2949	60.8187	99.9230	
   865	-1.9480	-0.9882	-2.9363	-2.4725	-1.5353	-4.0077	-2.6123	-1.5351	-4.1474	60.8301	99.9246	
   866	-1.9028	-0.9744	-2.8773	-2.4282	-1.5445	-3.9726	-2.6008	-1.5279	-4.1286	60.7785	99.9236	
   867	-1.9028	-0.9744	-2.8773	-2.4525	-1.5230	-3.9754	-2.6167	-1.5166	-4.1333	60.6849	99.9242	
   868	-1.9249	-0.9739	-2.8990	-2.4725	-1.5353	-4.0077	-2.6448	-1.5236	-4.1684	60.6810	99.9234	
   869	-1.9615	-0.9683	-2.9299	-2.4984	-1.5391	-4.0373	-2.6671	-1.5270	-4.1942	60.7269	99.9231	
   870	-1.9163	-0.9546	-2.8709	-2.4325	-1.5107	-3.9431	-2.5605	-1.5026	-4.0630	60.8833	99.9229	
   871	-1.8123	-0.9468	-2.7593	-2.3483	-1.4952	-3.8434	-2.4883	-1.4998	-3.9881	60.8815	99.9243	
   872	-1.8268	-0.9417	-2.7686	-2.3675	-1.4949	-3.8623	-2.5100	-1.4921	-4.0021	60.8338	99.9231	
   873	-1.8345	-0.9464	-2.7810	-2.3683	-1.5075	-3.8757	-2.5158	-1.4958	-4.0115	60.8338	99.9225	
   874	-1.8422	-0.9511	-2.7934	-2.3933	-1.4987	-3.8919	-2.5432	-1.4917	-4.0349	60.7385	99.9231	
   875	-1.8566	-0.9460	-2.8027	-2.3926	-1.4860	-3.8785	-2.5259	-1.4809	-4.0068	60.7919	99.9235	
   876	-1.7748	-0.9378	-2.7127	-2.2840	-1.4921	-3.7760	-2.4314	-1.4747	-3.9061	60.8908	99.9239	
   877	-1.7604	-0.9430	-2.7035	-2.2907	-1.4962	-3.7868	-2.4595	-1.4817	-3.9413	60.7900	99.9245	
   878	-1.7758	-0.9525	-2.7283	-2.3224	-1.4914	-3.8138	-2.4870	-1.4777	-3.9647	60.6966	99.9244	
   879	-1.7979	-0.9520	-2.7500	-2.3549	-1.4993	-3.8542	-2.5100	-1.4921	-4.0021	60.7385	99.9231	
   880	-1.8422	-0.9511	-2.7934	-2.3816	-1.5157	-3.8972	-2.5540	-1.4879	-4.0419	60.6908	99.9222	
   881	-1.8133	-0.9615	-2.7749	-2.3483	-1.4952	-3.8434	-2.4870	-1.4777	-3.9647	60.7500	99.9233	
   882	-1.7536	-0.9529	-2.7066	-2.3032	-1.4918	-3.7949	-2.4646	-1.4743	-3.9389	60.6985	99.9237	
   883	-1.7758	-0.9525	-2.7283	-2.3291	-1.4955	-3.8245	-2.4978	-1.4738	-3.9717	60.6489	99.9233	
   884	-1.8047	-0.9421	-2.7469	-2.3483	-1.4952	-3.8434	-2.5144	-1.4736	-3.9880	60.6946	99.9229	
   885	-1.8200	-0.9516	-2.7717	-2.3800	-1.4905	-3.8704	-2.5425	-1.4807	-4.0232	60.6450	99.9238	
   886	-1.8566	-0.9460	-2.8027	-2.3933	-1.4987	-3.8919	-2.5642	-1.4730	-4.0372	60.6469	99.9233	
   887	-1.7970	-0.9374	-2.7344	-2.3342	-1.4744	-3.8084	-2.4907	-1.4481	-3.9388	60.6567	99.9234	
   888	-1.7739	-0.9232	-2.6971	-2.3275	-1.4703	-3.7977	-2.5066	-1.4368	-3.9435	60.5573	99.9226	
   889	-1.8037	-0.9275	-2.7313	-2.3659	-1.4696	-3.8354	-2.5297	-1.4513	-3.9810	60.6011	99.9228	
   890	-1.8345	-0.9464	-2.7810	-2.4051	-1.4816	-3.8866	-2.5751	-1.4692	-4.0442	60.5494	99.9238	
   891	-1.8865	-0.9503	-2.8368	-2.4568	-1.4892	-3.9459	-2.6472	-1.4719	-4.1191	60.4496	99.9246	
   892	-1.9163	-0.9546	-2.8709	-2.4701	-1.4974	-3.9674	-2.6364	-1.4758	-4.1121	60.5494	99.9231	
   893	-1.8643	-0.9507	-2.8151	-2.4125	-1.4983	-3.9108	-2.5866	-1.4764	-4.0630	60.5972	99.9236	
   894	-1.8865	-0.9503	-2.8368	-2.4568	-1.4892	-3.9459	-2.6414	-1.4683	-4.1098	60.4516	99.9238	
   895	-1.9086	-0.9498	-2.8585	-2.4760	-1.4888	-3.9647	-2.6689	-1.4643	-4.1332	60.4037	99.9242	
   896	-1.9384	-0.9541	-2.8926	-2.5085	-1.4967	-4.0051	-2.6919	-1.4787	-4.1706	60.4475	99.9237	
   897	-1.9615	-0.9683	-2.9299	-2.5536	-1.5002	-4.0537	-2.7417	-1.4781	-4.2198	60.3035	99.9232	
   898	-1.9683	-0.9584	-2.9268	-2.5211	-1.4923	-4.0133	-2.6912	-1.4677	-4.1589	60.4557	99.9239	
   899	-1.9172	-0.9692	-2.8865	-2.4901	-1.5097	-3.9997	-2.6977	-1.4823	-4.1800	60.3516	99.9246	
   900	-1.9836	-0.9679	-2.9516	-2.5485	-1.5214	-4.0697	-2.7590	-1.4889	-4.2479	60.3474	99.9238	
   901	-1.9990	-0.9774	-2.9765	-2.5810	-1.5292	-4.1101	-2.7871	-1.4960	-4.2830	60.2973	99.9225	
   902	-2.0366	-0.9864	-3.0230	-2.6202	-1.5412	-4.1613	-2.8159	-1.5140	-4.3299	60.3412	99.9220	
   903	-2.0741	-0.9954	-3.0696	-2.6519	-1.5365	-4.1883	-2.8267	-1.5102	-4.3369	60.3474	99.9220	
   904	-2.0144	-0.9868	-3.0014	-2.5744	-1.5251	-4.0994	-2.7596	-1.5000	-4.2597	60.3996	99.9242	
   905	-2.0144	-0.9868	-3.0014	-2.6061	-1.5204	-4.1264	-2.7878	-1.5070	-4.2948	60.3453	99.9234	
   906	-2.0443	-0.9911	-3.0355	-2.6261	-1.5327	-4.1587	-2.8101	-1.5104	-4.3205	60.3453	99.9228	
   907	-2.0741	-0.9954	-3.0696	-2.6461	-1.5450	-4.1910	-2.8331	-1.5249	-4.3580	60.3893	99.9232	
   908	-2.1107	-0.9898	-3.1006	-2.6903	-1.5358	-4.2260	-2.8663	-1.5245	-4.3908	60.3872	99.9230	
   909	-2.0953	-0.9803	-3.0757	-2.6386	-1.5283	-4.1668	-2.8088	-1.4883	-4.2971	60.4037	99.9220	
   910	-1.9990	-0.9774	-2.9765	-2.5736	-1.5125	-4.0860	-2.7641	-1.4815	-4.2456	60.3056	99.9234	
   911	-1.9990	-0.9774	-2.9765	-2.5736	-1.5125	-4.0860	-2.7749	-1.4777	-4.2526	60.2576	99.9238	
   912	-2.0202	-0.9623	-2.9826	-2.5920	-1.4995	-4.0914	-2.7857	-1.4738	-4.2596	60.3035	99.9241	
   913	-2.0270	-0.9523	-2.9794	-2.6112	-1.4992	-4.1103	-2.8023	-1.4736	-4.2760	60.2994	99.9225	
   914	-2.0424	-0.9618	-3.0043	-2.6170	-1.4907	-4.1076	-2.7959	-1.4589	-4.2549	60.2618	99.9230	
   915	-1.9596	-0.9390	-2.8987	-2.5011	-1.4800	-3.9810	-2.6841	-1.4419	-4.1261	60.4119	99.9237	
   916	-1.9230	-0.9446	-2.8678	-2.4877	-1.4718	-3.9594	-2.6784	-1.4383	-4.1167	60.3161	99.9243	
   917	-1.9375	-0.9395	-2.8770	-2.4877	-1.4718	-3.9594	-2.6784	-1.4383	-4.1167	60.3640	99.9248	
   918	-1.9375	-0.9395	-2.8770	-2.4885	-1.4844	-3.9728	-2.6950	-1.4381	-4.1331	60.3140	99.9238	
   919	-1.9596	-0.9390	-2.8987	-2.5203	-1.4797	-3.9998	-2.7173	-1.4415	-4.1588	60.3119	99.9236	
   920	-1.9298	-0.9347	-2.8646	-2.4678	-1.4595	-3.9271	-2.6273	-1.4168	-4.0441	60.4241	99.9231	
   921	-1.8258	-0.9270	-2.7530	-2.3776	-1.4526	-3.8301	-2.5653	-1.3992	-3.9644	60.3306	99.9232	
   922	-1.8258	-0.9270	-2.7530	-2.3902	-1.4481	-3.8382	-2.5876	-1.4026	-3.9902	60.2786	99.9242	
   923	-1.8470	-0.9119	-2.7590	-2.4027	-1.4437	-3.8463	-2.5825	-1.4100	-3.9926	60.4180	99.9237	
   924	-1.8547	-0.9167	-2.7715	-2.4094	-1.4478	-3.8571	-2.6100	-1.4060	-4.0160	60.3223	99.9246	
   925	-1.8836	-0.9063	-2.7900	-2.4344	-1.4389	-3.8733	-2.6100	-1.4060	-4.0160	60.4180	99.9237	
   926	-1.8095	-0.9029	-2.7125	-2.3569	-1.4276	-3.7844	-2.5263	-1.3960	-3.9223	60.4719	99.9242	
   927	-1.7874	-0.9033	-2.6908	-2.3502	-1.4235	-3.7736	-2.5372	-1.3921	-3.9293	60.3743	99.9249	
   928	-1.7951	-0.9081	-2.7032	-2.3569	-1.4276	-3.7844	-2.5473	-1.3772	-3.9246	60.2849	99.9235	
   929	-1.8095	-0.9029	-2.7125	-2.3694	-1.4232	-3.7925	-2.5589	-1.3845	-3.9433	60.3286	99.9246	
   930	-1.8239	-0.8977	-2.7217	-2.3945	-1.4143	-3.8087	-2.5805	-1.3768	-3.9574	60.2807	99.9241	
   931	-1.8153	-0.8783	-2.6937	-2.3678	-1.3979	-3.7656	-2.5345	-1.3479	-3.8824	60.3389	99.9224	
   932	-1.7624	-0.8598	-2.6223	-2.3028	-1.3821	-3.6848	-2.4732	-1.3413	-3.8145	60.4343	99.9241	
   933	-1.7614	-0.8452	-2.6067	-2.3145	-1.3651	-3.6795	-2.5000	-1.3262	-3.8261	60.3368	99.9247	
   934	-1.7759	-0.8400	-2.6159	-2.3271	-1.3606	-3.6876	-2.5216	-1.3185	-3.8402	60.2891	99.9252	
   935	-1.7836	-0.8447	-2.6284	-2.3404	-1.3689	-3.7091	-2.5325	-1.3147	-3.8472	60.2434	99.9233	
   936	-1.8048	-0.8296	-2.6345	-2.3580	-1.3433	-3.7012	-2.5369	-1.2962	-3.8331	60.2476	99.9240	
   937	-1.7451	-0.8210	-2.5662	-2.2937	-1.3401	-3.6338	-2.4698	-1.2860	-3.7558	60.2995	99.9230	
   938	-1.7297	-0.8115	-2.5414	-2.3055	-1.3231	-3.6284	-2.4698	-1.2860	-3.7558	60.2953	99.9227	
   939	-1.7441	-0.8064	-2.5506	-2.3055	-1.3231	-3.6284	-2.4807	-1.2821	-3.7628	60.2953	99.9236	
   940	-1.7663	-0.8059	-2.5723	-2.3063	-1.3357	-3.6419	-2.4973	-1.2819	-3.7792	60.2953	99.9238	
   941	-1.7817	-0.8154	-2.5972	-2.3380	-1.3309	-3.6689	-2.5356	-1.2740	-3.8096	60.1541	99.9241	
   942	-1.7961	-0.8102	-2.6064	-2.3505	-1.3265	-3.6770	-2.5240	-1.2668	-3.7909	60.2061	99.9222	
   943	-1.7441	-0.8064	-2.5506	-2.2988	-1.3190	-3.6177	-2.4743	-1.2674	-3.7417	60.2539	99.9234	
   944	-1.7663	-0.8059	-2.5723	-2.3306	-1.3142	-3.6447	-2.5132	-1.2706	-3.7838	60.2019	99.9244	
   945	-1.7884	-0.8055	-2.5940	-2.3439	-1.3224	-3.6662	-2.5356	-1.2740	-3.8096	60.1998	99.9245	
   946	-1.8183	-0.8098	-2.6281	-2.3697	-1.3262	-3.6958	-2.5579	-1.2774	-3.8354	60.1998	99.9245	
   947	-1.8471	-0.7994	-2.6467	-2.4015	-1.3214	-3.7228	-2.5854	-1.2734	-3.8588	60.1977	99.9236	
   948	-1.8250	-0.7999	-2.6250	-2.3690	-1.3136	-3.6824	-2.5298	-1.2704	-3.8002	60.2995	99.9237	
   949	-1.8029	-0.8003	-2.6033	-2.3564	-1.3180	-3.6743	-2.5515	-1.2628	-3.8143	60.1541	99.9241	
   950	-1.8404	-0.8093	-2.6498	-2.3889	-1.3259	-3.7147	-2.5745	-1.2772	-3.8517	60.1998	99.9245	
   951	-1.8558	-0.8188	-2.6747	-2.4207	-1.3211	-3.7417	-2.6020	-1.2732	-3.8751	60.1063	99.9243	
   952	-1.8779	-0.8184	-2.6964	-2.4399	-1.3208	-3.7606	-2.6294	-1.2691	-3.8985	60.0584	99.9247	
   953	-1.9068	-0.8080	-2.7149	-2.4649	-1.3119	-3.7768	-2.6236	-1.2655	-3.8892	60.1562	99.9232	
   954	-1.8625	-0.8089	-2.6715	-2.4265	-1.3126	-3.7390	-2.6128	-1.2694	-3.8822	60.1041	99.9251	
   955	-1.9231	-0.8321	-2.7554	-2.4990	-1.3451	-3.8440	-2.6927	-1.3089	-4.0016	60.0912	99.9248	
   956	-1.9847	-0.8700	-2.8548	-2.5598	-1.3947	-3.9543	-2.7726	-1.3485	-4.1211	60.0344	99.9244	
   957	-2.0540	-0.9127	-2.9667	-2.6205	-1.4442	-4.0647	-2.8315	-1.4068	-4.2383	60.1197	99.9251	
   958	-2.1367	-0.9355	-3.0723	-2.6989	-1.4682	-4.1670	-2.8942	-1.4355	-4.3297	60.1635	99.9246	
   959	-2.1309	-0.9600	-3.0911	-2.6989	-1.4682	-4.1670	-2.8827	-1.4283	-4.3110	60.0781	99.9246	
   960	-2.1454	-0.9549	-3.1003	-2.7189	-1.4805	-4.1993	-2.9006	-1.4502	-4.3508	60.1635	99.9237	
   961	-2.1752	-0.9592	-3.1344	-2.7455	-1.4969	-4.2424	-2.9345	-1.4608	-4.3953	60.1592	99.9229	
   962	-2.1896	-0.9540	-3.1437	-2.7706	-1.4881	-4.2586	-2.9612	-1.4457	-4.4070	60.0651	99.9221	
   963	-2.2041	-0.9488	-3.1530	-2.7773	-1.4922	-4.2694	-2.9728	-1.4530	-4.4257	60.1089	99.9225	
   964	-2.2262	-0.9484	-3.1747	-2.7965	-1.4919	-4.2882	-2.9721	-1.4419	-4.4140	60.1154	99.9203	
   965	-2.1665	-0.9398	-3.1064	-2.7248	-1.4720	-4.1967	-2.9050	-1.4317	-4.3367	60.1678	99.9231	
   966	-2.1588	-0.9350	-3.0940	-2.7248	-1.4720	-4.1967	-2.9216	-1.4315	-4.3531	60.1154	99.9234	
   967	-2.1723	-0.9152	-3.0876	-2.7306	-1.4635	-4.1940	-2.9325	-1.4276	-4.3601	60.1592	99.9238	
   968	-2.1887	-0.9393	-3.1281	-2.7823	-1.4710	-4.2533	-2.9714	-1.4308	-4.4023	60.0168	99.9216	
   969	-2.2176	-0.9290	-3.1466	-2.8000	-1.4454	-4.2453	-2.9758	-1.4123	-4.3882	60.0234	99.9232	
   970	-2.1646	-0.9105	-3.0752	-2.7216	-1.4214	-4.1429	-2.8857	-1.3876	-4.2734	60.1305	99.9242	
   971	-2.1117	-0.8920	-3.0038	-2.6632	-1.4098	-4.0729	-2.8512	-1.3659	-4.2171	60.0847	99.9248	
   972	-2.0886	-0.8777	-2.9665	-2.6550	-1.3804	-4.0353	-2.8485	-1.3217	-4.1702	59.9035	99.9241	
   973	-2.0791	-0.8437	-2.9228	-2.6409	-1.3596	-4.0003	-2.8363	-1.3034	-4.1397	59.9493	99.9238	
   974	-2.0935	-0.8385	-2.9321	-2.6393	-1.3343	-3.9735	-2.8293	-1.2776	-4.1069	59.9124	99.9258	
   975	-2.0550	-0.8148	-2.8699	-2.5860	-1.3015	-3.8873	-2.7378	-1.2308	-3.9687	59.9802	99.9235	
   976	-1.9646	-0.7873	-2.7520	-2.4868	-1.2525	-3.7393	-2.6247	-1.1917	-3.8164	60.0410	99.9255	
   977	-1.9482	-0.7632	-2.7115	-2.4402	-1.2238	-3.6639	-2.5831	-1.1442	-3.7273	60.0086	99.9263	
   978	-1.9330	-0.6412	-2.5742	-2.4107	-1.0598	-3.4705	-2.4619	-0.9723	-3.4342	60.0067	99.9232	
   979	-1.7782	-0.4193	-2.1976	-2.2613	-0.8220	-3.0833	-2.2806	-0.7200	-3.0005	59.8596	99.9206	
   980	-1.6908	-0.2107	-1.9017	-2.1629	-0.5791	-2.7419	-2.1266	-0.4636	-2.5902	59.7231	99.9188	
   981	-1.5265	 0.0452	-1.4814	-1.9320	-0.2668	-2.1986	-1.7675	-0.1101	-1.8776	59.7714	99.9143	
   982	-0.9870	 0.5040	-0.4831	-1.3124	 0.1149	-1.1974	-1.1897	 0.1039	-1.0858	60.7981	99.9310	
   983	-1.0994	 0.2519	-0.8476	-1.5319	-0.1175	-1.6493	-1.4386	-0.0738	-1.5123	60.2795	99.9236	
   984	-1.0398	 0.3730	-0.6669	-1.3763	 0.0148	-1.3614	-1.2575	 0.0826	-1.1748	60.4106	99.9262	
   985	-0.9340	 0.4100	-0.5241	-1.3046	 0.0347	-1.2698	-1.2039	 0.0524	-1.1515	60.5701	99.9285	
   986	-0.9801	 0.3816	-0.5987	-1.3387	 0.0015	-1.3371	-1.2378	 0.0418	-1.1960	60.5282	99.9269	
   987	-0.9156	 0.3509	-0.5648	-1.2760	-0.0206	-1.2965	-1.1778	 0.0262	-1.1516	60.5320	99.9270	
   988	-0.9002	 0.3604	-0.5399	-1.2811	 0.0005	-1.2805	-1.1714	 0.0409	-1.1305	60.4883	99.9264	
   989	-0.8849	 0.3699	-0.5151	-1.2552	 0.0043	-1.2508	-1.1643	 0.0667	-1.0976	60.4028	99.9260	
   990	-0.8858	 0.3552	-0.5307	-1.2600	-0.0715	-1.3314	-1.2208	-0.0434	-1.2641	60.6371	99.9279	
   991	-0.9626	 0.1954	-0.7674	-1.4046	-0.2335	-1.6380	-1.4039	-0.2329	-1.6368	60.5532	99.9287	
   992	-1.0944	 0.1002	-0.9943	-1.4987	-0.3036	-1.8022	-1.4679	-0.2838	-1.7517	60.5647	99.9290	
   993	-1.0944	 0.1002	-0.9943	-1.4720	-0.2872	-1.7591	-1.4398	-0.2768	-1.7165	60.6164	99.9323	
   994	-1.0704	 0.1290	-0.9414	-1.4897	-0.2616	-1.7511	-1.4659	-0.2506	-1.7165	60.4744	99.9303	
   995	-1.1012	 0.1101	-0.9912	-1.5304	-0.2988	-1.8292	-1.5349	-0.2940	-1.8289	60.4588	99.9308	
   996	-1.1608	 0.1015	-1.0594	-1.6139	-0.3017	-1.9154	-1.5847	-0.2934	-1.8781	60.4144	99.9273	
   997	-1.2320	 0.0295	-1.2025	-1.6711	-0.3977	-2.0687	-1.6514	-0.3885	-2.0399	60.5378	99.9270	
   998	-1.3540	-0.1441	-1.4982	-1.8158	-0.5597	-2.3753	-1.8108	-0.5525	-2.3634	60.4719	99.9276	
   999	-1.4444	-0.2841	-1.7286	-1.9404	-0.7094	-2.6497	-1.9696	-0.7055	-2.6751	60.3974	99.9275	
  1000	-1.5761	-0.3793	-1.9555	-2.0627	-0.8212	-2.8838	-2.1122	-0.7738	-2.8860	60.2527	99.9245	
  1001	-1.6079	-0.4129	-2.0209	-2.1152	-0.8414	-2.9565	-2.1690	-0.7989	-2.9680	60.1545	99.9250	
  1002	-1.6608	-0.4314	-2.0923	-2.1619	-0.8701	-3.0318	-2.2317	-0.8276	-3.0593	60.1461	99.9257	
  1003	-1.7214	-0.4547	-2.1762	-2.2018	-0.8947	-3.0964	-2.2547	-0.8421	-3.0968	60.1974	99.9247	
  1004	-1.6559	-0.4706	-2.1267	-2.1184	-0.8919	-3.0102	-2.1609	-0.8470	-3.0079	60.2996	99.9271	
  1005	-1.6184	-0.4616	-2.0801	-2.0941	-0.9134	-3.0074	-2.1558	-0.8544	-3.0102	60.2914	99.9241	
  1006	-1.6203	-0.4909	-2.1113	-2.1141	-0.9257	-3.0397	-2.1839	-0.8615	-3.0454	60.1524	99.9244	
  1007	-1.6492	-0.4806	-2.1298	-2.1325	-0.9127	-3.0451	-2.1782	-0.8578	-3.0360	60.2485	99.9244	
  1008	-1.6501	-0.4952	-2.1455	-2.1533	-0.9377	-3.0909	-2.2242	-0.8868	-3.1110	60.1890	99.9246	
  1009	-1.7406	-0.5228	-2.2634	-2.2066	-0.9705	-3.1770	-2.2689	-0.8936	-3.1625	60.1974	99.9235	
  1010	-1.6588	-0.5146	-2.1735	-2.1098	-0.9595	-3.0692	-2.1795	-0.8800	-3.0595	60.2506	99.9248	
  1011	-1.6299	-0.5250	-2.1550	-2.1216	-0.9424	-3.0639	-2.1744	-0.8874	-3.0618	60.2015	99.9254	
  1012	-1.6597	-0.5293	-2.1891	-2.1415	-0.9548	-3.0962	-2.2025	-0.8944	-3.0970	60.1994	99.9255	
  1013	-1.6896	-0.5336	-2.2232	-2.1741	-0.9626	-3.1366	-2.2255	-0.9089	-3.1345	60.2423	99.9250	
  1014	-1.7280	-0.5572	-2.2854	-2.2207	-0.9914	-3.2120	-2.2824	-0.9340	-3.2164	60.1890	99.9246	
  1015	-1.7877	-0.5658	-2.3536	-2.2481	-1.0204	-3.2685	-2.3055	-0.9485	-3.2539	60.2832	99.9234	
  1016	-1.7733	-0.5710	-2.3444	-2.2156	-1.0125	-3.2281	-2.2665	-0.9453	-3.2118	60.3364	99.9253	
  1017	-1.7588	-0.5762	-2.3351	-2.2105	-1.0337	-3.2441	-2.2723	-0.9489	-3.2212	60.2873	99.9228	
  1018	-1.7751	-0.6003	-2.3756	-2.2548	-1.0245	-3.2792	-2.3170	-0.9557	-3.2727	60.1461	99.9251	
  1019	-1.8127	-0.6094	-2.4221	-2.2814	-1.0409	-3.3223	-2.3451	-0.9627	-3.3078	60.1461	99.9244	
  1020	-1.8281	-0.6188	-2.4470	-2.2948	-1.0492	-3.3438	-2.3732	-0.9698	-3.3429	60.0968	99.9256	
  1021	-1.8800	-0.6227	-2.5028	-2.3457	-1.0441	-3.3897	-2.4064	-0.9693	-3.3757	60.0989	99.9255	
  1022	-1.8646	-0.6132	-2.4780	-2.3132	-1.0362	-3.3493	-2.3603	-0.9404	-3.3007	60.1116	99.9236	
  1023	-1.8108	-0.5800	-2.3909	-2.2650	-0.9822	-3.2470	-2.2964	-0.8895	-3.1859	60.0773	99.9240	
  1024	-1.7541	-0.5029	-2.2571	-2.2010	-0.8821	-3.0830	-2.2111	-0.7615	-2.9725	59.9218	99.9221	
  1025	-1.7222	-0.5818	-2.3041	-2.2337	-1.0966	-3.3301	-2.4469	-1.0906	-3.5376	60.2580	99.9325	
  1026	-2.9047	-1.0424	-3.9472	-3.4526	-1.4344	-4.8869	-3.6700	-1.2631	-4.9331	58.5016	99.9253	
  1027	-3.5025	-0.9180	-4.4205	-3.8929	-1.3047	-5.1975	-3.9398	-1.1452	-5.0850	58.9318	99.9244	
  1028	-3.1262	-0.8130	-3.9393	-3.3585	-1.1577	-4.5161	-3.2773	-0.9950	-4.2723	59.7789	99.9274	
  1029	-2.1054	-0.4519	-2.5574	-2.3334	-0.7449	-3.0782	-2.1933	-0.5587	-2.7519	60.0679	99.9252	
  1030	-1.2052	 0.2149	-0.9904	-1.3849	 0.0824	-1.3024	-1.0351	 0.3714	-0.6637	59.7889	99.9164	
  1031	-0.4513	 0.9041	 0.4527	-0.5035	 0.5524	 0.0490	-0.2677	 0.6088	 0.3411	61.4486	99.9355	
  1032	-0.7394	 0.2202	-0.5192	-1.1958	-0.2750	-1.4707	-1.3324	-0.2412	-1.5737	60.3926	99.9296	
  1033	-1.2445	 0.0640	-1.1806	-1.5880	-0.2979	-1.8858	-1.5560	-0.2753	-1.8312	60.4879	99.9349	
  1034	-1.4427	-0.0298	-1.4726	-1.7871	-0.4084	-2.1953	-1.7141	-0.4172	-2.1312	60.7396	99.9336	
  1035	-1.5456	-0.1354	-1.6810	-1.8577	-0.5126	-2.3701	-1.7807	-0.5123	-2.2930	60.8280	99.9344	
  1036	-1.6340	-0.2461	-1.8802	-1.9541	-0.6206	-2.5746	-1.8972	-0.6068	-2.5039	60.7266	99.9344	
  1037	-1.7581	-0.3366	-2.0947	-2.0572	-0.7327	-2.7898	-2.0360	-0.7046	-2.7406	60.7117	99.9352	
  1038	-1.8898	-0.4317	-2.3217	-2.2038	-0.8230	-3.0266	-2.1863	-0.8098	-2.9961	60.6948	99.9362	
  1039	-2.0312	-0.5610	-2.5923	-2.3841	-1.0434	-3.4274	-2.5093	-1.0234	-3.5327	60.5357	99.9366	
  1040	-2.3246	-0.7556	-3.0803	-2.7156	-1.2234	-3.9389	-2.8202	-1.2187	-4.0388	60.4606	99.9354	
  1041	-2.4447	-0.9000	-3.3448	-2.8336	-1.3690	-4.2025	-2.9450	-1.3610	-4.3061	60.4920	99.9356	
  1042	-2.4842	-0.9383	-3.4226	-2.9045	-1.3762	-4.2806	-3.0267	-1.3378	-4.3645	60.1235	99.9342	
  1043	-2.5506	-0.9370	-3.4877	-2.9645	-1.4131	-4.3775	-3.0900	-1.3776	-4.4676	60.2497	99.9324	
  1044	-2.5871	-0.9314	-3.5186	-3.0005	-1.3746	-4.3750	-3.0758	-1.3261	-4.4020	60.1775	99.9303	
  1045	-2.6190	-0.8525	-3.4716	-2.9942	-1.2735	-4.2676	-3.0525	-1.2157	-4.2682	60.1079	99.9321	
  1046	-2.5844	-0.7749	-3.3594	-2.9444	-1.1942	-4.1385	-3.0031	-1.1314	-4.1346	60.0733	99.9327	
  1047	-2.4767	-0.7086	-3.1854	-2.8178	-1.1162	-3.9339	-2.8548	-1.0595	-3.9143	60.1848	99.9336	
  1048	-2.4142	-0.6560	-3.0703	-2.7696	-1.0622	-3.8317	-2.8189	-1.0157	-3.8346	60.1376	99.9346	
  1049	-2.4354	-0.6409	-3.0764	-2.7947	-1.0534	-3.8479	-2.8515	-1.0042	-3.8557	60.0883	99.9343	
  1050	-2.4729	-0.6500	-3.1230	-2.8139	-1.0530	-3.8668	-2.8732	-0.9965	-3.8697	60.0475	99.9355	
  1051	-2.4796	-0.6401	-3.1198	-2.8197	-1.0445	-3.8641	-2.8674	-0.9929	-3.8603	60.0947	99.9351	
  1052	-2.4719	-0.6353	-3.1074	-2.7997	-1.0322	-3.8318	-2.8322	-0.9602	-3.7924	60.0624	99.9336	
  1053	-2.3671	-0.6130	-2.9801	-2.6697	-1.0007	-3.6702	-2.6866	-0.9325	-3.6191	60.2160	99.9348	
  1054	-2.3382	-0.6233	-2.9616	-2.6595	-1.0430	-3.7024	-2.7187	-1.0059	-3.7246	60.3262	99.9369	
  1055	-2.5353	-0.8150	-3.3504	-2.8857	-1.2795	-4.1651	-2.9824	-1.2461	-4.2285	60.3718	99.9350	
  1056	-2.7757	-0.9912	-3.7670	-3.1063	-1.4276	-4.5338	-3.1754	-1.3249	-4.5003	60.1058	99.9303	
  1057	-2.6901	-0.9244	-3.6147	-3.0189	-1.3616	-4.3804	-3.0738	-1.2929	-4.3668	60.2934	99.9324	
  1058	-2.5449	-0.8491	-3.3940	-2.8798	-1.2881	-4.1678	-2.9452	-1.1802	-4.1253	60.1271	99.9292	
  1059	-2.1592	-0.5975	-2.7568	-2.4961	-0.9909	-3.4869	-2.4708	-0.9353	-3.4061	60.4521	99.9307	
  1060	-1.7715	-0.4292	-2.2008	-2.1720	-0.8277	-2.9997	-2.1856	-0.7987	-2.9843	60.4074	99.9316	
  1061	-1.7676	-0.4831	-2.2508	-2.2743	-0.9272	-3.2014	-2.3475	-0.9110	-3.2585	60.2195	99.9275	
  1062	-1.9427	-0.5627	-2.5055	-2.4017	-1.0178	-3.4194	-2.4589	-1.0130	-3.4718	60.4433	99.9293	
  1063	-1.9917	-0.6351	-2.6269	-2.4198	-1.1019	-3.5215	-2.5069	-1.0751	-3.5820	60.4393	99.9304	
  1064	-1.9637	-0.6601	-2.6240	-2.4088	-1.1316	-3.5403	-2.4879	-1.1270	-3.6149	60.5691	99.9304	
  1065	-1.8992	-0.6908	-2.5901	-2.3787	-1.1616	-3.5402	-2.4906	-1.1713	-3.6618	60.5080	99.9319	
  1066	-1.9175	-0.7442	-2.6618	-2.4093	-1.2412	-3.6504	-2.5827	-1.2291	-3.8118	60.3492	99.9316	
  1067	-1.9935	-0.7769	-2.7705	-2.4767	-1.2949	-3.7714	-2.6633	-1.2798	-3.9430	60.3846	99.9312	
  1068	-2.0406	-0.8200	-2.8607	-2.5558	-1.3315	-3.8872	-2.7438	-1.3304	-4.0743	60.3244	99.9312	
  1069	-2.0944	-0.8532	-2.9477	-2.6099	-1.3769	-3.9868	-2.8014	-1.3666	-4.1680	60.3182	99.9297	
  1070	-2.0954	-0.8678	-2.9633	-2.5915	-1.3899	-3.9813	-2.7746	-1.3817	-4.1563	60.4160	99.9305	
  1071	-2.0453	-0.8933	-2.9387	-2.5547	-1.4158	-3.9704	-2.7600	-1.4151	-4.1752	60.4078	99.9319	
  1072	-2.0684	-0.9075	-2.9760	-2.5880	-1.4364	-4.0243	-2.7888	-1.4332	-4.2220	60.4037	99.9303	
  1073	-2.0693	-0.9221	-2.9916	-2.5829	-1.4575	-4.0404	-2.7953	-1.4479	-4.2431	60.4016	99.9304	
  1074	-2.0847	-0.9316	-3.0165	-2.6021	-1.4572	-4.0592	-2.8068	-1.4551	-4.2619	60.4016	99.9310	
  1075	-2.1001	-0.9411	-3.0413	-2.6280	-1.4610	-4.0889	-2.8132	-1.4698	-4.2830	60.4475	99.9305	
  1076	-2.0405	-0.9325	-2.9731	-2.5571	-1.4537	-4.0107	-2.7353	-1.4634	-4.1987	60.5474	99.9306	
  1077	-1.9808	-0.9239	-2.9048	-2.4936	-1.4632	-3.9568	-2.6906	-1.4566	-4.1472	60.5474	99.9293	
  1078	-1.9664	-0.9291	-2.8956	-2.4928	-1.4506	-3.9433	-2.6848	-1.4530	-4.1378	60.5015	99.9303	
  1079	-1.9433	-0.9149	-2.8583	-2.4603	-1.4427	-3.9029	-2.6510	-1.4423	-4.0933	60.5514	99.9300	
  1080	-1.9134	-0.9106	-2.8241	-2.4536	-1.4386	-3.8922	-2.6510	-1.4423	-4.0933	60.4995	99.9295	
  1081	-1.9279	-0.9054	-2.8334	-2.4662	-1.4342	-3.9003	-2.6560	-1.4349	-4.0909	60.5015	99.9288	
  1082	-1.8759	-0.9016	-2.7776	-2.3894	-1.4355	-3.8248	-2.5571	-1.4472	-4.0044	60.7423	99.9293	
  1083	-1.8316	-0.9024	-2.7342	-2.3526	-1.4614	-3.8139	-2.5578	-1.4583	-4.0161	60.6869	99.9283	
  1084	-1.8326	-0.9171	-2.7498	-2.3718	-1.4611	-3.8328	-2.5642	-1.4730	-4.0372	60.6849	99.9287	
  1085	-1.8403	-0.9218	-2.7622	-2.3851	-1.4693	-3.8543	-2.5866	-1.4764	-4.0630	60.6351	99.9284	
  1086	-1.8557	-0.9313	-2.7871	-2.4051	-1.4816	-3.8866	-2.6204	-1.4870	-4.1075	60.5833	99.9287	
  1087	-1.8711	-0.9408	-2.8119	-2.4125	-1.4983	-3.9108	-2.6052	-1.5094	-4.1145	60.7250	99.9275	
  1088	-1.8191	-0.9369	-2.7561	-2.3483	-1.4952	-3.8434	-2.5388	-1.5102	-4.0490	60.8225	99.9284	
  1089	-1.7835	-0.9572	-2.7408	-2.3424	-1.5038	-3.8461	-2.5445	-1.5139	-4.0584	60.6791	99.9279	
  1090	-1.7902	-0.9473	-2.7376	-2.3424	-1.5038	-3.8461	-2.5503	-1.5175	-4.0678	60.7230	99.9283	
  1091	-1.7902	-0.9473	-2.7376	-2.3483	-1.4952	-3.8434	-2.5394	-1.5213	-4.0607	60.7709	99.9285	
  1092	-1.7970	-0.9374	-2.7344	-2.3424	-1.5038	-3.8461	-2.5293	-1.5362	-4.0655	60.9086	99.9281	
  1093	-1.7681	-0.9477	-2.7159	-2.3099	-1.4959	-3.8057	-2.4890	-1.5109	-3.9999	60.8263	99.9276	
  1094	-1.6998	-0.9198	-2.6196	-2.2323	-1.4845	-3.7167	-2.4053	-1.5009	-3.9062	60.9693	99.9266	
  1095	-1.6699	-0.9155	-2.5855	-2.2123	-1.4722	-3.6844	-2.3996	-1.4973	-3.8968	60.9198	99.9284	
  1096	-1.6622	-0.9107	-2.5731	-2.2057	-1.4681	-3.6737	-2.3880	-1.4900	-3.8781	60.9216	99.9276	
  1097	-1.6613	-0.8961	-2.5575	-2.2049	-1.4555	-3.6603	-2.3714	-1.4902	-3.8617	61.0150	99.9275	
  1098	-1.6545	-0.9060	-2.5606	-2.2057	-1.4681	-3.6737	-2.3887	-1.5011	-3.8898	60.9637	99.9279	
  1099	-1.6247	-0.9017	-2.5265	-2.1665	-1.4561	-3.6225	-2.3101	-1.4836	-3.7938	61.0698	99.9257	
  1100	-1.5439	-0.9082	-2.4521	-2.1156	-1.4612	-3.5767	-2.2610	-1.4954	-3.7564	61.0662	99.9248	
  1101	-1.5439	-0.9082	-2.4521	-2.1097	-1.4697	-3.5793	-2.2776	-1.4951	-3.7728	61.0169	99.9253	
  1102	-1.5660	-0.9077	-2.4738	-2.1289	-1.4694	-3.5982	-2.2790	-1.5173	-3.7962	61.1542	99.9262	
  1103	-1.5746	-0.9271	-2.5019	-2.1371	-1.4988	-3.6358	-2.3294	-1.5277	-3.8571	61.0077	99.9267	
  1104	-1.6054	-0.9461	-2.5516	-2.1763	-1.5108	-3.6870	-2.3582	-1.5458	-3.9040	61.0059	99.9266	
  1105	-1.5833	-0.9465	-2.5299	-2.1379	-1.5114	-3.6492	-2.2810	-1.5505	-3.8314	61.2017	99.9251	
  1106	-1.5313	-0.9427	-2.4741	-2.0921	-1.4953	-3.5873	-2.2413	-1.5362	-3.7775	61.1577	99.9263	
  1107	-1.5313	-0.9427	-2.4741	-2.0995	-1.5121	-3.6115	-2.2478	-1.5509	-3.7987	61.1999	99.9243	
  1108	-1.5332	-0.9720	-2.5053	-2.1070	-1.5288	-3.6357	-2.2874	-1.5651	-3.8525	61.0554	99.9270	
  1109	-1.5707	-0.9810	-2.5519	-2.1344	-1.5579	-3.6922	-2.3328	-1.5830	-3.9158	61.0500	99.9263	
  1110	-1.6160	-0.9948	-2.6108	-2.1552	-1.5828	-3.7379	-2.3399	-1.6088	-3.9486	61.1911	99.9260	
  1111	-1.5582	-1.0155	-2.5738	-2.1227	-1.5749	-3.6975	-2.2901	-1.6094	-3.8995	61.1488	99.9262	
  1112	-1.5370	-1.0306	-2.5677	-2.1051	-1.6005	-3.7055	-2.3022	-1.6277	-3.9300	61.0959	99.9266	
  1113	-1.5745	-1.0396	-2.6143	-2.1442	-1.6125	-3.7567	-2.3368	-1.6494	-3.9862	61.1382	99.9269	
  1114	-1.6053	-1.0586	-2.6640	-2.1533	-1.6545	-3.8077	-2.3720	-1.6822	-4.0542	61.1788	99.9274	
  1115	-1.6361	-1.0775	-2.7137	-2.2050	-1.6621	-3.8670	-2.4174	-1.7000	-4.1174	61.1275	99.9275	
  1116	-1.6813	-1.0913	-2.7727	-2.2450	-1.6867	-3.9316	-2.4627	-1.7179	-4.1807	61.1239	99.9268	
  1117	-1.6380	-1.1068	-2.7449	-2.1999	-1.6833	-3.8831	-2.3906	-1.7152	-4.1058	61.1806	99.9264	
  1118	-1.6005	-1.0978	-2.6984	-2.1549	-1.6798	-3.8346	-2.3682	-1.7118	-4.0800	61.1788	99.9280	
  1119	-1.5937	-1.1077	-2.7015	-2.1431	-1.6969	-3.8399	-2.3848	-1.7115	-4.0964	61.0832	99.9282	
  1120	-1.6014	-1.1125	-2.7140	-2.1748	-1.6921	-3.8669	-2.3855	-1.7226	-4.1081	61.1293	99.9268	
  1121	-1.6158	-1.1073	-2.7232	-2.1815	-1.6962	-3.8776	-2.4072	-1.7149	-4.1221	61.0814	99.9266	
  1122	-1.6235	-1.1120	-2.7357	-2.1940	-1.6918	-3.8857	-2.4129	-1.7186	-4.1315	61.0814	99.9272	
  1123	-1.6082	-1.1025	-2.7108	-2.1549	-1.6798	-3.8346	-2.3567	-1.7045	-4.0612	61.1841	99.9274	
  1124	-1.5494	-1.1086	-2.6581	-2.1223	-1.6719	-3.7942	-2.3235	-1.7049	-4.0285	61.1364	99.9276	
  1125	-1.5783	-1.0983	-2.6767	-2.1298	-1.6887	-3.8183	-2.3574	-1.7156	-4.0730	61.1770	99.9281	
  1126	-1.5725	-1.1228	-2.6954	-2.1431	-1.6969	-3.8399	-2.3530	-1.7341	-4.0871	61.1770	99.9279	
  1127	-1.6091	-1.1172	-2.7264	-2.1756	-1.7048	-3.8803	-2.3919	-1.7373	-4.1292	61.1735	99.9272	
  1128	-1.6100	-1.1319	-2.7420	-2.2015	-1.7085	-3.9099	-2.4085	-1.7371	-4.1456	61.0796	99.9255	
  1129	-1.6245	-1.1267	-2.7513	-2.1890	-1.7130	-3.9018	-2.3919	-1.7373	-4.1292	61.1770	99.9257	
  1130	-1.5648	-1.1181	-2.6830	-2.1306	-1.7013	-3.8318	-2.3306	-1.7307	-4.0613	61.2265	99.9261	
  1131	-1.5725	-1.1228	-2.6954	-2.1372	-1.7054	-3.8425	-2.3530	-1.7341	-4.0871	61.1770	99.9272	
  1132	-1.5802	-1.1276	-2.7079	-2.1380	-1.7180	-3.8560	-2.3587	-1.7377	-4.0965	61.1770	99.9266	
  1133	-1.6024	-1.1271	-2.7296	-2.1698	-1.7133	-3.8829	-2.3760	-1.7486	-4.1246	61.2213	99.9268	
  1134	-1.6177	-1.1366	-2.7544	-2.1956	-1.7171	-3.9126	-2.3984	-1.7520	-4.1503	61.1735	99.9263	
  1135	-1.6341	-1.1607	-2.7949	-2.2164	-1.7420	-3.9583	-2.4329	-1.7737	-4.2066	61.1221	99.9266	
  1136	-1.6495	-1.1702	-2.8198	-2.2046	-1.7591	-3.9636	-2.4004	-1.7852	-4.1855	61.2690	99.9257	
  1137	-1.6581	-1.1896	-2.8478	-2.2121	-1.7758	-3.9878	-2.3729	-1.7892	-4.1621	61.3236	99.9223	
  1138	-1.6245	-1.1267	-2.7513	-2.1180	-1.7057	-3.8237	-2.2693	-1.7241	-3.9934	61.4795	99.9262	
  1139	-1.8073	-1.2111	-3.0184	-2.3539	-1.7903	-4.1441	-2.5779	-1.7903	-4.3681	60.9839	99.9266	
  1140	-2.3039	-1.2354	-3.5394	-2.7363	-1.7585	-4.4947	-2.8120	-1.7245	-4.5365	61.0278	99.9242	
  1141	-1.9230	-0.9446	-2.8678	-2.2017	-1.4049	-3.6065	-2.1310	-1.3605	-3.4915	61.5807	99.9268	
  1142	-0.9234	-0.5684	-1.4919	-1.3741	-1.0774	-2.4514	-1.3406	-1.1086	-2.4491	61.8518	99.9223	
  1143	-0.8002	-0.6051	-1.4054	-1.3586	-1.2379	-2.5963	-1.5240	-1.3941	-2.9181	62.1339	99.9317	
  1144	-1.5149	-1.0310	-2.5460	-2.0008	-1.5728	-3.5735	-2.1126	-1.6043	-3.7169	61.5008	99.9279	
  1145	-1.3995	-0.8475	-2.2471	-1.7864	-1.3192	-3.1055	-1.8384	-1.2830	-3.1214	61.2926	99.9288	
  1146	-0.9061	-0.5297	-1.4359	-1.3659	-1.0480	-2.4138	-1.4747	-1.1290	-2.6037	61.6392	99.9351	
  1147	-0.9974	-0.6843	-1.6818	-1.5787	-1.2763	-2.8549	-1.7831	-1.3760	-3.1591	61.4844	99.9311	
  1148	-1.3793	-0.8772	-2.2566	-1.9228	-1.4518	-3.3745	-2.0638	-1.5311	-3.5950	61.5301	99.9285	
  1149	-1.4976	-0.9923	-2.4899	-2.0251	-1.5513	-3.5763	-2.1681	-1.6073	-3.7754	61.4371	99.9286	
  1150	-1.5370	-1.0306	-2.5677	-2.0792	-1.5967	-3.6758	-2.2653	-1.6577	-3.9230	61.3287	99.9306	
  1151	-1.5986	-1.0685	-2.6672	-2.1349	-1.6675	-3.8023	-2.3574	-1.7156	-4.0730	61.3150	99.9299	
  1152	-1.6688	-1.1258	-2.7947	-2.2407	-1.7205	-3.9611	-2.4827	-1.7730	-4.2557	61.1593	99.9299	
  1153	-1.7602	-1.1680	-2.9282	-2.3339	-1.7780	-4.1118	-2.5805	-1.8345	-4.4151	61.1948	99.9293	
  1154	-1.8285	-1.1960	-3.0245	-2.4056	-1.7979	-4.2034	-2.6042	-1.8601	-4.4643	61.2925	99.9269	
  1155	-1.8140	-1.2011	-3.0153	-2.3680	-1.8111	-4.1791	-2.6036	-1.8490	-4.4526	61.2001	99.9281	
  1156	-1.8294	-1.2106	-3.0401	-2.3998	-1.8064	-4.2061	-2.6100	-1.8637	-4.4737	61.2463	99.9281	
  1157	-1.8439	-1.2054	-3.0494	-2.4064	-1.8105	-4.2168	-2.6157	-1.8673	-4.4830	61.2925	99.9278	
  1158	-1.8448	-1.2201	-3.0650	-2.4131	-1.8146	-4.2276	-2.6266	-1.8635	-4.4900	61.2001	99.9278	
  1159	-1.8669	-1.2197	-3.0867	-2.4448	-1.8098	-4.2546	-2.6489	-1.8669	-4.5158	61.1983	99.9277	
  1160	-1.8891	-1.2192	-3.1084	-2.4323	-1.8143	-4.2465	-2.6317	-1.8560	-4.4877	61.2533	99.9276	
  1161	-1.8294	-1.2106	-3.0401	-2.3739	-1.8026	-4.1764	-2.5755	-1.8420	-4.4174	61.2568	99.9277	
  1162	-1.8073	-1.2111	-3.0184	-2.3790	-1.7814	-4.1603	-2.5697	-1.8384	-4.4081	61.2089	99.9285	
  1163	-1.8140	-1.2011	-3.0153	-2.3665	-1.7859	-4.1522	-2.5690	-1.8273	-4.3963	61.2107	99.9281	
  1164	-1.8140	-1.2011	-3.0153	-2.3723	-1.7773	-4.1496	-2.5690	-1.8273	-4.3963	61.2107	99.9287	
  1165	-1.8140	-1.2011	-3.0153	-2.3915	-1.7770	-4.1684	-2.5907	-1.8196	-4.4103	61.1149	99.9271	
  1166	-1.8063	-1.1964	-3.0028	-2.3531	-1.7777	-4.1307	-2.5460	-1.8128	-4.3588	61.2160	99.9274	
  1167	-1.7390	-1.1831	-2.9222	-2.2822	-1.7704	-4.0525	-2.4955	-1.8024	-4.2979	61.2160	99.9283	
  1168	-1.7313	-1.1783	-2.9097	-2.2881	-1.7619	-4.0499	-2.4898	-1.7988	-4.2886	61.2160	99.9274	
  1169	-1.7313	-1.1783	-2.9097	-2.2881	-1.7619	-4.0499	-2.5006	-1.7949	-4.2956	61.1682	99.9278	
  1170	-1.7313	-1.1783	-2.9097	-2.2881	-1.7619	-4.0499	-2.5064	-1.7986	-4.3049	61.1664	99.9285	
  1171	-1.7390	-1.1831	-2.9222	-2.3140	-1.7657	-4.0795	-2.5338	-1.7945	-4.3283	61.0706	99.9270	
  1172	-1.7313	-1.1783	-2.9097	-2.2748	-1.7537	-4.0284	-2.4776	-1.7805	-4.2581	61.1753	99.9280	
  1173	-1.6793	-1.1745	-2.8539	-2.2231	-1.7461	-3.9691	-2.4329	-1.7737	-4.2066	61.1770	99.9288	
  1174	-1.6716	-1.1698	-2.8415	-2.2289	-1.7376	-3.9664	-2.4437	-1.7698	-4.2136	61.1275	99.9290	
  1175	-1.6851	-1.1499	-2.8351	-2.2289	-1.7376	-3.9664	-2.4329	-1.7737	-4.2066	61.2673	99.9279	
  1176	-1.6716	-1.1698	-2.8415	-2.2297	-1.7502	-3.9798	-2.4393	-1.7884	-4.2277	61.2178	99.9282	
  1177	-1.6937	-1.1693	-2.8632	-2.2548	-1.7414	-3.9961	-2.4718	-1.7769	-4.2487	61.1239	99.9289	
  1178	-1.6716	-1.1698	-2.8415	-2.2039	-1.7464	-3.9502	-2.4055	-1.7777	-4.1832	61.2725	99.9288	
  1179	-1.6119	-1.1612	-2.7732	-2.1647	-1.7345	-3.8990	-2.3607	-1.7709	-4.1317	61.2725	99.9279	
  1180	-1.6119	-1.1612	-2.7732	-2.1772	-1.7300	-3.9071	-2.3824	-1.7632	-4.1457	61.1770	99.9279	
  1181	-1.6264	-1.1560	-2.7825	-2.1655	-1.7471	-3.9125	-2.3723	-1.7781	-4.1504	61.3167	99.9277	
  1182	-1.6341	-1.1607	-2.7949	-2.1847	-1.7468	-3.9313	-2.3997	-1.7741	-4.1738	61.2213	99.9276	
  1183	-1.6485	-1.1555	-2.8042	-2.2039	-1.7464	-3.9502	-2.4221	-1.7775	-4.1996	61.2178	99.9276	
  1184	-1.6341	-1.1607	-2.7949	-2.1655	-1.7471	-3.9125	-2.3658	-1.7635	-4.1293	61.2759	99.9267	
  1185	-1.5821	-1.1569	-2.7391	-2.1137	-1.7395	-3.8532	-2.3167	-1.7752	-4.0919	61.3678	99.9289	
  1186	-1.5821	-1.1569	-2.7391	-2.1137	-1.7395	-3.8532	-2.3384	-1.7675	-4.1059	61.2725	99.9297	
  1187	-1.5821	-1.1569	-2.7391	-2.1263	-1.7351	-3.8613	-2.3275	-1.7713	-4.0989	61.3201	99.9284	
  1188	-1.5966	-1.1517	-2.7483	-2.1396	-1.7433	-3.8828	-2.3499	-1.7747	-4.1246	61.3167	99.9277	
  1189	-1.5975	-1.1663	-2.7639	-2.1647	-1.7345	-3.8990	-2.3672	-1.7856	-4.1528	61.2673	99.9292	
  1190	-1.6042	-1.1564	-2.7608	-2.1521	-1.7389	-3.8909	-2.3333	-1.7750	-4.1083	61.3678	99.9265	
  1191	-1.5677	-1.1621	-2.7298	-2.1012	-1.7440	-3.8451	-2.3059	-1.7790	-4.0849	61.3678	99.9289	
  1192	-1.5821	-1.1569	-2.7391	-2.1204	-1.7436	-3.8639	-2.3282	-1.7824	-4.1106	61.3644	99.9288	
  1193	-1.5831	-1.1715	-2.7547	-2.1345	-1.7645	-3.8989	-2.3455	-1.7933	-4.1387	61.3150	99.9269	
  1194	-1.5908	-1.1763	-2.7671	-2.1721	-1.7512	-3.9232	-2.3678	-1.7967	-4.1645	61.2655	99.9269	
  1195	-1.6138	-1.1905	-2.8044	-2.1921	-1.7635	-3.9555	-2.4068	-1.7998	-4.2066	61.1699	99.9277	
  1196	-1.6427	-1.1801	-2.8229	-2.1862	-1.7720	-3.9582	-2.3851	-1.8075	-4.1926	61.3610	99.9272	
  1197	-1.6052	-1.1711	-2.7764	-2.1471	-1.7601	-3.9070	-2.3512	-1.7969	-4.1481	61.3627	99.9280	
  1198	-1.5984	-1.1810	-2.7795	-2.1537	-1.7642	-3.9178	-2.3577	-1.8116	-4.1692	61.3593	99.9286	
  1199	-1.6129	-1.1758	-2.7888	-2.1604	-1.7683	-3.9285	-2.3685	-1.8077	-4.1762	61.3593	99.9279	
  1200	-1.6206	-1.1806	-2.8012	-2.1855	-1.7594	-3.9448	-2.4017	-1.8073	-4.2090	61.2621	99.9292	
  1201	-1.6360	-1.1900	-2.8261	-2.2054	-1.7717	-3.9771	-2.4241	-1.8107	-4.2348	61.2142	99.9281	
  1202	-1.6581	-1.1896	-2.8478	-2.2246	-1.7714	-3.9959	-2.4349	-1.8069	-4.2418	61.2160	99.9274	
  1203	-1.6206	-1.1806	-2.8012	-2.1604	-1.7683	-3.9285	-2.3634	-1.8152	-4.1786	61.4070	99.9290	
  1204	-1.6061	-1.1857	-2.7920	-2.1729	-1.7638	-3.9367	-2.3692	-1.8188	-4.1880	61.3576	99.9284	
  1205	-1.6283	-1.1853	-2.8137	-2.1862	-1.7720	-3.9582	-2.4075	-1.8109	-4.2184	61.2621	99.9286	
  1206	-1.6360	-1.1900	-2.8261	-2.2054	-1.7717	-3.9771	-2.4241	-1.8107	-4.2348	61.2142	99.9281	
  1207	-1.6581	-1.1896	-2.8478	-2.2246	-1.7714	-3.9959	-2.4522	-1.8177	-4.2699	61.2107	99.9296	
  1208	-1.6803	-1.1891	-2.8695	-2.2380	-1.7796	-4.0175	-2.4522	-1.8177	-4.2699	61.2603	99.9278	
  1209	-1.6427	-1.1801	-2.8229	-2.1921	-1.7635	-3.9555	-2.3902	-1.8001	-4.1903	61.3150	99.9275	
  1210	-1.6196	-1.1659	-2.7856	-2.1663	-1.7597	-3.9259	-2.3895	-1.7890	-4.1785	61.2655	99.9280	
  1211	-1.6196	-1.1659	-2.7856	-2.1788	-1.7553	-3.9340	-2.3793	-1.8039	-4.1832	61.3576	99.9278	
  1212	-1.6119	-1.1612	-2.7732	-2.1847	-1.7468	-3.9313	-2.3902	-1.8001	-4.1903	61.3081	99.9280	
  1213	-1.6264	-1.1560	-2.7825	-2.1980	-1.7550	-3.9529	-2.4176	-1.7960	-4.2136	61.2586	99.9270	
  1214	-1.6418	-1.1655	-2.8073	-2.2172	-1.7547	-3.9717	-2.4508	-1.7956	-4.2464	61.1628	99.9285	
  1215	-1.6341	-1.1607	-2.7949	-2.1980	-1.7550	-3.9529	-2.3902	-1.8001	-4.1903	61.3576	99.9262	
  1216	-1.6119	-1.1612	-2.7732	-2.1788	-1.7553	-3.9340	-2.4119	-1.7924	-4.2043	61.2125	99.9282	
  1217	-1.6341	-1.1607	-2.7949	-2.1980	-1.7550	-3.9529	-2.4234	-1.7996	-4.2230	61.2586	99.9285	
  1218	-1.6485	-1.1555	-2.8042	-2.2172	-1.7547	-3.9717	-2.4451	-1.7920	-4.2370	61.2107	99.9274	
  1219	-1.6562	-1.1603	-2.8166	-2.2423	-1.7458	-3.9879	-2.4566	-1.7992	-4.2558	61.2089	99.9279	
  1220	-1.6639	-1.1650	-2.8290	-2.2364	-1.7543	-3.9906	-2.4674	-1.7954	-4.2628	61.1628	99.9285	
  1221	-1.6630	-1.1504	-2.8134	-2.2356	-1.7417	-3.9772	-2.4393	-1.7884	-4.2277	61.2603	99.9269	
