OxySoft export of:	C:\Users\TO3 TechSupport\Documents\Train2Adapt\T2A_66
Export date:	2022/09/16 10:25:39
Start of measurement:	2022-09-16 09:18:04.347

Datafile sample rate:	10.00	Hz
Datafile duration:	3380.400	s
Datafile total number of samples:	33804

Description:	

Optode-template:	PortaMon TSI Fit Factor
Optode distance (mm):	 35.00
Optode gradients (mm):	 5.00
DPF:	6.61

Device id:	334
# Receivers:	1
# Light sources:	6
# ADC:	2

Light source wavelengths:
device	index	wavelength
1	1	849	nm
1	2	759	nm
1	3	846	nm
1	4	757	nm
1	5	848	nm
1	6	757	nm

Export sample rate:	10.00	Hz
Selected time span:	0	3380.400
Selected time span (sample numbers):	0	33804


Legend:
Column	Trace (Measurement)
1	(Sample number)
2	Rx1-Tx1 O2Hb (T2A_66)
3	Rx1-Tx1 HHb (T2A_66)
4	Rx1-Tx1 tHb (T2A_66)
5	Rx1-Tx2 O2Hb (T2A_66)
6	Rx1-Tx2 HHb (T2A_66)
7	Rx1-Tx2 tHb (T2A_66)
8	Rx1-Tx3 O2Hb (T2A_66)
9	Rx1-Tx3 HHb (T2A_66)
10	Rx1-Tx3 tHb (T2A_66)
11	Rx1-Tx1,Tx2,Tx3 TSI% (T2A_66)
12	Rx1-Tx1,Tx2,Tx3 TSI Fit Factor (T2A_66)
13	(Event)


1	2	3	4	5	6	7	8	9	10	11	12	13
     0	102.7466	47.8603	150.6069	78.5385	34.9324	113.4708	58.5772	28.9964	87.5733	11.5652	98.7634	
     1	-0.1057	-0.1495	-0.2552	-0.1129	-0.1668	-0.2798	-0.1357	-0.1385	-0.2745	57.8258	99.9743	
     2	-0.0105	-0.0487	-0.0592	 0.0238	-0.1311	-0.1074	-0.0199	-0.0551	-0.0753	57.8944	99.9742	
     3	 0.0193	-0.0444	-0.0251	 0.0387	-0.0976	-0.0590	-0.0199	-0.0551	-0.0753	57.8601	99.9752	
     4	-0.0240	-0.0289	-0.0529	-0.0138	-0.1178	-0.1317	-0.0399	-0.1102	-0.1504	58.0544	99.9742	
     5	-0.0683	-0.0280	-0.0963	-0.0490	-0.0666	-0.1158	-0.0399	-0.1102	-0.1504	58.1192	99.9748	
     6	 0.1242	-0.0220	 0.1021	 0.1343	-0.0023	 0.1320	 0.1826	-0.0024	 0.1800	58.0077	99.9736	
     7	 0.1915	-0.0087	 0.1828	 0.2722	-0.0510	 0.2211	 0.2585	-0.0292	 0.2290	58.1510	99.9756	
     8	 0.1473	-0.0078	 0.1394	 0.1754	-0.0620	 0.1133	 0.1627	-0.0575	 0.1049	58.1046	99.9747	
     9	 0.1039	 0.0077	 0.1116	 0.1343	-0.0023	 0.1320	 0.1627	-0.0575	 0.1049	58.1961	99.9749	
    10	 0.1097	-0.0169	 0.0929	 0.1378	-0.0487	 0.0890	 0.0868	-0.0307	 0.0558	57.9268	99.9757	
    11	 0.0433	-0.0155	 0.0278	 0.0853	-0.0689	 0.0163	 0.0000	-0.0000	-0.0003	57.7793	99.9759	
    12	-0.0010	-0.0146	-0.0156	-0.0024	-0.0379	-0.0404	-0.0199	-0.0551	-0.0753	57.9464	99.9748	
    13	-0.0587	 0.0061	-0.0527	-0.0114	-0.0799	-0.0915	-0.0958	-0.0283	-0.1244	57.8546	99.9759	
    14	-0.0674	-0.0133	-0.0807	-0.0866	-0.0534	-0.1401	-0.1157	-0.0834	-0.1995	57.9319	99.9748	
    15	-0.1116	-0.0124	-0.1241	-0.1015	-0.0868	-0.1885	-0.1916	-0.0566	-0.2486	57.7821	99.9757	
    16	-0.0876	 0.0164	-0.0712	-0.0525	-0.0202	-0.0728	 0.0000	-0.0000	-0.0003	58.0274	99.9732	
    17	 0.1049	 0.0224	 0.1272	 0.1845	-0.0200	 0.1644	 0.1267	 0.0796	 0.2059	57.8052	99.9757	
    18	 0.1049	 0.0224	 0.1272	 0.1343	-0.0023	 0.1320	 0.1067	 0.0244	 0.1309	57.9071	99.9751	
    19	 0.0471	 0.0431	 0.0902	 0.0877	-0.0310	 0.0566	 0.0308	 0.0513	 0.0818	57.8155	99.9747	
    20	-0.0000	 0.0000	-0.0000	-0.0000	-0.0000	-0.0001	 0.0000	-0.0000	-0.0003	57.8711	99.9745	
    21	-0.0443	 0.0009	-0.0434	-0.0024	-0.0379	-0.0404	-0.0958	-0.0283	-0.1244	57.8239	99.9771	
    22	-0.1347	-0.0266	-0.1614	-0.1039	-0.1247	-0.2288	-0.2116	-0.1117	-0.3236	57.8902	99.9765	
    23	-0.2541	-0.0438	-0.2979	-0.1882	-0.1402	-0.3284	-0.2875	-0.0849	-0.3727	57.8128	99.9765	
    24	-0.2685	-0.0386	-0.3071	-0.2759	-0.1092	-0.3852	-0.3634	-0.0581	-0.4218	57.6283	99.9751	
    25	-0.2599	-0.0193	-0.2791	-0.2794	-0.0627	-0.3422	-0.3434	-0.0030	-0.3467	57.5513	99.9744	
    26	-0.1829	 0.0281	-0.1548	-0.1779	 0.0241	-0.1539	-0.0958	-0.0283	-0.1244	58.0741	99.9732	
    27	 0.0038	 0.0586	 0.0624	 0.0615	 0.0622	 0.1236	 0.0308	 0.0513	 0.0818	57.9071	99.9765	
    28	 0.0038	 0.0586	 0.0624	 0.0466	 0.0287	 0.0752	 0.0308	 0.0513	 0.0818	57.9071	99.9751	
    29	-0.0405	 0.0595	 0.0190	-0.0411	 0.0597	 0.0185	-0.0559	 0.0819	 0.0257	57.7274	99.9746	
    30	-0.0549	 0.0647	 0.0098	-0.0000	-0.0000	-0.0001	-0.0759	 0.0268	-0.0494	57.8601	99.9764	
    31	-0.0780	 0.0505	-0.0275	-0.0376	 0.0133	-0.0245	-0.1518	 0.0536	-0.0984	57.6511	99.9772	
    32	-0.1358	 0.0712	-0.0646	-0.1254	 0.0443	-0.0812	-0.2277	 0.0804	-0.1475	57.5589	99.9765	
    33	-0.1598	 0.0423	-0.1175	-0.1779	 0.0241	-0.1539	-0.2277	 0.0804	-0.1475	57.5378	99.9744	
    34	-0.2176	 0.0630	-0.1545	-0.1744	-0.0224	-0.1968	-0.2476	 0.0253	-0.2226	57.7626	99.9756	
    35	-0.2407	 0.0488	-0.1918	-0.2621	 0.0086	-0.2536	-0.2675	-0.0298	-0.2976	57.8705	99.9743	
    36	-0.2407	 0.0488	-0.1918	-0.2155	 0.0374	-0.1782	-0.3036	 0.1072	-0.1966	57.4514	99.9762	
    37	-0.0684	 0.0845	 0.0161	 0.0090	 0.0420	 0.0509	-0.0559	 0.0819	 0.0257	57.8155	99.9767	
    38	-0.0453	 0.0987	 0.0534	-0.0262	 0.0932	 0.0669	-0.0559	 0.0819	 0.0257	57.8099	99.9757	
    39	-0.1262	 0.1052	-0.0210	-0.0787	 0.0730	-0.0058	-0.1318	 0.1087	-0.0234	57.7237	99.9760	
    40	-0.1416	 0.0958	-0.0458	-0.1289	 0.0907	-0.0382	-0.2077	 0.1355	-0.0725	57.5129	99.9761	
    41	-0.1502	 0.0764	-0.0739	-0.1254	 0.0443	-0.0812	-0.2077	 0.1355	-0.0725	57.4879	99.9755	
    42	-0.2224	 0.1023	-0.1202	-0.2131	 0.0753	-0.1379	-0.2277	 0.0804	-0.1475	57.7431	99.9747	
    43	-0.2513	 0.1126	-0.1387	-0.2155	 0.0374	-0.1782	-0.3795	 0.1341	-0.2457	57.3743	99.9772	
    44	-0.2744	 0.0984	-0.1760	-0.2621	 0.0086	-0.2536	-0.3994	 0.0789	-0.3208	57.4820	99.9762	
    45	-0.3273	 0.0799	-0.2474	-0.3499	 0.0396	-0.3103	-0.4753	 0.1058	-0.3698	57.3067	99.9759	
    46	-0.3851	 0.1006	-0.2845	-0.4376	 0.0706	-0.3671	-0.4753	 0.1058	-0.3698	57.4301	99.9736	
    47	-0.2138	 0.1217	-0.0921	-0.1665	 0.1040	-0.0626	-0.2077	 0.1355	-0.0725	57.6662	99.9759	
    48	-0.1118	 0.1001	-0.0117	-0.1140	 0.1242	 0.0101	-0.1318	 0.1087	-0.0234	57.6931	99.9753	
    49	-0.1705	 0.1061	-0.0643	-0.1665	 0.1040	-0.0626	-0.2077	 0.1355	-0.0725	57.5742	99.9752	
    50	-0.2273	 0.1415	-0.0858	-0.2041	 0.1173	-0.0869	-0.2836	 0.1624	-0.1216	57.5090	99.9761	
    51	-0.2427	 0.1320	-0.1107	-0.2542	 0.1350	-0.1193	-0.3595	 0.1892	-0.1706	57.2976	99.9763	
    52	-0.2802	 0.1230	-0.1572	-0.2507	 0.0886	-0.1622	-0.3036	 0.1072	-0.1966	57.6511	99.9758	
    53	-0.3177	 0.1140	-0.2038	-0.3385	 0.1196	-0.2190	-0.3795	 0.1341	-0.2457	57.4725	99.9750	
    54	-0.3476	 0.1097	-0.2379	-0.3910	 0.0994	-0.2917	-0.4753	 0.1058	-0.3698	57.3934	99.9756	
    55	-0.3995	 0.1058	-0.2937	-0.4787	 0.1304	-0.3484	-0.4753	 0.1058	-0.3698	57.4609	99.9734	
    56	-0.4573	 0.1265	-0.3308	-0.4752	 0.0839	-0.3914	-0.5512	 0.1326	-0.4189	57.3684	99.9750	
    57	-0.3149	 0.1579	-0.1570	-0.2918	 0.1483	-0.1436	-0.2836	 0.1624	-0.1216	57.6662	99.9745	
    58	-0.2042	 0.1557	-0.0485	-0.1641	 0.1419	-0.0223	-0.2637	 0.2175	-0.0465	57.4017	99.9767	
    59	-0.2562	 0.1519	-0.1043	-0.2393	 0.1685	-0.0709	-0.2836	 0.1624	-0.1216	57.5704	99.9762	
    60	-0.2571	 0.1372	-0.1199	-0.2542	 0.1350	-0.1193	-0.3595	 0.1892	-0.1706	57.3284	99.9765	
    61	-0.3139	 0.1726	-0.1414	-0.2918	 0.1483	-0.1436	-0.3595	 0.1892	-0.1706	57.4783	99.9759	
    62	-0.3091	 0.1333	-0.1757	-0.3796	 0.1793	-0.2004	-0.3795	 0.1341	-0.2457	57.4975	99.9741	
    63	-0.3755	 0.1347	-0.2408	-0.3408	 0.0817	-0.2593	-0.4554	 0.1609	-0.2948	57.3802	99.9765	
    64	-0.4188	 0.1502	-0.2686	-0.4286	 0.1127	-0.3160	-0.5313	 0.1877	-0.3439	57.2569	99.9755	
    65	-0.4775	 0.1563	-0.3213	-0.5163	 0.1437	-0.3727	-0.5512	 0.1326	-0.4189	57.4550	99.9747	
    66	-0.5006	 0.1421	-0.3586	-0.5629	 0.1149	-0.4481	-0.6271	 0.1594	-0.4680	57.2449	99.9740	
    67	-0.4391	 0.1800	-0.2591	-0.3761	 0.1329	-0.2433	-0.4354	 0.2160	-0.2197	57.4573	99.9757	
    68	-0.3043	 0.2066	-0.0977	-0.2428	 0.2149	-0.0280	-0.2637	 0.2175	-0.0465	57.6431	99.9763	
    69	-0.2909	 0.1868	-0.1041	-0.2894	 0.1862	-0.1033	-0.2836	 0.1624	-0.1216	57.6874	99.9747	
    70	-0.3284	 0.1778	-0.1506	-0.2894	 0.1862	-0.1033	-0.4155	 0.2711	-0.1447	57.1924	99.9774	
    71	-0.3428	 0.1829	-0.1599	-0.2918	 0.1483	-0.1436	-0.4155	 0.2711	-0.1447	57.2232	99.9766	
    72	-0.3727	 0.1786	-0.1940	-0.3420	 0.1660	-0.1760	-0.4354	 0.2160	-0.2197	57.3592	99.9767	
    73	-0.4304	 0.1994	-0.2311	-0.4172	 0.1926	-0.2247	-0.5113	 0.2428	-0.2688	57.2668	99.9765	
    74	-0.4738	 0.2149	-0.2589	-0.5049	 0.2236	-0.2814	-0.5872	 0.2696	-0.3179	57.1435	99.9755	
    75	-0.4766	 0.1709	-0.3057	-0.5139	 0.1816	-0.3325	-0.6072	 0.2145	-0.3929	57.1643	99.9759	
    76	-0.5353	 0.1770	-0.3583	-0.5891	 0.2081	-0.3811	-0.6271	 0.1594	-0.4680	57.3625	99.9753	
    77	-0.4968	 0.2007	-0.2962	-0.4673	 0.2103	-0.2571	-0.5113	 0.2428	-0.2688	57.3651	99.9760	
    78	-0.3188	 0.2118	-0.1070	-0.2804	 0.2282	-0.0523	-0.3955	 0.3262	-0.0696	57.1429	99.9771	
    79	-0.3246	 0.2364	-0.0882	-0.2804	 0.2282	-0.0523	-0.3955	 0.3262	-0.0696	57.1984	99.9769	
    80	-0.3621	 0.2273	-0.1348	-0.3682	 0.2592	-0.1090	-0.4155	 0.2711	-0.1447	57.3363	99.9758	
    81	-0.3631	 0.2127	-0.1504	-0.3682	 0.2592	-0.1090	-0.4155	 0.2711	-0.1447	57.3095	99.9760	
    82	-0.4064	 0.2282	-0.1782	-0.3772	 0.2172	-0.1601	-0.4914	 0.2979	-0.1937	57.1864	99.9768	
    83	-0.4439	 0.2192	-0.2247	-0.4172	 0.1926	-0.2247	-0.5113	 0.2428	-0.2688	57.3245	99.9765	
    84	-0.4738	 0.2149	-0.2589	-0.5049	 0.2236	-0.2814	-0.5872	 0.2696	-0.3179	57.1435	99.9755	
    85	-0.5113	 0.2059	-0.3054	-0.5926	 0.2546	-0.3382	-0.6631	 0.2964	-0.3670	56.9643	99.9747	
    86	-0.5488	 0.1968	-0.3520	-0.5891	 0.2081	-0.3811	-0.6831	 0.2413	-0.4420	57.1025	99.9758	
    87	-0.5748	 0.2512	-0.3237	-0.5550	 0.2413	-0.3138	-0.5872	 0.2696	-0.3179	57.3592	99.9754	
    88	-0.3679	 0.2519	-0.1160	-0.3215	 0.2879	-0.0337	-0.3955	 0.3262	-0.0696	57.2906	99.9772	
    89	-0.3448	 0.2661	-0.0787	-0.3215	 0.2879	-0.0337	-0.3955	 0.3262	-0.0696	57.2847	99.9766	
    90	-0.3766	 0.2325	-0.1440	-0.3682	 0.2592	-0.1090	-0.4714	 0.3530	-0.1187	57.0506	99.9764	
    91	-0.4054	 0.2429	-0.1626	-0.4183	 0.2769	-0.1415	-0.4155	 0.2711	-0.1447	57.4285	99.9747	
    92	-0.4488	 0.2584	-0.1904	-0.4559	 0.2902	-0.1658	-0.4914	 0.2979	-0.1937	57.3055	99.9756	
    93	-0.4777	 0.2688	-0.2089	-0.4935	 0.3035	-0.1901	-0.5673	 0.3247	-0.2428	57.1516	99.9762	
    94	-0.5065	 0.2791	-0.2274	-0.5436	 0.3212	-0.2225	-0.6432	 0.3515	-0.2919	56.9972	99.9764	
    95	-0.5508	 0.2800	-0.2708	-0.5903	 0.2925	-0.2979	-0.6631	 0.2964	-0.3670	57.1643	99.9757	
    96	-0.5893	 0.2563	-0.3330	-0.5926	 0.2546	-0.3382	-0.7390	 0.3232	-0.4161	56.9581	99.9773	
    97	-0.6461	 0.2917	-0.3544	-0.6302	 0.2679	-0.3625	-0.6631	 0.2964	-0.3670	57.3245	99.9752	
    98	-0.4401	 0.2778	-0.1623	-0.4093	 0.3189	-0.0904	-0.4714	 0.3530	-0.1187	57.2292	99.9767	
    99	-0.4017	 0.3015	-0.1002	-0.4069	 0.3569	-0.0501	-0.4515	 0.4081	-0.0436	57.1182	99.9755	
   100	-0.4459	 0.3024	-0.1435	-0.4093	 0.3189	-0.0904	-0.4714	 0.3530	-0.1187	57.2847	99.9766	
   101	-0.4604	 0.3076	-0.1528	-0.4594	 0.3367	-0.1228	-0.5473	 0.3798	-0.1678	57.1000	99.9766	
   102	-0.5037	 0.3231	-0.1806	-0.4970	 0.3499	-0.1471	-0.5473	 0.3798	-0.1678	57.1924	99.9759	
   103	-0.5268	 0.3089	-0.2179	-0.5436	 0.3212	-0.2225	-0.6991	 0.4335	-0.2659	56.7665	99.9768	
   104	-0.5354	 0.2895	-0.2459	-0.5812	 0.3345	-0.2468	-0.6432	 0.3515	-0.2919	57.0590	99.9755	
   105	-0.5932	 0.3102	-0.2830	-0.6279	 0.3058	-0.3222	-0.7191	 0.3784	-0.3410	56.9663	99.9752	
   106	-0.6375	 0.3111	-0.3264	-0.6655	 0.3191	-0.3465	-0.7950	 0.4052	-0.3901	56.8158	99.9763	
   107	-0.6894	 0.3072	-0.3822	-0.7156	 0.3368	-0.3789	-0.8149	 0.3501	-0.4651	56.9849	99.9767	
   108	-0.5470	 0.3386	-0.2084	-0.4970	 0.3499	-0.1471	-0.5473	 0.3798	-0.1678	57.2847	99.9766	
   109	-0.4219	 0.3312	-0.0906	-0.4480	 0.4166	-0.0315	-0.4515	 0.4081	-0.0436	57.2044	99.9751	
   110	-0.4739	 0.3274	-0.1465	-0.4946	 0.3879	-0.1069	-0.5473	 0.3798	-0.1678	57.1576	99.9762	
   111	-0.5921	 0.2124	-0.3798	-0.6040	 0.1747	-0.4295	-0.6470	 0.1043	-0.5431	57.6150	99.9759	
   112	-0.6921	 0.0383	-0.6538	-0.8310	-0.0745	-0.9056	-1.0838	-0.1595	-1.2437	57.2447	99.9778	
   113	-0.8556	-0.0905	-0.9461	-1.0239	-0.2905	-1.3145	-1.3831	-0.3476	-1.7311	57.1264	99.9787	
   114	-0.9853	-0.2689	-1.2542	-1.1634	-0.4737	-1.6372	-1.5459	-0.5670	-2.1132	57.2138	99.9794	
   115	-1.1343	-0.5153	-1.6496	-1.3203	-0.7283	-2.0486	-1.7738	-0.7634	-2.5375	57.0043	99.9801	
   116	-1.2612	-0.6498	-1.9109	-1.4508	-0.8694	-2.3203	-1.9250	-0.9755	-2.9009	57.1793	99.9811	
   117	-1.3679	-0.7014	-2.0694	-1.5766	-0.9348	-2.5115	-2.0744	-0.9736	-3.0483	56.9297	99.9806	
   118	-1.0765	-0.5361	-1.6125	-1.0551	-0.8930	-1.9482	-1.4904	-1.0217	-2.5124	58.1221	99.9830	
   119	-0.7318	-0.6897	-1.4215	-0.5987	-0.8670	-1.4658	-0.6602	-0.9365	-1.5969	58.7131	99.9776	
   120	-0.4218	-0.6959	-1.1177	-0.2484	-0.7970	-1.0455	-0.1579	-0.7805	-0.9387	58.8169	99.9743	
   121	 0.0981	-0.8823	-0.7843	 0.2685	-1.1346	-0.8662	 0.1973	-1.1321	-0.9350	59.3026	99.9766	
   122	-1.2229	-2.3428	-3.5658	-1.2850	-2.9300	-4.2151	-1.9298	-2.7030	-4.6331	58.2993	99.9770	
   123	-2.1485	-2.7156	-4.8641	-2.1580	-3.1640	-5.3221	-2.8227	-2.8170	-5.6400	57.4328	99.9788	
   124	-2.4270	-2.3383	-4.7653	-2.6565	-2.8393	-5.4960	-3.5925	-2.5450	-6.1378	56.3036	99.9818	
   125	-2.9137	-1.6390	-4.5527	-3.3657	-2.1949	-5.5606	-4.6215	-1.7972	-6.4190	54.2803	99.9823	
   126	-3.2532	-0.9474	-4.2006	-3.9592	-1.4427	-5.4020	-5.2777	-1.2941	-6.5721	53.4367	99.9852	
   127	-3.5620	-1.0391	-4.6011	-4.4855	-1.7669	-6.2525	-5.5749	-1.6298	-7.2050	54.0083	99.9693	
   128	-3.4863	-0.7814	-4.2676	-3.7718	-1.1085	-4.8804	-4.6694	-0.6670	-5.3368	53.8294	99.9798	
   129	-2.3675	-0.1630	-2.5305	-2.5616	-0.3995	-2.9612	-3.1409	-0.3877	-3.5289	55.7983	99.9824	
   130	-1.7778	 0.1578	-1.6200	-1.9334	-0.0854	-2.0189	-2.3767	-0.3865	-2.7635	57.1007	99.9820	
   131	-1.7956	-0.3456	-2.1413	-1.9955	-1.1807	-3.1763	-2.9031	-1.6753	-4.5788	58.5063	99.9879	
   132	-2.0955	-0.7554	-2.8509	-2.4181	-1.5868	-4.0050	-3.3450	-1.9317	-5.2770	57.9037	99.9859	
   133	-2.1022	-0.8579	-2.9601	-2.2865	-1.7366	-4.0232	-3.1308	-2.0526	-5.1837	58.4771	99.9857	
   134	-1.7219	-0.9193	-2.6413	-1.9625	-1.7800	-3.7427	-2.7190	-2.0173	-4.7366	58.5171	99.9817	
   135	-1.3207	-0.7708	-2.0916	-1.6263	-1.5243	-3.1506	-2.2496	-1.7650	-4.0149	58.4826	99.9785	
   136	-1.0070	-0.7184	-1.7254	-1.3818	-1.5073	-2.8892	-2.0867	-1.7265	-3.8135	58.3435	99.9782	
   137	-0.9329	-0.7150	-1.6479	-1.3794	-1.4694	-2.8489	-2.0460	-1.7860	-3.8324	58.4844	99.9779	
   138	-0.9434	-0.7637	-1.7072	-1.3901	-1.5367	-2.9268	-2.0460	-1.7860	-3.8324	58.3995	99.9761	
   139	-0.6635	-0.6617	-1.3252	-1.0468	-1.3738	-2.4207	-1.6166	-1.6439	-3.2608	58.6708	99.9764	
   140	-0.9335	-1.0672	-2.0007	-1.4718	-2.0245	-3.4963	-2.2933	-2.3033	-4.5969	58.6714	99.9761	
   141	-1.2944	-1.1627	-2.4570	-1.6140	-1.9419	-3.5560	-2.2582	-2.0897	-4.3482	58.5024	99.9765	
   142	-1.0644	-1.0352	-2.0996	-1.5030	-1.7035	-3.2065	-2.1304	-1.8071	-3.9378	57.9086	99.9742	
   143	-0.8165	-0.6293	-1.4458	-1.1360	-1.1615	-2.2976	-1.6838	-1.4733	-3.1574	58.3684	99.9798	
   144	-0.9282	-0.6417	-1.5699	-1.3312	-1.4154	-2.7467	-2.0347	-1.5979	-3.6329	58.1382	99.9771	
   145	-0.8157	-0.5021	-1.3178	-1.1490	-1.2667	-2.4158	-1.7467	-1.5980	-3.3450	58.8401	99.9785	
   146	-0.7983	-0.5759	-1.3742	-1.1972	-1.3207	-2.5180	-1.7660	-1.6420	-3.4083	58.7433	99.9765	
   147	-0.7309	-0.5625	-1.2935	-1.1513	-1.3046	-2.4560	-1.8118	-1.5750	-3.3870	58.3943	99.9776	
   148	-0.7154	-0.6656	-1.3810	-1.2102	-1.4259	-2.6362	-1.8181	-1.7705	-3.5889	58.6795	99.9756	
   149	-1.1406	-0.9554	-2.0960	-1.5740	-1.9173	-3.4914	-2.3990	-2.2207	-4.6201	58.7755	99.9791	
   150	-2.0929	-1.5135	-3.6064	-2.5305	-2.3608	-4.8914	-3.2758	-2.5269	-5.8030	58.1027	99.9760	
   151	-2.6716	-1.2085	-3.8801	-2.8387	-2.0646	-4.9034	-3.5589	-2.1726	-5.7318	58.0656	99.9802	
   152	-2.6700	-0.8417	-3.5117	-2.9172	-1.5784	-4.4956	-3.6297	-1.6955	-5.3255	57.3709	99.9804	
   153	-2.5068	-0.4879	-2.9947	-2.7375	-1.1639	-3.9016	-3.4231	-1.2995	-4.7229	57.2001	99.9812	
   154	-2.3922	-0.5440	-2.9362	-2.7462	-1.3029	-4.0493	-3.6350	-1.5072	-5.1424	57.0297	99.9837	
   155	-2.5016	-0.8646	-3.3662	-2.9146	-1.8441	-4.7587	-3.8079	-2.1694	-5.9776	57.9970	99.9818	
   156	-2.5216	-1.0599	-3.5815	-2.8274	-2.1913	-5.0188	-3.7331	-2.5801	-6.3134	58.9232	99.9832	
   157	-2.3992	-1.2237	-3.6229	-2.7433	-2.3825	-5.1258	-3.5670	-2.7631	-6.3303	59.2461	99.9797	
   158	-2.2229	-1.3544	-3.5774	-2.6106	-2.6166	-5.2273	-3.4381	-3.0120	-6.4504	59.6685	99.9772	
   159	-2.2092	-1.5992	-3.8085	-2.5382	-2.7907	-5.3290	-3.2212	-3.0887	-6.3102	59.7837	99.9731	
   160	-1.9565	-1.2326	-3.1890	-2.1790	-2.1685	-4.3476	-2.7160	-2.3348	-5.0511	59.0981	99.9732	
   161	-2.0509	-1.0937	-3.1447	-2.3112	-1.8247	-4.1361	-2.8139	-1.9386	-4.7527	58.2450	99.9741	
   162	-2.4401	-0.7142	-3.1544	-2.8026	-1.1797	-3.9824	-3.5553	-1.1059	-4.6615	55.8405	99.9796	
   163	-2.5742	-0.3888	-2.9630	-2.7682	-0.7333	-3.5017	-3.1524	-0.8527	-4.0054	56.8648	99.9784	
   164	-1.8771	-0.6913	-2.5684	-2.1465	-1.4438	-3.5904	-2.5369	-1.7539	-4.2911	58.8707	99.9744	
   165	-1.8693	-0.7990	-2.6683	-1.9880	-1.6742	-3.6622	-2.4832	-1.9650	-4.4485	59.3211	99.9783	
   166	-1.8826	-1.0042	-2.8867	-2.0982	-1.9000	-3.9983	-2.5590	-2.1190	-4.6783	59.1858	99.9732	
   167	-1.9565	-1.2326	-3.1890	-2.2334	-2.1170	-4.3505	-2.9816	-2.3314	-5.3133	58.5483	99.9801	
   168	-2.8817	-0.9157	-3.7974	-3.1450	-1.3299	-4.4751	-3.9977	-1.0965	-5.0945	55.1685	99.9820	
   169	-2.8841	-0.3826	-3.2667	-2.9683	-0.5528	-3.5213	-3.3445	-0.3667	-3.7114	55.6822	99.9780	
   170	-2.4981	-0.4685	-2.9666	-2.2887	-0.6444	-2.9332	-2.3593	-0.5565	-2.9161	57.4091	99.9777	
   171	-1.0720	-1.1524	-2.2245	-0.8800	-1.5748	-2.4549	-1.0947	-1.5288	-2.6238	58.9961	99.9778	
   172	-0.9560	-2.6710	-3.6270	-1.0536	-3.2248	-4.2786	-1.6060	-3.1169	-4.7232	58.9967	99.9770	
   173	-1.9820	-3.6825	-5.6645	-2.0784	-4.4515	-6.5299	-3.0038	-4.3465	-7.3506	58.9883	99.9835	
   174	-2.7566	-3.8920	-6.6486	-3.0705	-4.7467	-7.8173	-4.2807	-4.5847	-8.8657	57.7452	99.9837	
   175	-3.3221	-3.2693	-6.5914	-3.9434	-4.0573	-8.0008	-5.2098	-3.7422	-8.9524	55.5971	99.9757	
   176	-3.6715	-2.2743	-5.9459	-4.1908	-2.9947	-7.1856	-5.4974	-2.9117	-8.4094	55.3197	99.9864	
   177	-3.4378	-2.0883	-5.5261	-4.1003	-3.0848	-7.1852	-5.5243	-3.6311	-9.1557	57.3187	99.9899	
   178	-3.0721	-2.0320	-5.1041	-3.5500	-3.1953	-6.7454	-4.6649	-3.6127	-8.2779	58.6686	99.9850	
   179	-1.7512	-1.4861	-3.2373	-2.2877	-2.5757	-4.8635	-3.1333	-2.9163	-6.0499	59.0198	99.9760	
   180	-0.9230	-1.0185	-1.9414	-1.5552	-2.0273	-3.5826	-2.3312	-2.3803	-4.7118	58.8949	99.9733	
   181	-0.4796	-0.6752	-1.1548	-1.2044	-1.6410	-2.8455	-2.0167	-2.0337	-4.0507	58.6223	99.9737	
   182	-0.1853	-0.4658	-0.6511	-0.8588	-1.4403	-2.2991	-1.6337	-1.8356	-3.4697	58.8499	99.9737	
   183	 0.0168	-0.4259	-0.4091	-0.6828	-1.3926	-2.0756	-1.4193	-1.8606	-3.2802	59.1346	99.9735	
   184	 0.0399	-0.4116	-0.3718	-0.5994	-1.3898	-1.9893	-1.3106	-1.8029	-3.1138	59.1903	99.9729	
   185	 0.0410	-0.6220	-0.5810	-0.5960	-1.6429	-2.2390	-1.3063	-2.0983	-3.4049	59.5758	99.9730	
   186	-0.4206	-1.0187	-1.4393	-1.1940	-1.9870	-3.1811	-2.0926	-2.4646	-4.5575	58.8530	99.9766	
   187	-2.1700	-1.3359	-3.5059	-2.9512	-2.1217	-5.0730	-4.2136	-2.2860	-6.4999	55.9267	99.9835	
   188	-3.5371	-0.9956	-4.5326	-3.9255	-1.5192	-5.4448	-4.8495	-1.3550	-6.2047	54.9140	99.9810	
   189	-3.5620	-1.0391	-4.6011	-3.6999	-1.5989	-5.2989	-4.6326	-1.4316	-6.0645	55.5371	99.9855	
   190	-3.0015	-1.3976	-4.3991	-2.9268	-1.9366	-4.8635	-3.3750	-1.6951	-5.0704	57.2669	99.9757	
   191	-1.5421	-1.7935	-3.3356	-1.5111	-2.2431	-3.7542	-1.8647	-1.9914	-3.8563	58.1129	99.9729	
   192	-1.0968	-2.4481	-3.5448	-1.1722	-2.9698	-4.1421	-1.6150	-2.8990	-4.5143	59.0530	99.9759	
   193	-1.7562	-3.2761	-5.0323	-1.8713	-4.0080	-5.8794	-2.6736	-3.8303	-6.5041	58.7421	99.9787	
   194	-2.1969	-3.3505	-5.5474	-2.3328	-4.0128	-6.3457	-3.2116	-3.7532	-6.9651	57.9437	99.9798	
   195	-2.2985	-2.8642	-5.1627	-2.7341	-3.5675	-6.3017	-3.9246	-3.2752	-7.2002	56.2981	99.9802	
   196	-2.6697	-2.2063	-4.8760	-3.4644	-2.8510	-6.3155	-4.7531	-2.5079	-7.2613	54.3486	99.9746	
   197	-3.2245	-1.7599	-4.9844	-4.0256	-2.5042	-6.5299	-5.5294	-2.7083	-8.2379	55.0229	99.9891	
   198	-3.5292	-2.1305	-5.6597	-4.3649	-3.3207	-7.6857	-5.7581	-3.9271	-9.6855	57.7222	99.9868	
   199	-2.9384	-2.0200	-4.9584	-3.4540	-3.1969	-6.6510	-4.3005	-3.4476	-7.7484	58.7832	99.9726	
   200	-1.0750	-1.0839	-2.1589	-1.5470	-1.9979	-3.5450	-1.9383	-2.2931	-4.2317	59.5416	99.9654	
   201	 0.0832	-0.4272	-0.3440	-0.6076	-1.4192	-2.0269	-1.1998	-1.8929	-3.0930	59.5664	99.9689	
   202	 0.2938	-0.2553	 0.0385	-0.4963	-1.2777	-1.7741	-1.2263	-1.7818	-3.0084	59.2491	99.9708	
   203	 0.3899	-0.1398	 0.2501	-0.4660	-1.1011	-1.5673	-1.0224	-1.7069	-2.7296	59.5525	99.9669	
   204	 0.4948	-0.1175	 0.3773	-0.2925	-1.0914	-1.3840	-1.0031	-1.6629	-2.6663	59.3585	99.9724	
   205	 0.4536	-0.2976	 0.1560	-0.2851	-1.2813	-1.5665	-0.9116	-1.7970	-2.7088	59.5988	99.9698	
   206	 0.2239	-0.6501	-0.4262	-0.5560	-1.6183	-2.1744	-1.4201	-2.1485	-3.5689	59.1488	99.9763	
   207	-1.6304	-0.9896	-2.6201	-2.6662	-1.7639	-4.4302	-4.0333	-1.9598	-5.9934	55.2602	99.9816	
   208	-3.4692	-0.5176	-3.9868	-3.9680	-1.0715	-5.0396	-4.9768	-0.9879	-5.9650	54.5130	99.9821	
   209	-3.6886	-0.5964	-4.2849	-4.0288	-1.1210	-5.1499	-4.8819	-1.0666	-5.9488	55.1244	99.9824	
   210	-3.4947	-1.0258	-4.5205	-3.5413	-1.6226	-5.1640	-4.1150	-1.4789	-5.5941	56.6741	99.9780	
   211	-2.2227	-1.5794	-3.8021	-2.2377	-2.0832	-4.3210	-2.6567	-1.9037	-4.5607	57.7381	99.9748	
   212	-1.8053	-2.3214	-4.1267	-1.8558	-2.9414	-4.7973	-2.3673	-2.9779	-5.3455	59.0770	99.9791	
   213	-2.7396	-3.5157	-6.2553	-2.9292	-4.3317	-7.2610	-3.7156	-4.3041	-8.0199	58.9159	99.9789	
   214	-3.3217	-3.7193	-7.0410	-3.4527	-4.5084	-7.9612	-4.4638	-4.3166	-8.7807	57.8609	99.9830	
   215	-3.4079	-3.1111	-6.5190	-3.8990	-3.8599	-7.7589	-5.0650	-3.5448	-8.6101	55.8404	99.9768	
   216	-3.3861	-1.8594	-5.2455	-4.2093	-2.4716	-6.6809	-5.5338	-2.2320	-7.7661	53.7540	99.9790	
   217	-3.9436	-1.5695	-5.5131	-4.8529	-2.4185	-7.2715	-6.1939	-2.8916	-9.0858	55.6579	99.9859	
   218	-3.5892	-1.8016	-5.3908	-4.3177	-2.9757	-7.2935	-5.4259	-3.3777	-8.8039	57.6779	99.9795	
   219	-2.0509	-1.0937	-3.1447	-2.5883	-2.0562	-4.6446	-3.1958	-2.2105	-5.4065	58.2077	99.9660	
   220	-0.5234	-0.2096	-0.7330	-1.1336	-1.1236	-2.2573	-1.5730	-1.5633	-3.1366	59.2650	99.9670	
   221	 0.1654	 0.1581	 0.3235	-0.7115	-0.8271	-1.5387	-1.4308	-1.4101	-2.8412	58.8620	99.9707	
   222	 0.2683	 0.2637	 0.5319	-0.7420	-0.7001	-1.4422	-1.5416	-1.3201	-2.8620	58.4475	99.9709	
   223	 0.2105	 0.2844	 0.4949	-0.8172	-0.6735	-1.4908	-1.6067	-1.2971	-2.9041	58.3811	99.9703	
   224	 0.1672	 0.2999	 0.4671	-0.8149	-0.6356	-1.4506	-1.5874	-1.2530	-2.8408	58.3979	99.9711	
   225	 0.1316	 0.2077	 0.3393	-0.7420	-0.7001	-1.4422	-1.4573	-1.2990	-2.7566	58.6546	99.9721	
   226	 0.0193	-0.0444	-0.0251	-1.0175	-0.9063	-1.9239	-1.9226	-1.4850	-3.4079	57.8476	99.9740	
   227	-1.7019	-0.7241	-2.4260	-2.9172	-1.5784	-4.4956	-4.5317	-1.8684	-6.4004	54.5618	99.9846	
   228	-4.0784	-0.5690	-4.6474	-4.8950	-1.1444	-6.0394	-6.1830	-1.0646	-7.2479	52.9281	99.9827	
   229	-4.6860	-0.2536	-4.9396	-5.2568	-0.7840	-6.0409	-6.2727	-0.7165	-6.9895	53.4530	99.9819	
   230	-4.8965	-0.5380	-5.4345	-5.1997	-1.1013	-6.3011	-6.0530	-0.9297	-6.9831	54.2814	99.9806	
   231	-3.9559	-0.8454	-4.8012	-4.1096	-1.3895	-5.4992	-4.8496	-1.1741	-6.0240	55.4019	99.9798	
   232	-3.1036	-1.3760	-4.4795	-3.2860	-1.8420	-5.1281	-3.9117	-1.5959	-5.5079	56.0979	99.9763	
   233	-3.2288	-2.2832	-5.5120	-3.4312	-3.0371	-6.4683	-4.4156	-3.0622	-7.4781	57.3509	99.9860	
   234	-4.2953	-3.1227	-7.4180	-4.6700	-3.8974	-8.5675	-5.6959	-3.8135	-9.5097	56.6268	99.9814	
   235	-4.6373	-2.8126	-7.4499	-5.1164	-3.4556	-8.5721	-6.2695	-3.2266	-9.4964	54.9416	99.9818	
   236	-4.4814	-1.7739	-6.2554	-5.3462	-2.4186	-7.7649	-6.7328	-2.0062	-8.7393	52.4303	99.9744	
   237	-4.7913	-0.8531	-5.6444	-5.7915	-1.5509	-7.3425	-7.4343	-1.5210	-8.9556	51.9018	99.9870	
   238	-5.0790	-0.9599	-6.0388	-6.0605	-1.9596	-8.0202	-7.5698	-2.4790	-10.0491	54.5679	99.9878	
   239	-4.2387	-0.9913	-5.2300	-5.0686	-2.0775	-7.1463	-6.1380	-2.3350	-8.4733	55.9388	99.9745	
   240	-2.5264	-0.1060	-2.6324	-3.2890	-0.9691	-4.2582	-4.0062	-1.1444	-5.1508	56.3681	99.9669	
   241	-1.2740	 0.6368	-0.6371	-2.2085	-0.1820	-2.3906	-2.8334	-0.7055	-3.5391	57.2214	99.9684	
   242	-0.7873	 0.9646	 0.1773	-1.8111	 0.0264	-1.7849	-2.5228	-0.6061	-3.1292	57.5248	99.9689	
   243	-0.7806	 1.0672	 0.2865	-1.9251	 0.1506	-1.7746	-2.6388	-0.5086	-3.1477	57.2144	99.9667	
   244	-0.7500	 1.1986	 0.4486	-1.9042	 0.3822	-1.5221	-2.6736	-0.1686	-2.8425	56.4283	99.9678	
   245	-0.6885	 1.3490	 0.6605	-1.8199	 0.6042	-1.2157	-2.5833	 0.1329	-2.4507	56.0112	99.9678	
   246	-0.5345	 1.3313	 0.7968	-1.6204	 0.6177	-1.0028	-2.3791	 0.1229	-2.2565	56.1935	99.9697	
   247	-0.6007	 1.1076	 0.5069	-1.7448	 0.3710	-1.3738	-2.6736	-0.1686	-2.8425	56.0015	99.9735	
   248	-2.1688	 0.3955	-1.7733	-3.6033	-0.3608	-3.9642	-5.2446	-0.6559	-5.9009	52.6934	99.9825	
   249	-4.9361	 0.5633	-4.3728	-6.0320	 0.1356	-5.8964	-7.5081	 0.1890	-7.3194	50.2479	99.9846	
   250	-6.0578	 1.0406	-5.0173	-6.8794	 0.7192	-6.1603	-8.2328	 0.8406	-7.3925	49.7394	99.9871	
   251	-6.6929	 0.9310	-5.7620	-7.2854	 0.5785	-6.7070	-8.4174	 0.8097	-7.6080	50.2840	99.9846	
   252	-6.1645	 0.8764	-5.2881	-6.6664	 0.6439	-6.0225	-7.4316	 0.8118	-6.6201	51.5383	99.9799	
   253	-5.2749	 0.5798	-4.6951	-5.7466	 0.3965	-5.3502	-6.4332	 0.5664	-5.8671	52.3491	99.9789	
   254	-5.3278	-0.4658	-5.7936	-5.9636	-1.0251	-6.9888	-7.1123	-0.9567	-8.0693	52.8460	99.9836	
   255	-6.4713	-1.3527	-7.8240	-6.9521	-1.8770	-8.8293	-8.2493	-1.6286	-9.8782	52.1841	99.9875	
   256	-6.6004	-1.1789	-7.7793	-7.2933	-1.6984	-8.9917	-8.6830	-1.4754	-10.1587	51.3296	99.9864	
   257	-6.5560	-0.3777	-6.9336	-7.5757	-0.8882	-8.4640	-9.1773	-0.4023	-9.5799	48.7924	99.9792	
   258	-6.6524	 0.7590	-5.8934	-7.9037	 0.3191	-7.5847	-9.6936	 0.5826	-9.1114	47.3472	99.9860	
   259	-6.8055	 0.9039	-5.9017	-8.0057	 0.1226	-7.8832	-9.6974	-0.3033	-10.0010	50.3441	99.9888	
   260	-6.0199	 0.5996	-5.4203	-7.0677	-0.3444	-7.4122	-8.5136	-0.5068	-9.0207	51.7416	99.9817	
   261	-4.2747	 1.4207	-2.8541	-5.3342	 0.8449	-4.4894	-6.2094	 0.6964	-5.5133	52.5152	99.9703	
   262	-2.8771	 2.2389	-0.6382	-4.1342	 1.8029	-2.3313	-4.8722	 1.4728	-3.3997	52.7719	99.9668	
   263	-2.2578	 2.7890	 0.5312	-3.5611	 2.3625	-1.1987	-4.3309	 1.9088	-2.4224	52.9016	99.9687	
   264	-1.9010	 3.0509	 1.1499	-3.2808	 2.6445	-0.6364	-4.1123	 2.2271	-1.8855	52.4805	99.9684	
   265	-1.8894	 3.0017	 1.1124	-3.2878	 2.7374	-0.5506	-4.1653	 2.4492	-1.7164	51.6635	99.9692	
   266	-2.1221	 2.8303	 0.7082	-3.3219	 2.7042	-0.6178	-4.1613	 2.5156	-1.6460	51.5545	99.9729	
   267	-2.2318	 2.7347	 0.5029	-3.2878	 2.7374	-0.5506	-4.0893	 2.6992	-1.3903	51.2433	99.9745	
   268	-2.2810	 2.8873	 0.6063	-3.3104	 2.9908	-0.3198	-4.0765	 2.9095	-1.1674	51.1134	99.9755	
   269	-2.0292	 3.2393	 1.2101	-2.8968	 3.5615	 0.6646	-3.3511	 3.6421	 0.2906	51.1319	99.9715	
   270	-0.9553	 3.5064	 2.5511	-2.0462	 3.7453	 1.6990	-2.6591	 3.6405	 0.9811	51.4048	99.9717	
   271	-1.1276	 3.4707	 2.3432	-2.2096	 3.6932	 1.4835	-2.8821	 3.7984	 0.9160	50.7404	99.9710	
   272	-1.3636	 3.7053	 2.3417	-2.3564	 3.9065	 1.5500	-2.8070	 3.9414	 1.1341	51.3699	99.9677	
   273	-1.5910	 3.9593	 2.3683	-2.5646	 4.2642	 1.6995	-2.8791	 4.3964	 1.5169	50.9359	99.9640	
   274	-1.5998	 4.1649	 2.5651	-2.4541	 4.3931	 1.9389	-2.7983	 4.5430	 1.7444	51.1453	99.9665	
   275	-1.6588	 4.3960	 2.7372	-2.6475	 4.5777	 1.9301	-3.2755	 4.8924	 1.6166	49.7837	99.9678	
   276	-1.7361	 4.6861	 2.9500	-2.7532	 4.7313	 1.9780	-3.6713	 5.1227	 1.4510	49.0086	99.9718	
   277	-1.8575	 4.8646	 3.0071	-3.0402	 4.9554	 1.9151	-3.9749	 5.2299	 1.2547	48.5965	99.9717	
   278	-2.2548	 4.6622	 2.4074	-3.6170	 4.7459	 1.1287	-4.5968	 4.7433	 0.1462	48.6692	99.9734	
   279	-3.0607	 3.9691	 0.9084	-4.3633	 4.0796	-0.2838	-5.3556	 4.1920	-1.1638	48.3666	99.9739	
   280	-3.2550	 3.8214	 0.5664	-4.2756	 4.0486	-0.2271	-5.1727	 4.2857	-0.8874	48.6133	99.9770	
   281	-3.3340	 3.9697	 0.6357	-4.4224	 4.2619	-0.1606	-5.3802	 4.5172	-0.8633	47.9812	99.9777	
   282	-3.6037	 4.1414	 0.5377	-4.7169	 4.4693	-0.2477	-5.5928	 4.7562	-0.8369	47.6886	99.9752	
   283	-3.7789	 4.1742	 0.3953	-4.7827	 4.4409	-0.3419	-5.6578	 4.7791	-0.8790	47.8435	99.9760	
   284	-3.8492	 4.2294	 0.3802	-4.7169	 4.4693	-0.2477	-5.5390	 4.8219	-0.7174	48.2325	99.9769	
   285	-3.6452	 4.2987	 0.6535	-4.5409	 4.5169	-0.0241	-5.2683	 4.8110	-0.4576	48.6557	99.9744	
   286	-3.6539	 4.2793	 0.6254	-4.6193	 4.4929	-0.1265	-5.3980	 4.7721	-0.6262	48.4352	99.9745	
   287	-3.7405	 4.3104	 0.5699	-4.7039	 4.5745	-0.1295	-5.5394	 4.9068	-0.6329	47.9902	99.9759	
   288	-3.7896	 4.3505	 0.5609	-4.8167	 4.6143	-0.2024	-5.6040	 4.8449	-0.7594	48.1498	99.9748	
   289	-3.9052	 4.3919	 0.4868	-4.8919	 4.6409	-0.2511	-5.7454	 4.9796	-0.7661	47.7722	99.9756	
   290	-3.9496	 4.5053	 0.5558	-4.9635	 4.8277	-0.1359	-5.7683	 5.2420	-0.5266	47.3700	99.9734	
   291	-3.7581	 4.6091	 0.8510	-4.7652	 4.9255	 0.1602	-5.6661	 5.4658	-0.2006	46.9298	99.9737	
   292	-3.7140	 4.7207	 1.0067	-4.7232	 5.0850	 0.3617	-5.6229	 5.6314	 0.0082	46.7610	99.9743	
   293	-3.7362	 4.8336	 1.0974	-4.6977	 5.1858	 0.4880	-5.5796	 5.7969	 0.2170	46.7090	99.9734	
   294	-3.7228	 4.9263	 1.2035	-4.7282	 5.3128	 0.5846	-5.6825	 6.0197	 0.3369	46.0891	99.9729	
   295	-3.6584	 5.0082	 1.3497	-4.6333	 5.3955	 0.7621	-5.6335	 6.1889	 0.5551	45.8405	99.9730	
   296	-3.5738	 5.0603	 1.4865	-4.5984	 5.4413	 0.8428	-5.6549	 6.2925	 0.6373	45.4947	99.9718	
   297	-3.6334	 5.0517	 1.4182	-4.5832	 5.3778	 0.7946	-5.7199	 6.3155	 0.5952	45.3779	99.9726	
   298	-3.5893	 5.1633	 1.5740	-4.5094	 5.5326	 1.0231	-5.5507	 6.5495	 0.9985	45.3480	99.9689	
   299	-3.4797	 5.2589	 1.7793	-4.4020	 5.6109	 1.2088	-5.5119	 6.7336	 1.2214	44.9916	99.9672	
   300	-3.5328	 5.4654	 1.9326	-4.4622	 5.8776	 1.4152	-5.5592	 6.9594	 1.3999	44.8146	99.9696	
   301	-3.5492	 5.5538	 2.0045	-4.5210	 5.9629	 1.4418	-5.5748	 7.0666	 1.4915	44.7145	99.9661	
   302	-3.5859	 5.6719	 2.0860	-4.6035	 6.1793	 1.5757	-5.7079	 7.4301	 1.7219	43.8454	99.9643	
   303	-3.6419	 5.8344	 2.1925	-4.6273	 6.3105	 1.6830	-5.9063	 7.7205	 1.8140	43.1004	99.9647	
   304	-3.6603	 5.8935	 2.2332	-4.6696	 6.4545	 1.7849	-5.8511	 7.8084	 1.9570	43.1662	99.9652	
   305	-3.5343	 6.0132	 2.4790	-4.5449	 6.6042	 2.0592	-5.8578	 8.1555	 2.2974	42.3593	99.9634	
   306	-3.6046	 6.0684	 2.4638	-4.6326	 6.6352	 2.0025	-6.0096	 8.2091	 2.1992	42.0969	99.9636	
   307	-3.7181	 6.0267	 2.3086	-4.8246	 6.6385	 1.8138	-6.1046	 8.0110	 1.9061	42.4410	99.9667	
   308	-3.8172	 5.9798	 2.1625	-4.9579	 6.5564	 1.5984	-6.2306	 7.9425	 1.7116	42.3899	99.9640	
   309	-4.0194	 6.0523	 2.0329	-5.1920	 6.7037	 1.5116	-6.3716	 7.9923	 1.6204	42.4243	99.9654	
   310	-4.1495	 6.2114	 2.0619	-5.2884	 6.8023	 1.5139	-6.5492	 8.1681	 1.6186	42.1081	99.9650	
   311	-4.2401	 6.2963	 2.0563	-5.3471	 6.8877	 1.5405	-6.6818	 8.4466	 1.7645	41.4772	99.9613	
   312	-4.1661	 6.4123	 2.2462	-5.2784	 7.0636	 1.7851	-6.5976	 8.6485	 2.0506	41.2967	99.9615	
   313	-4.2113	 6.3985	 2.1872	-5.3451	 7.0226	 1.6774	-6.7185	 8.5726	 1.8538	41.2302	99.9633	
   314	-4.3143	 6.4054	 2.0912	-5.3741	 6.9682	 1.5941	-6.6818	 8.4466	 1.7645	41.7926	99.9640	
   315	-4.3557	 6.4503	 2.0946	-5.5080	 7.0801	 1.5720	-6.8595	 8.6224	 1.7626	41.1262	99.9625	
   316	-4.4241	 6.5348	 2.1107	-5.5937	 7.2460	 1.6522	-6.9972	 8.9084	 1.9109	40.4307	99.9618	
   317	-4.5234	 6.7129	 2.1894	-5.6880	 7.4795	 1.7914	-7.1110	 9.3159	 2.2046	39.7453	99.9574	
   318	-4.4977	 6.9960	 2.4983	-5.5828	 7.9332	 2.3503	-6.9268	 9.8893	 2.9622	39.3835	99.9577	
   319	-4.1641	 7.3562	 3.1921	-5.1790	 8.4492	 3.2701	-6.8223	10.9769	 4.1543	37.3502	99.9514	
   320	-3.9622	 7.6212	 3.6589	-5.0299	 8.7840	 3.7540	-6.6596	11.3771	 4.7172	36.9778	99.9488	
   321	-3.6753	 7.4883	 3.8130	-4.7338	 8.6019	 3.8680	-6.3488	11.1148	 4.7657	37.5393	99.9503	
   322	-3.5579	 7.4761	 3.9183	-4.6837	 8.5842	 3.9004	-6.3488	11.1148	 4.7657	37.3080	99.9490	
   323	-3.4840	 7.7045	 4.2206	-4.6455	 8.8872	 4.2415	-6.1392	11.1933	 5.0538	37.8748	99.9544	
   324	-3.5156	 7.5584	 4.0429	-4.4957	 8.5178	 4.0220	-5.7684	10.4576	 4.6890	40.1061	99.9595	
   325	-3.6707	 7.6740	 4.0034	-4.6163	 8.6379	 4.0215	-5.9006	10.6513	 4.7504	39.8453	99.9582	
   326	-3.8873	 7.7517	 3.8644	-4.9219	 8.6684	 3.7464	-6.3192	10.5053	 4.1858	39.6608	99.9653	
   327	-4.1328	 7.8398	 3.7070	-5.2149	 8.6944	 3.4794	-6.6041	10.4647	 3.8603	39.6418	99.9644	
   328	-4.1946	 8.0269	 3.8323	-5.2352	 8.7791	 3.5438	-6.7312	10.6509	 3.9194	39.3520	99.9622	
   329	-4.3794	 8.0257	 3.6463	-5.4781	 8.7874	 3.3092	-7.0052	10.6064	 3.6009	39.1124	99.9641	
   330	-4.3093	 8.1955	 3.8862	-5.3761	 8.9839	 3.6076	-6.8071	10.6777	 3.8703	39.5886	99.9672	
   331	-4.4761	 7.5581	 3.0819	-5.7351	 8.0580	 2.3228	-7.1509	 9.2057	 2.0545	41.2017	99.9721	
   332	-5.1583	 7.2929	 2.1346	-6.3435	 8.0599	 1.7163	-7.6895	 9.2717	 1.5818	40.5369	99.9761	
   333	-5.2920	 7.2809	 1.9889	-6.4525	 7.9563	 1.5037	-7.8956	 9.3444	 1.4486	40.0959	99.9726	
   334	-5.2141	 7.3429	 2.1288	-6.2596	 8.1723	 1.9126	-7.4398	 9.5564	 2.1163	40.7074	99.9711	
   335	-4.9486	 7.4501	 2.5015	-6.0591	 8.1015	 2.0423	-7.4038	 9.4193	 2.0153	40.7910	99.9723	
   336	-5.2963	 7.6723	 2.3760	-6.4389	 8.3777	 1.9387	-7.9203	 9.8505	 1.9298	39.5870	99.9724	
   337	-5.5292	 7.7258	 2.1966	-6.8130	 8.4389	 1.6257	-8.3254	 9.7449	 1.4193	39.3290	99.9752	
   338	-5.8226	 7.5312	 1.7086	-7.0647	 8.1016	 1.0368	-8.6778	 9.5022	 0.8240	39.2010	99.9731	
   339	-6.2133	 7.4314	 1.2181	-7.4553	 8.1040	 0.6485	-8.9304	 9.3541	 0.4234	39.4568	99.9759	
   340	-6.5328	 7.4035	 0.8707	-7.7080	 8.0576	 0.3495	-9.2975	 9.6024	 0.3047	38.5428	99.9717	
   341	-6.4712	 7.4414	 0.9702	-7.7080	 8.0576	 0.3495	-9.3208	 9.4920	 0.1709	38.6703	99.9735	
   342	-6.6627	 7.4501	 0.7874	-7.9336	 8.1373	 0.2036	-9.4509	 9.5380	 0.0868	38.6164	99.9725	
   343	-6.7495	 7.5937	 0.8442	-7.9817	 8.2900	 0.3081	-9.5577	 9.6944	 0.1364	38.4056	99.9755	
   344	-6.7746	 7.6627	 0.8881	-8.0463	 8.3838	 0.3374	-9.5995	 9.8278	 0.2280	38.1707	99.9732	
   345	-6.6515	 7.7385	 1.0870	-7.8042	 8.3629	 0.5585	-9.4929	10.0331	 0.5399	37.8892	99.9704	
   346	-6.5899	 7.7764	 1.1865	-7.8582	 8.5240	 0.6657	-9.5398	10.1740	 0.6339	37.4119	99.9713	
   347	-6.6439	 7.8557	 1.2118	-7.8206	 8.5107	 0.6900	-9.5216	10.2919	 0.7700	37.4379	99.9669	
   348	-6.6026	 7.9234	 1.3208	-7.8640	 8.7392	 0.8751	-9.6203	10.5811	 0.9604	36.6017	99.9691	
   349	-6.6239	 8.0510	 1.4271	-7.8804	 8.8870	 1.0066	-9.7242	10.8777	 1.1532	35.9559	99.9671	
   350	-6.6230	 8.1781	 1.5551	-7.8901	 9.0390	 1.1488	-9.8274	11.1854	 1.3577	35.2486	99.9646	
   351	-6.5847	 8.3143	 1.7296	-7.8516	 9.2449	 1.3933	-9.6755	11.4086	 1.7328	35.3208	99.9622	
   352	-6.3923	 8.4327	 2.0404	-7.7061	 9.4196	 1.7134	-9.5178	11.6354	 2.1173	35.0774	99.9600	
   353	-6.3577	 8.5103	 2.1526	-7.6512	 9.4777	 1.8264	-9.5742	11.8023	 2.2278	34.6458	99.9593	
   354	-6.3588	 8.6081	 2.2494	-7.6841	 9.5668	 1.8826	-9.7064	11.9959	 2.2892	34.0632	99.9570	
   355	-6.3713	 8.6426	 2.2713	-7.7546	 9.6692	 1.9145	-9.7064	11.9959	 2.2892	34.1403	99.9597	
   356	-6.4291	 8.6633	 2.2342	-7.7718	 9.5978	 1.8259	-9.8474	12.0457	 2.1980	33.8161	99.9567	
   357	-6.5032	 8.6599	 2.1567	-7.9175	 9.7268	 1.8092	-9.9124	12.0687	 2.1560	33.7390	99.9612	
   358	-6.4013	 8.7508	 2.3496	-7.7702	 9.8297	 2.0594	-9.8401	12.3483	 2.5079	33.3080	99.9579	
   359	-6.2454	 8.7624	 2.5170	-7.6835	 9.8830	 2.1994	-9.6233	12.2717	 2.6481	33.7409	99.9582	
   360	-6.3157	 8.8176	 2.5019	-7.7337	 9.9008	 2.1670	-9.6992	12.2985	 2.5990	33.7098	99.9581	
   361	-6.3031	 8.7831	 2.4800	-7.7713	 9.9140	 2.1427	-9.7751	12.3253	 2.5499	33.3813	99.9591	
   362	-6.3609	 8.8038	 2.4429	-7.7326	 9.8164	 2.0838	-9.7028	12.1472	 2.4441	34.0709	99.9601	
   363	-6.4283	 8.7905	 2.3622	-7.8203	 9.8474	 2.0270	-9.8438	12.1970	 2.3530	33.7137	99.9623	
   364	-6.4590	 8.7715	 2.3125	-7.8955	 9.8740	 1.9784	-9.9811	12.3981	 2.4167	32.9834	99.9571	
   365	-6.3031	 8.7831	 2.4800	-7.7337	 9.9008	 2.1670	-9.6992	12.2985	 2.5990	33.6332	99.9590	
   366	-6.2309	 8.7572	 2.5263	-7.6072	 9.7721	 2.1648	-9.6377	12.1242	 2.4862	33.9630	99.9613	
   367	-6.2587	 8.6697	 2.4110	-7.6997	 9.7273	 2.0275	-9.6414	11.9729	 2.3313	34.1790	99.9622	
   368	-6.3136	 8.6219	 2.3083	-7.7546	 9.6692	 1.9145	-9.7823	12.0227	 2.2401	33.7439	99.9604	
   369	-6.3048	 8.5288	 2.2240	-7.7390	 9.5087	 1.7696	-9.7802	11.8751	 2.0946	33.8878	99.9580	
   370	-6.4444	 8.5414	 2.0970	-7.9019	 9.5663	 1.6642	-9.8648	11.7580	 1.8930	34.1953	99.9637	
   371	-6.4444	 8.5414	 2.0970	-7.8518	 9.5486	 1.6967	-9.7238	11.7082	 1.9841	34.6644	99.9626	
   372	-6.2596	 8.5426	 2.2830	-7.6465	 9.5535	 1.9069	-9.5742	11.8023	 2.2278	34.5059	99.9615	
   373	-6.2037	 8.4925	 2.2888	-7.6841	 9.5668	 1.8826	-9.5178	11.6354	 2.1173	34.8064	99.9649	
   374	-6.2296	 8.4344	 2.2047	-7.6309	 9.3930	 1.7620	-9.4557	11.4722	 2.0162	35.2614	99.9627	
   375	-6.2749	 8.4206	 2.1457	-7.7061	 9.4196	 1.7134	-9.7238	11.7082	 1.9841	34.1485	99.9614	
   376	-6.3345	 8.4120	 2.0775	-7.7109	 9.3438	 1.6328	-9.7376	11.5718	 1.8339	34.4932	99.9636	
   377	-6.3797	 8.3982	 2.0185	-7.7716	 9.2942	 1.5225	-9.7406	11.4316	 1.6907	34.8394	99.9637	
   378	-6.3672	 8.3637	 1.9965	-7.7986	 9.3748	 1.5761	-9.7376	11.5718	 1.8339	34.4821	99.9628	
   379	-6.2026	 8.3947	 2.1920	-7.6512	 9.4777	 1.8264	-9.6479	11.6814	 2.0332	34.2208	99.9665	
   380	-6.2171	 8.3999	 2.1828	-7.6309	 9.3930	 1.7620	-9.7238	11.7082	 1.9841	34.0039	99.9632	
   381	-6.2209	 8.3413	 2.1204	-7.7061	 9.4196	 1.7134	-9.6617	11.5450	 1.8830	34.4154	99.9669	
   382	-6.2786	 8.3620	 2.0833	-7.7109	 9.3438	 1.6328	-9.7376	11.5718	 1.8339	34.3068	99.9637	
   383	-6.3383	 8.3534	 2.0151	-7.7986	 9.3748	 1.5761	-9.6755	11.4086	 1.7328	34.9058	99.9667	
   384	-6.3961	 8.3741	 1.9780	-7.8738	 9.4013	 1.5274	-9.8677	11.6178	 1.7498	34.1204	99.9632	
   385	-6.3942	 8.4034	 2.0092	-7.8691	 9.4772	 1.6080	-9.8648	11.7580	 1.8930	33.8851	99.9622	
   386	-6.2133	 8.4585	 2.2452	-7.6136	 9.4644	 1.8507	-9.7151	11.8521	 2.1367	33.8183	99.9612	
   387	-6.1989	 8.4533	 2.2545	-7.6512	 9.4777	 1.8264	-9.6479	11.6814	 2.0332	34.3037	99.9644	
   388	-6.2026	 8.3947	 2.1920	-7.7390	 9.5087	 1.7696	-9.7238	11.7082	 1.9841	33.9676	99.9647	
   389	-6.2479	 8.3809	 2.1331	-7.7437	 9.4329	 1.6891	-9.8648	11.7580	 1.8930	33.5635	99.9635	
   390	-6.3364	 8.3827	 2.0463	-7.7986	 9.3748	 1.5761	-9.8677	11.6178	 1.7498	34.0167	99.9641	
   391	-6.4250	 8.3845	 1.9595	-7.9114	 9.4146	 1.5031	-10.0087	11.6676	 1.6586	33.7207	99.9653	
   392	-6.4808	 8.4345	 1.9536	-7.9443	 9.5037	 1.5594	-9.9949	11.8040	 1.8088	33.6676	99.9636	
   393	-6.2999	 8.4896	 2.1896	-7.7718	 9.5978	 1.8259	-9.7802	11.8751	 2.0946	33.8183	99.9641	
   394	-6.2566	 8.4740	 2.2174	-7.7718	 9.5978	 1.8259	-9.8561	11.9019	 2.0455	33.4561	99.9650	
   395	-6.2604	 8.4154	 2.1550	-7.8471	 9.6244	 1.7772	-9.7889	11.7312	 1.9420	33.8952	99.9684	
   396	-6.3182	 8.4361	 2.1179	-7.8142	 9.5353	 1.7210	-9.8648	11.7580	 1.8930	33.7864	99.9668	
   397	-6.3653	 8.3931	 2.0277	-7.8691	 9.4772	 1.6080	-10.0599	11.8270	 1.7667	33.1583	99.9658	
   398	-6.4683	 8.4000	 1.9317	-8.0195	 9.5303	 1.5107	-10.0737	11.6906	 1.6166	33.6114	99.9689	
   399	-6.5357	 8.3867	 1.8510	-8.0368	 9.4589	 1.4221	-10.1388	11.7136	 1.5745	33.5051	99.9664	
   400	-6.4212	 8.4431	 2.0219	-7.9395	 9.5796	 1.6399	-9.9298	11.7810	 1.8509	33.7814	99.9661	
   401	-6.3037	 8.4309	 2.1272	-7.8142	 9.5353	 1.7210	-9.8648	11.7580	 1.8930	33.7501	99.9666	
   402	-6.3220	 8.3775	 2.0555	-7.8315	 9.4639	 1.6323	-9.8677	11.6178	 1.7498	33.9804	99.9682	
   403	-6.3335	 8.3142	 1.9807	-7.9067	 9.4904	 1.5837	-10.0087	11.6676	 1.6586	33.4322	99.9706	
   404	-6.3931	 8.3056	 1.9124	-7.9490	 9.4279	 1.4788	-9.9466	11.5044	 1.5575	34.0323	99.9697	
   405	-6.5087	 8.3470	 1.8383	-8.0744	 9.4722	 1.3977	-10.0767	11.5504	 1.4734	33.8866	99.9696	
   406	-6.5539	 8.3332	 1.7793	-8.0850	 9.4049	 1.3198	-10.1526	11.5772	 1.4243	33.6991	99.9676	
   407	-6.5809	 8.3729	 1.7920	-8.1120	 9.4855	 1.3734	-10.1388	11.7136	 1.5745	33.5732	99.9653	
   408	-6.3634	 8.4224	 2.0590	-7.9019	 9.5663	 1.6642	-10.0621	11.9747	 1.9123	32.8971	99.9633	
   409	-6.3056	 8.4016	 2.0960	-7.7813	 9.4462	 1.6647	-9.9949	11.8040	 1.8088	33.2722	99.9657	
   410	-6.3528	 8.3586	 2.0058	-7.9067	 9.4904	 1.5837	-9.9328	11.6408	 1.7077	33.7935	99.9682	
   411	-6.3768	 8.3297	 1.9529	-7.9443	 9.5037	 1.5594	-10.0087	11.6676	 1.6586	33.5416	99.9699	
   412	-6.4201	 8.3452	 1.9251	-7.9819	 9.5170	 1.5350	-10.0737	11.6906	 1.6166	33.4322	99.9706	
   413	-6.4653	 8.3315	 1.8661	-7.9866	 9.4412	 1.4545	-10.0737	11.6906	 1.6166	33.5003	99.9667	
   414	-6.4923	 8.3711	 1.8788	-8.0571	 9.5436	 1.4864	-10.2009	11.8768	 1.6756	32.9019	99.9661	
   415	-6.4067	 8.4379	 2.0312	-7.9223	 9.6509	 1.7286	-9.9211	11.9249	 2.0034	33.4782	99.9661	
   416	-6.1893	 8.4874	 2.2981	-7.7170	 9.6559	 1.9388	-9.8474	12.0457	 2.1980	33.0783	99.9642	
   417	-6.1719	 8.4136	 2.2418	-7.7546	 9.6692	 1.9145	-9.7802	11.8751	 2.0946	33.4514	99.9690	
   418	-6.1882	 8.3895	 2.2013	-7.7217	 9.5801	 1.8583	-9.7802	11.8751	 2.0946	33.4467	99.9660	
   419	-6.2171	 8.3999	 2.1828	-7.7718	 9.5978	 1.8259	-9.8561	11.9019	 2.0455	33.2653	99.9662	
   420	-6.2479	 8.3809	 2.1331	-7.8095	 9.6111	 1.8015	-9.9211	11.9249	 2.0034	33.0791	99.9676	
   421	-6.3056	 8.4016	 2.0960	-7.8142	 9.5353	 1.7210	-9.9970	11.9517	 1.9543	32.9699	99.9643	
   422	-6.3615	 8.4517	 2.0902	-7.8847	 9.6377	 1.7529	-10.0534	12.1185	 2.0648	32.6739	99.9624	
   423	-6.2269	 8.5908	 2.3639	-7.6574	 9.7898	 2.1324	-9.7751	12.3253	 2.5499	32.9425	99.9614	
   424	-6.0421	 8.5920	 2.5499	-7.5206	 9.8255	 2.3048	-9.6233	12.2717	 2.6481	33.0874	99.9644	
   425	-6.0151	 8.5524	 2.5372	-7.5707	 9.8432	 2.2724	-9.6992	12.2985	 2.5990	32.7220	99.9646	
   426	-6.0296	 8.5575	 2.5280	-7.5707	 9.8432	 2.2724	-9.6233	12.2717	 2.6481	33.0110	99.9633	
   427	-6.0440	 8.5627	 2.5187	-7.4944	 9.7323	 2.2378	-9.5618	12.0974	 2.5353	33.5551	99.9651	
   428	-6.0392	 8.5235	 2.4843	-7.5320	 9.7456	 2.2134	-9.5618	12.0974	 2.5353	33.4862	99.9649	
   429	-6.0825	 8.5390	 2.4565	-7.5696	 9.7588	 2.1891	-9.6992	12.2985	 2.5990	32.8343	99.9606	
   430	-6.1143	 8.6179	 2.5036	-7.5707	 9.8432	 2.2724	-9.6956	12.4498	 2.7539	32.7257	99.9586	
   431	-5.8276	 8.7100	 2.8824	-7.3254	10.0794	 2.7539	-9.3949	12.6600	 3.2648	32.6777	99.9616	
   432	-5.5772	 8.5827	 3.0055	-7.0736	 9.9065	 2.8328	-9.1766	12.4246	 3.2478	33.0328	99.9638	
   433	-5.6051	 8.4952	 2.8902	-7.0521	 9.7374	 2.6852	-9.0486	12.0686	 3.0197	33.9944	99.9663	
   434	-5.5963	 8.4021	 2.8058	-7.0694	 9.6661	 2.5966	-9.1245	12.0955	 2.9706	33.5861	99.9644	
   435	-5.5933	 8.3336	 2.7403	-7.0103	 9.4837	 2.4733	-9.0522	11.9174	 2.8648	34.0199	99.9614	
   436	-5.6212	 8.2461	 2.6250	-7.0652	 9.4256	 2.3603	-9.0667	11.7699	 2.7029	34.1989	99.9640	
   437	-5.6683	 8.2030	 2.5348	-7.1201	 9.3675	 2.2474	-9.1513	11.6529	 2.5013	34.2405	99.9667	
   438	-5.7280	 8.1945	 2.4665	-7.0872	 9.2784	 2.1911	-9.1513	11.6529	 2.5013	34.3428	99.9642	
   439	-5.5220	 8.1806	 2.6586	-6.8897	 9.3636	 2.4738	-8.8498	11.6933	 2.8431	34.6221	99.9654	
   440	-5.3612	 8.1529	 2.7917	-6.7644	 9.3193	 2.5549	-8.7739	11.6665	 2.8922	34.5206	99.9648	
   441	-5.3506	 8.0891	 2.7385	-6.7440	 9.2347	 2.4905	-8.6417	11.4728	 2.8308	35.1339	99.9648	
   442	-5.3380	 8.0546	 2.7166	-6.7112	 9.1456	 2.4343	-8.5094	11.2792	 2.7694	35.7892	99.9643	
   443	-5.3274	 7.9908	 2.6634	-6.6407	 9.0432	 2.4023	-8.5853	11.3060	 2.7203	35.4217	99.9647	
   444	-5.3244	 7.9223	 2.5979	-6.7285	 9.0742	 2.3456	-8.5232	11.1428	 2.6192	35.8021	99.9677	
   445	-5.3552	 7.9033	 2.5481	-6.7332	 8.9984	 2.2650	-8.5232	11.1428	 2.6192	35.8312	99.9635	
   446	-5.3445	 7.8395	 2.4950	-6.7188	 8.9222	 2.2034	-8.5991	11.1696	 2.5702	35.4634	99.9622	
   447	-5.2233	 7.8860	 2.6627	-6.5154	 8.9989	 2.4834	-8.3576	11.2255	 2.8676	35.8061	99.9651	
   448	-5.0241	 7.8820	 2.8580	-6.3023	 8.9236	 2.6212	-8.1299	11.1451	 3.0148	36.1649	99.9627	
   449	-5.0067	 7.8083	 2.8016	-6.2318	 8.8212	 2.5893	-8.0787	10.9857	 2.9067	36.4740	99.9663	
   450	-4.9527	 7.7290	 2.7763	-6.2049	 8.7406	 2.5357	-8.1546	11.0125	 2.8576	36.0017	99.9647	
   451	-4.9295	 7.6307	 2.7012	-6.2221	 8.6692	 2.4470	-7.9002	10.6401	 2.7396	37.2144	99.9668	
   452	-4.9603	 7.6118	 2.6515	-6.2453	 8.6064	 2.3610	-8.0520	10.6938	 2.6414	36.7492	99.9656	
   453	-4.9930	 7.5635	 2.5705	-6.2626	 8.5350	 2.2723	-8.1279	10.7206	 2.5923	36.4878	99.9634	
   454	-4.9823	 7.4997	 2.5174	-6.3002	 8.5483	 2.2480	-8.0059	10.5418	 2.5357	37.0459	99.9665	
   455	-4.8611	 7.5462	 2.6851	-6.0322	 8.5311	 2.4988	-7.8756	10.7727	 2.8968	36.7412	99.9635	
   456	-4.6407	 7.5271	 2.8864	-5.8336	 8.5320	 2.6983	-7.6479	10.6922	 3.0440	37.0362	99.9658	
   457	-4.6426	 7.4978	 2.8552	-5.8191	 8.4558	 2.6366	-7.5966	10.5329	 2.9359	37.4523	99.9668	
   458	-4.6030	 7.4237	 2.8206	-5.7863	 8.3667	 2.5804	-7.4746	10.3541	 2.8792	37.9384	99.9665	
   459	-4.6194	 7.3995	 2.7801	-5.7863	 8.3667	 2.5804	-7.4746	10.3541	 2.8792	37.9303	99.9677	
   460	-4.5731	 7.3155	 2.7424	-5.7718	 8.2906	 2.5187	-7.5505	10.3809	 2.8302	37.4668	99.9661	
   461	-4.6164	 7.3310	 2.7146	-5.7718	 8.2906	 2.5187	-7.5505	10.3809	 2.8302	37.5718	99.9669	
   462	-4.6771	 7.4202	 2.7431	-5.7718	 8.2906	 2.5187	-7.4746	10.3541	 2.8792	38.0698	99.9641	
   463	-4.5289	 7.4271	 2.8981	-5.6436	 8.3938	 2.7501	-7.2930	10.4256	 3.1322	38.1067	99.9660	
   464	-4.3807	 7.4339	 3.0532	-5.5704	 8.4390	 2.8685	-7.2171	10.3988	 3.1813	38.0883	99.9678	
   465	-4.3990	 7.3804	 2.9815	-5.5230	 8.2737	 2.7506	-7.1710	10.2468	 3.0756	38.4691	99.9657	
   466	-4.2862	 7.1825	 2.8964	-5.3735	 8.0013	 2.6277	-7.0027	 9.9162	 2.9132	39.0571	99.9659	
   467	-4.1906	 6.9459	 2.7552	-5.2675	 7.7507	 2.4831	-6.8446	 9.6004	 2.7555	39.5596	99.9664	
   468	-4.1442	 6.7493	 2.6051	-5.2637	 7.6073	 2.3436	-6.7675	 9.3188	 2.5510	39.9469	99.9694	
   469	-4.0670	 6.4592	 2.3922	-5.2242	 7.3157	 2.0914	-6.7045	 8.8050	 2.1002	40.5960	99.9747	
   470	-4.1928	 6.2269	 2.0341	-5.3741	 6.9682	 1.5941	-6.8678	 8.3936	 1.5256	40.9421	99.9737	
   471	-4.3535	 6.1421	 1.7886	-5.4889	 6.8732	 1.3842	-6.7845	 8.0308	 1.2460	42.0964	99.9761	
   472	-4.4093	 6.1921	 1.7828	-5.5179	 6.8189	 1.3008	-6.8237	 7.9317	 1.1076	42.4094	99.9760	
   473	-4.5142	 6.1698	 1.6555	-5.6222	 6.7911	 1.1689	-6.9439	 7.8668	 0.9225	42.4159	99.9774	
   474	-4.6507	 6.0013	 1.3506	-5.7144	 6.4427	 0.7282	-7.0130	 7.3657	 0.3523	43.3441	99.9779	
   475	-4.7572	 5.6122	 0.8550	-5.8560	 6.1246	 0.2685	-7.0904	 7.0935	 0.0028	43.2966	99.9755	
   476	-4.6100	 5.7168	 1.1068	-5.6016	 6.4028	 0.8011	-6.8157	 7.6067	 0.7907	42.7079	99.9749	
   477	-5.0222	 5.9696	 0.9474	-6.0990	 6.6432	 0.5440	-7.3422	 7.6910	 0.3486	42.4221	99.9776	
   478	-5.3787	 6.3974	 1.0186	-6.1031	 7.0902	 0.9870	-7.1239	 8.3711	 1.2470	42.7800	99.9739	
   479	-4.5415	 6.5469	 2.0054	-5.3140	 7.2118	 1.8977	-6.5409	 8.3968	 1.8556	42.8791	99.9803	
   480	-4.6300	 6.4362	 1.8062	-5.4328	 7.0536	 1.6207	-6.5492	 8.1681	 1.6186	43.3380	99.9775	
   481	-4.6608	 6.4172	 1.7565	-5.3827	 7.0359	 1.6531	-6.4733	 8.1413	 1.6677	43.5975	99.9788	
   482	-4.6732	 6.3392	 1.6660	-5.3827	 7.0359	 1.6531	-6.4341	 8.2404	 1.8060	43.3575	99.9771	
   483	-4.5597	 6.3810	 1.8213	-5.3160	 7.0769	 1.7608	-6.2823	 8.1868	 1.9042	43.7041	99.9759	
   484	-4.5559	 6.4396	 1.8837	-5.3140	 7.2118	 1.8977	-6.3699	 8.5681	 2.1979	42.7471	99.9735	
   485	-4.4982	 6.5314	 2.0332	-5.1596	 7.2218	 2.0621	-6.3250	 8.6709	 2.3456	42.6789	99.9745	
   486	-4.4425	 6.5939	 2.1514	-5.1345	 7.4196	 2.2850	-6.1642	 8.8571	 2.6926	42.6533	99.9732	
   487	-4.1549	 6.8131	 2.6582	-4.7411	 7.5647	 2.8236	-5.7843	 9.0958	 3.3112	42.8790	99.9715	
   488	-3.9759	 6.8389	 2.8630	-4.5800	 7.5789	 2.9988	-5.7495	 9.2134	 3.4636	42.4390	99.9713	
   489	-3.9489	 6.7992	 2.8503	-4.5424	 7.5656	 3.0231	-5.6628	 9.1828	 3.5197	42.5944	99.9713	
   490	-3.8729	 6.8319	 2.9590	-4.4692	 7.6108	 3.1415	-5.6171	 9.2966	 3.6792	42.3771	99.9701	
   491	-3.8258	 6.8750	 3.0492	-4.4460	 7.6736	 3.2275	-5.6474	 9.4373	 3.7896	41.9941	99.9690	
   492	-3.7719	 6.9082	 3.1362	-4.3727	 7.7188	 3.3459	-5.6935	 9.5892	 3.8954	41.5228	99.9699	
   493	-3.7807	 7.0013	 3.2206	-4.3429	 7.7857	 3.4427	-5.6421	 9.7067	 4.0642	41.5578	99.9675	
   494	-3.6172	 7.1301	 3.5129	-4.1493	 8.0144	 3.8650	-5.3355	10.0165	 4.6807	41.5371	99.9644	
   495	-3.2736	 7.1868	 3.9131	-3.8205	 8.0468	 4.2261	-5.0289	10.0495	 5.0202	41.6747	99.9639	
   496	-3.1619	 7.0867	 3.9248	-3.7501	 7.9444	 4.1942	-4.9885	 9.8939	 4.9051	41.7443	99.9657	
   497	-3.1243	 6.9833	 3.8590	-3.7732	 7.8815	 4.1082	-4.9481	 9.7383	 4.7900	41.9359	99.9666	
   498	-3.0144	 6.8539	 3.8395	-3.6179	 7.6006	 3.9826	-4.7856	 9.4040	 4.6182	42.6242	99.9650	
   499	-3.0904	 6.8212	 3.7308	-3.7557	 7.6493	 3.8935	-4.8370	 9.2866	 4.4493	42.8349	99.9688	
   500	-3.1289	 6.7975	 3.6686	-3.7413	 7.5732	 3.8318	-4.8370	 9.2866	 4.4493	42.8618	99.9666	
   501	-3.1337	 6.8367	 3.7030	-3.7886	 7.7384	 3.9497	-4.7856	 9.4040	 4.6182	42.7991	99.9674	
   502	-2.8643	 6.8900	 4.0257	-3.2468	 7.6955	 4.4486	-4.5439	 9.7368	 5.1926	42.2711	99.9679	
   503	-2.6728	 6.8813	 4.2085	-3.1108	 7.7185	 4.6076	-4.3596	 9.6717	 5.3118	42.4894	99.9691	
   504	-2.7035	 6.8624	 4.1588	-3.0106	 7.6831	 4.6724	-4.3025	 9.7928	 5.4900	42.3851	99.9675	
   505	-2.2493	 6.9169	 4.6676	-2.4902	 7.8092	 5.3189	-3.7212	 9.8813	 6.1597	42.8317	99.9707	
   506	-2.1278	 6.6259	 4.4981	-2.4243	 7.3274	 4.9030	-3.7662	 9.3208	 5.5543	43.2469	99.9699	
   507	-2.2307	 6.6328	 4.4021	-2.6076	 7.4697	 4.8620	-3.8934	 9.5070	 5.6133	42.7494	99.9686	
   508	-2.1240	 6.6845	 4.5605	-2.5092	 7.5060	 4.9966	-3.6795	 9.2901	 5.6104	43.5950	99.9733	
   509	-2.0970	 6.6448	 4.5478	-2.3945	 7.3944	 4.9998	-3.5819	 9.2557	 5.6735	43.7773	99.9713	
   510	-1.6386	 6.4205	 4.7818	-1.8380	 6.9717	 5.1336	-2.8066	 8.4336	 5.6267	46.1447	99.9749	
   511	-1.8617	 6.1706	 4.3089	-2.1446	 6.5763	 4.4317	-3.0523	 7.7576	 4.7049	47.0534	99.9762	
   512	-1.9999	 5.7478	 3.7480	-2.5229	 6.1611	 3.6381	-3.2855	 7.0150	 3.7291	47.7288	99.9753	
   513	-1.9439	 5.5853	 3.6414	-2.4873	 6.0129	 3.5255	-3.1838	 6.8660	 3.6819	47.9191	99.9732	
   514	-1.6947	 5.6683	 3.9737	-2.1343	 6.0238	 3.8894	-3.0403	 7.0413	 4.0007	47.5703	99.9759	
   515	-1.4888	 5.7669	 4.2781	-1.8421	 5.9851	 4.1429	-2.8668	 6.9801	 4.1129	47.9262	99.9788	
   516	-1.4673	 5.4144	 3.9471	-2.1588	 5.6320	 3.4731	-3.1196	 6.0974	 2.9776	48.7749	99.9813	
   517	-2.1017	 4.6298	 2.5281	-2.9287	 4.7933	 1.8645	-3.8231	 5.1763	 1.3529	49.0441	99.9777	
   518	-1.8504	 4.5172	 2.6667	-2.6042	 4.8595	 2.2551	-3.4543	 5.3229	 1.8682	48.8911	99.9791	
   519	-2.0764	 4.3358	 2.2594	-2.8911	 4.7800	 1.8888	-3.7527	 5.2418	 1.4888	48.4689	99.9794	
   520	-2.0113	 4.6573	 2.6460	-2.6460	 5.1132	 2.4670	-3.4750	 5.7144	 2.2392	48.4343	99.9803	
   521	-1.7236	 4.7641	 3.0405	-2.5696	 5.2089	 2.6392	-3.6533	 5.8791	 2.2256	47.3658	99.9810	
   522	-2.0402	 4.6677	 2.6275	-2.7950	 4.9850	 2.1899	-3.7794	 5.5338	 1.7541	48.2532	99.9807	
   523	-2.2037	 4.5389	 2.3352	-2.9149	 4.9111	 1.9961	-3.7688	 5.4340	 1.6649	48.5521	99.9796	
   524	-2.0584	 4.6143	 2.5558	-2.8102	 5.0485	 2.2382	-3.7138	 5.7027	 1.9887	47.9349	99.9786	
   525	-1.8302	 4.4874	 2.6572	-2.5514	 4.7827	 2.2312	-3.4489	 5.2305	 1.7814	49.0365	99.9805	
   526	-2.0098	 4.1095	 2.0997	-2.6797	 4.4728	 1.7930	-3.3568	 4.8307	 1.4736	49.8027	99.9782	
   527	-1.9012	 4.3030	 2.4017	-2.4900	 4.6383	 2.1482	-3.2103	 5.1463	 1.9356	49.5418	99.9783	
   528	-2.1690	 4.5040	 2.3350	-2.6306	 4.7461	 2.1154	-3.3730	 5.2037	 1.8305	49.8467	99.9810	
   529	-2.5848	 4.4732	 1.8884	-3.1560	 4.6411	 1.4850	-3.9471	 4.6833	 0.7359	50.4723	99.9834	
   530	-3.1907	 4.0157	 0.8251	-3.7481	 4.2885	 0.5402	-4.0686	 4.1385	 0.0696	51.6713	99.9758	
   531	-3.3015	 4.1304	 0.8290	-3.8301	 4.1043	 0.2741	-4.5471	 3.8273	-0.7201	51.8071	99.9825	
   532	-3.5716	 3.8375	 0.2658	-4.0970	 3.8305	-0.2666	-4.7505	 3.6675	-1.0834	51.6455	99.9817	
   533	-3.0982	 3.9601	 0.8619	-3.6765	 4.1017	 0.4251	-4.2789	 4.0490	-0.2303	51.1863	99.9801	
   534	-2.2637	 3.9532	 1.6894	-2.9083	 3.9918	 1.0833	-3.4936	 3.8506	 0.3567	52.0229	99.9785	
   535	-1.8298	 3.1228	 1.2930	-2.7904	 3.2139	 0.4234	-3.5072	 3.0756	-0.4319	51.6598	99.9759	
   536	-2.1971	 2.6997	 0.5027	-2.9155	 2.9546	 0.0389	-3.6543	 3.2067	-0.4479	50.8103	99.9788	
   537	-2.3211	 2.6093	 0.2881	-3.2916	 3.0874	-0.2042	-4.0674	 3.4261	-0.6416	49.3967	99.9760	
   538	-3.6764	 2.6755	-1.0009	-4.3222	 3.3030	-1.0193	-5.1542	 4.0418	-1.1128	47.8603	99.9804	
   539	-4.1756	 3.4093	-0.7663	-4.6077	 4.2693	-0.3385	-5.3671	 5.1002	-0.2672	47.0380	99.9840	
   540	-4.2092	 4.2611	 0.0519	-4.8333	 5.0658	 0.2324	-5.7802	 5.7773	-0.0031	46.0868	99.9854	
   541	-4.1095	 4.6601	 0.5506	-4.6404	 5.2818	 0.6413	-5.4387	 5.7471	 0.3081	47.4681	99.9845	
   542	-3.7185	 4.4224	 0.7040	-4.2795	 4.7022	 0.4226	-4.6615	 4.6814	 0.0196	50.6634	99.9767	
   543	-2.4707	 3.9524	 1.4818	-3.1590	 4.0803	 0.9212	-3.6345	 3.9004	 0.2656	51.9252	99.9762	
   544	-3.4388	 3.8348	 0.3960	-3.7241	 3.8537	 0.1296	-4.2713	 3.8089	-0.4627	52.1091	99.9830	
   545	-3.8766	 3.6919	-0.1846	-4.3949	 3.5741	-0.8209	-4.9992	 3.3089	-1.6906	52.2248	99.9809	
   546	-3.8524	 3.6083	-0.2441	-4.3291	 3.6025	-0.7267	-4.8073	 3.4615	-1.3461	52.0574	99.9791	
   547	-3.3608	 3.7843	 0.4236	-3.8400	 3.8430	 0.0029	-4.2760	 3.7315	-0.5448	52.0725	99.9783	
   548	-2.9268	 3.8686	 0.9418	-3.5042	 3.9892	 0.4849	-4.0017	 3.8719	-0.1301	51.7778	99.9782	
   549	-2.6834	 3.9762	 1.2928	-3.3372	 4.2014	 0.8641	-3.7061	 4.0896	 0.3831	51.6869	99.9747	
   550	-2.3493	 3.8864	 1.5371	-3.0243	 3.9811	 0.9567	-3.5633	 3.7961	 0.2325	52.0196	99.9775	
   551	-2.5271	 3.5378	 1.0108	-3.3104	 3.7076	 0.3971	-3.9988	 3.5544	-0.4446	51.3057	99.9788	
   552	-3.2019	 3.7274	 0.5254	-3.9801	 4.2671	 0.2869	-4.6386	 4.4190	-0.2199	49.2288	99.9789	
   553	-2.9252	 4.2354	 1.3102	-3.3690	 4.7164	 1.3472	-3.8771	 4.8337	 0.9563	50.3718	99.9810	
   554	-2.2512	 3.9187	 1.6675	-3.0382	 4.3734	 1.3352	-3.6431	 4.4911	 0.8477	50.0401	99.9773	
   555	-1.9460	 3.8392	 1.8932	-2.6845	 4.1904	 1.5057	-3.4142	 4.1560	 0.7415	50.7145	99.9803	
   556	-2.2750	 3.6648	 1.3898	-2.8206	 3.9608	 1.1401	-3.1861	 3.9906	 0.8042	51.8121	99.9760	
   557	-2.0473	 4.1005	 2.0531	-2.4165	 4.3798	 1.9633	-2.6357	 4.4855	 1.8496	52.2105	99.9752	
   558	-1.2372	 4.4022	 3.1650	-1.6920	 4.5953	 2.9032	-2.2288	 4.9860	 2.7568	51.1465	99.9762	
   559	-1.0757	 4.6142	 3.5384	-1.5305	 4.7190	 3.1885	-2.2283	 5.1779	 2.9493	50.8184	99.9778	
   560	-1.0422	 4.7896	 3.7474	-1.5418	 4.8457	 3.3038	-2.2286	 5.0819	 2.8531	51.3156	99.9798	
   561	-1.3266	 4.2768	 2.9502	-1.9679	 4.2795	 2.3114	-2.6460	 4.2236	 1.5773	52.0283	99.9796	
   562	-1.9888	 3.2923	 1.3035	-2.8122	 3.4799	 0.6676	-3.3482	 3.3246	-0.0239	51.9597	99.9751	
   563	-2.8470	 2.9328	 0.0859	-3.7776	 3.4077	-0.3700	-4.6808	 3.7219	-0.9591	48.7742	99.9800	
   564	-3.5432	 3.3625	-0.1808	-4.2036	 3.7649	-0.4389	-4.8893	 4.0273	-0.8623	49.5155	99.9801	
   565	-3.0084	 3.6355	 0.6271	-3.4384	 4.0176	 0.5791	-3.8579	 4.1432	 0.2850	51.1164	99.9791	
   566	-2.5080	 3.7184	 1.2104	-2.8614	 3.9235	 1.0620	-3.0339	 3.8521	 0.8179	52.9343	99.9753	
   567	-1.5128	 3.6838	 2.1711	-2.0610	 3.9184	 1.8573	-2.4171	 3.8884	 1.4711	52.5242	99.9756	
   568	-2.0989	 3.6466	 1.5478	-2.4621	 4.0601	 1.5979	-2.5685	 3.8571	 1.2884	53.1222	99.9746	
   569	-2.0902	 3.6660	 1.5758	-2.6738	 3.7474	 1.0735	-3.1281	 3.4842	 0.3557	52.9003	99.9773	
   570	-1.9757	 3.7224	 1.7467	-2.4849	 3.9003	 1.4153	-2.8868	 3.7210	 0.8339	52.7461	99.9776	
   571	-1.4496	 4.0885	 2.6389	-1.9652	 4.2204	 2.2551	-2.4780	 4.2546	 1.7764	52.1509	99.9785	
   572	-0.9832	 4.4460	 3.4629	-1.5040	 4.5288	 3.0248	-2.2291	 4.8900	 2.6606	51.0564	99.9786	
   573	-0.5387	 4.5790	 4.0404	-1.0891	 4.5050	 3.4158	-1.8878	 4.5829	 2.6949	52.0726	99.9818	
   574	-1.0267	 3.6595	 2.6328	-1.9083	 3.6966	 1.7881	-2.6587	 3.5556	 0.8966	52.0216	99.9777	
   575	-1.7656	 3.4297	 1.6640	-2.6013	 3.7799	 1.1785	-3.1904	 3.8282	 0.6376	50.9525	99.9758	
   576	-2.3307	 3.4899	 1.1592	-3.0243	 3.9811	 0.9567	-3.6415	 4.1515	 0.5097	50.2085	99.9790	
   577	-2.3123	 3.4308	 1.1185	-3.0623	 3.8847	 0.8223	-3.7108	 4.0121	 0.3010	50.2574	99.9787	
   578	-2.2343	 3.3803	 1.1460	-2.8775	 3.7677	 0.8901	-3.5699	 3.9623	 0.3922	50.4663	99.9806	
   579	-2.3729	 3.4076	 1.0346	-3.2191	 3.8368	 0.6176	-3.8561	 3.8996	 0.0432	50.2698	99.9771	
   580	-2.5704	 3.5533	 0.9830	-3.1877	 3.9290	 0.7412	-3.5586	 3.8736	 0.3147	51.5664	99.9757	
   581	-2.3625	 3.5688	 1.2063	-2.9397	 3.8995	 0.9597	-3.2659	 3.7702	 0.5040	52.1435	99.9754	
   582	-2.2747	 3.3273	 1.0527	-2.7653	 3.4116	 0.6463	-3.1313	 3.2480	 0.1163	53.1322	99.9768	
   583	-2.0107	 3.0677	 1.0570	-2.4738	 3.3603	 0.8864	-2.3446	 3.5294	 1.1845	53.1770	99.9623	
   584	-0.9033	 3.5103	 2.6069	-1.1608	 3.7683	 2.6074	-1.4099	 3.7869	 2.3767	53.5937	99.9780	
   585	-0.4365	 3.4178	 2.9813	-1.0605	 3.7328	 2.6722	-1.4203	 3.7058	 2.2851	52.8876	99.9745	
   586	-0.6029	 3.3575	 2.7546	-1.1934	 3.5538	 2.3602	-1.6139	 3.4351	 1.8209	53.2972	99.9763	
   587	-0.7991	 3.1805	 2.3814	-1.3980	 3.3548	 1.9567	-1.7917	 3.3341	 1.5421	53.1492	99.9748	
   588	-0.5990	 3.3036	 2.7046	-1.0959	 3.5774	 2.4815	-1.3440	 3.5941	 2.2497	53.3556	99.9738	
   589	-0.4882	 3.1889	 2.7007	-1.0407	 3.3319	 2.2911	-1.4513	 3.3777	 1.9261	53.2840	99.9751	
   590	-0.6906	 3.4864	 2.7958	-1.0225	 3.8292	 2.8066	-1.2206	 3.8951	 2.6742	53.3496	99.9759	
   591	-0.5189	 3.0575	 2.5386	-1.2073	 3.2293	 2.0219	-1.7201	 3.1449	 1.4245	53.1024	99.9762	
   592	-1.2886	 2.8088	 1.5201	-1.9004	 3.1061	 1.2056	-2.5163	 3.3471	 0.8305	51.6656	99.9782	
   593	-1.5093	 3.0528	 1.5436	-2.1505	 3.5109	 1.3603	-2.6544	 3.7180	 1.0633	51.2671	99.9769	
   594	-1.8356	 3.1474	 1.3118	-2.5015	 3.6349	 1.1333	-3.0339	 3.8521	 0.8179	50.8231	99.9773	
   595	-2.1764	 3.2471	 1.0707	-2.8023	 3.7412	 0.9388	-3.3375	 3.9593	 0.6215	50.6385	99.9781	
   596	-2.2430	 3.3609	 1.1180	-2.7522	 3.7235	 0.9712	-3.1141	 3.7165	 0.6021	52.0218	99.9770	
   597	-2.0320	 3.1953	 1.1633	-2.2137	 3.2168	 1.0029	-2.3930	 2.9136	 0.5204	54.8731	99.9781	
   598	-1.6717	 2.8262	 1.1545	-1.9163	 2.6467	 0.7303	-2.2994	 2.3551	 0.0553	55.2252	99.9803	
   599	-1.8592	 2.6685	 0.8093	-2.1974	 2.3521	 0.1546	-2.6879	 1.7916	-0.8966	55.8599	99.9804	
   600	-1.8157	 2.4280	 0.6123	-2.1939	 2.3057	 0.1117	-2.5132	 1.9333	-0.5802	55.3144	99.9773	
   601	-1.1268	 2.6832	 1.5565	-1.4431	 2.6345	 1.1914	-1.7290	 2.4474	 0.7180	55.0536	99.9772	
   602	-0.4435	 2.7381	 2.2946	-0.9667	 2.6729	 1.7061	-1.4099	 2.4137	 1.0035	54.8589	99.9771	
   603	-0.2622	 2.3432	 2.0810	-0.7318	 2.3315	 1.5997	-1.0846	 2.2988	 1.2139	54.7833	99.9745	
   604	 0.1592	 2.5744	 2.7336	-0.3712	 2.5658	 2.1945	-0.7134	 2.3937	 1.6800	55.1030	99.9744	
   605	-0.5449	 2.0847	 1.5398	-1.2639	 2.2225	 0.9585	-1.9101	 2.2910	 0.3805	53.0366	99.9770	
   606	-1.9058	 2.0630	 0.1572	-2.3700	 2.5616	 0.1915	-2.8531	 2.9971	 0.1437	51.4021	99.9777	
   607	-2.0280	 3.0290	 1.0010	-2.4106	 3.6544	 1.2438	-2.8070	 3.9414	 1.1341	51.1785	99.9795	
   608	-1.9339	 3.2276	 1.2937	-2.5208	 3.4286	 0.9077	-3.1458	 3.1005	-0.0456	52.7455	99.9793	
   609	-1.7999	 3.0146	 1.2147	-2.1388	 2.7770	 0.6381	-2.3558	 2.5219	 0.1658	55.2429	99.9745	
   610	-1.2931	 2.5105	 1.2174	-1.4766	 2.2008	 0.7241	-2.3476	 2.0161	-0.3318	54.8018	99.9882	
   611	-1.6652	 2.1266	 0.4614	-2.1287	 1.8112	-0.3176	-2.7587	 1.3533	-1.4057	55.4878	99.9812	
   612	-1.4581	 1.9024	 0.4443	-1.8048	 1.5612	-0.2438	-2.3318	 1.2703	-1.0618	55.8268	99.9805	
   613	-0.4579	 1.7161	 1.2582	-0.9167	 1.5251	 0.6082	-1.2743	 1.3600	 0.0854	55.8723	99.9745	
   614	-0.2298	 1.7018	 1.4720	-0.6894	 1.6772	 0.9877	-1.2200	 1.6177	 0.3974	54.9521	99.9788	
   615	-0.6588	 1.4658	 0.8070	-1.0508	 1.4303	 0.3795	-1.4558	 1.2885	-0.1676	55.5047	99.9779	
   616	-2.3640	 1.1477	-1.2163	-2.7309	 1.7075	-1.0235	-3.1391	 2.2957	-0.8437	51.5377	99.9763	
   617	-2.5730	 2.2573	-0.3157	-2.7464	 2.7915	 0.0450	-3.1411	 3.1780	 0.0365	51.7585	99.9818	
   618	-2.2955	 3.0050	 0.7094	-2.7715	 3.5172	 0.7456	-3.2706	 3.6927	 0.4218	51.1734	99.9800	
   619	-1.9172	 2.9142	 0.9970	-2.3079	 2.9401	 0.6321	-2.8188	 2.4651	-0.3540	54.4188	99.9793	
   620	-1.3336	 2.5700	 1.2364	-1.5274	 2.4125	 0.8849	-1.8025	 1.9648	 0.1619	56.2258	99.9790	
   621	-0.9379	 2.4056	 1.4677	-1.3613	 2.4054	 1.0440	-1.5404	 2.0869	 0.5462	55.5318	99.9739	
   622	-1.1253	 2.1354	 1.0101	-1.7186	 1.7115	-0.0072	-2.4248	 1.1054	-1.3198	56.0187	99.9803	
   623	-1.2645	 1.8105	 0.5460	-1.6885	 1.4749	-0.2138	-2.1909	 1.2205	-0.9707	55.7695	99.9784	
   624	-0.3656	 1.7730	 1.4074	-0.7737	 1.6618	 0.8880	-1.1687	 1.4583	 0.2893	55.8056	99.9773	
   625	-0.0422	 1.8594	 1.8172	-0.6020	 1.7432	 1.1411	-1.0830	 1.5015	 0.4182	55.5486	99.9767	
   626	-0.5627	 1.5813	 1.0186	-1.0417	 1.4724	 0.4305	-1.5466	 1.2528	-0.2941	55.4893	99.9785	
   627	-1.9551	 1.3010	-0.6541	-2.2596	 1.7670	-0.4927	-2.6255	 2.1821	-0.4437	52.5359	99.9778	
   628	-1.9627	 2.2108	 0.2481	-2.2140	 2.8036	 0.5895	-2.5256	 3.1922	 0.6662	51.9769	99.9790	
   629	-1.5699	 3.0296	 1.4597	-1.9719	 3.4994	 1.5275	-2.4159	 3.6337	 1.2175	52.0278	99.9800	
   630	-1.5416	 2.6671	 1.1255	-2.0417	 2.6910	 0.6493	-2.4748	 2.2023	-0.2728	54.7476	99.9770	
   631	-1.2556	 2.5195	 1.2639	-1.1765	 2.2885	 1.1119	-1.5236	 1.7249	 0.2011	57.1860	99.9822	
   632	-0.7816	 2.0796	 1.2980	-1.2541	 2.0705	 0.8163	-1.4328	 1.7607	 0.3276	55.7171	99.9728	
   633	-1.0095	 1.8690	 0.8595	-1.5577	 1.5190	-0.0387	-2.2188	 1.0326	-1.1866	55.9278	99.9804	
   634	-1.0104	 1.7418	 0.7315	-1.3912	 1.4150	 0.0237	-1.8222	 1.0902	-0.7323	56.3411	99.9782	
   635	 0.1051	 1.7391	 1.8442	-0.3353	 1.6038	 1.2684	-0.6670	 1.4223	 0.7550	56.1384	99.9748	
   636	 0.4631	 1.7907	 2.2538	-0.0477	 1.6959	 1.6481	-0.3930	 1.4668	 1.0735	56.1407	99.9745	
   637	-0.3872	 1.3234	 0.9362	-0.7896	 1.2024	 0.4128	-1.2019	 1.0010	-0.2012	56.0713	99.9777	
   638	-2.0071	 1.2971	-0.7100	-2.2164	 1.8422	-0.3743	-2.4748	 2.2023	-0.2728	52.8717	99.9784	
   639	-1.9280	 2.1759	 0.2479	-2.1259	 2.6756	 0.5496	-2.4689	 2.9404	 0.4713	52.5856	99.9808	
   640	-1.4897	 2.7834	 1.2937	-1.9098	 3.1611	 1.2512	-2.2932	 3.1892	 0.8956	52.7899	99.9785	
   641	-1.4750	 2.4408	 0.9658	-1.8088	 2.2148	 0.4059	-2.4100	 1.6256	-0.7847	55.8275	99.9810	
   642	-0.4382	 2.2489	 1.8107	-0.8562	 1.8782	 1.0219	-1.4989	 1.8575	 0.3583	55.1421	99.9784	
   643	-0.5766	 2.0511	 1.4745	-0.6869	 1.9218	 1.2347	-1.2348	 1.5551	 0.3200	56.2800	99.9838	
   644	-0.8738	 1.7978	 0.9240	-1.3035	 1.3840	 0.0804	-1.8810	 0.8510	-1.0302	56.7531	99.9805	
   645	-0.7735	 1.6344	 0.8609	-1.2157	 1.3530	 0.1372	-1.6202	 0.9510	-0.6695	56.5449	99.9772	
   646	-0.0883	 1.7185	 1.6302	-0.4725	 1.4585	 0.9859	-0.8948	 1.2259	 0.3308	56.4339	99.9775	
   647	 0.1918	 1.7080	 1.8998	-0.3381	 1.4563	 1.1180	-0.9097	 1.1633	 0.2534	56.1243	99.9786	
   648	-1.5998	 1.1960	-0.4038	-2.2135	 1.4795	-0.7341	-2.6879	 1.7916	-0.8966	52.6174	99.9734	
   649	-1.9280	 2.1759	 0.2479	-2.0005	 2.6313	 0.6306	-2.1555	 2.9032	 0.7474	53.3183	99.9787	
   650	-1.1153	 2.7466	 1.6313	-1.4392	 3.2079	 1.7686	-1.7913	 3.2492	 1.4576	53.0375	99.9794	
   651	-1.0517	 2.7013	 1.6496	-1.5934	 2.8943	 1.3008	-2.0279	 2.6321	 0.6039	53.8944	99.9773	
   652	-1.1633	 2.5764	 1.4131	-1.4867	 2.4497	 0.9630	-1.8784	 1.9916	 0.1129	55.7600	99.9791	
   653	-0.1925	 1.9358	 1.7433	-0.8148	 1.7215	 0.9067	-1.2200	 1.6177	 0.3974	55.3471	99.9710	
   654	-0.4956	 1.9321	 1.4364	-0.8739	 1.6972	 0.8232	-1.3799	 1.2617	-0.1185	56.3913	99.9801	
   655	-1.1498	 1.6419	 0.4921	-1.6049	 1.1741	-0.4309	-2.2301	 0.6636	-1.5668	56.6415	99.9809	
   656	-0.9996	 1.5655	 0.5659	-1.3556	 1.2668	-0.0889	-1.7960	 0.8832	-0.9131	56.5702	99.9792	
   657	-0.0161	 1.6926	 1.6765	-0.5658	 1.4011	 0.8352	-1.1757	 0.7940	-0.3820	56.8330	99.9789	
   658	-0.7388	 1.5995	 0.8606	-1.4679	 1.6229	 0.1549	-2.1132	 1.5886	-0.5249	53.7587	99.9768	
   659	-1.2726	 2.1433	 0.8707	-1.6935	 2.4195	 0.7259	-2.2896	 2.4251	 0.1351	53.1517	99.9818	
   660	-1.3910	 2.2532	 0.8622	-1.7437	 2.4372	 0.6934	-2.0815	 2.2046	 0.1228	54.5263	99.9783	
   661	-0.8222	 2.2516	 1.4294	-1.1263	 2.2707	 1.1443	-1.4743	 1.9901	 0.5155	55.4418	99.9789	
   662	-0.7556	 2.0253	 1.2697	-1.1696	 1.9890	 0.8193	-1.5384	 1.6624	 0.1237	55.6099	99.9776	
   663	-0.4580	 1.8286	 1.3706	-0.4642	 1.6945	 1.2303	-0.3930	 1.4668	 1.0735	57.5588	99.9742	
   664	 1.3297	 2.3945	 3.7242	 1.2592	 2.4160	 3.6751	 0.8760	 2.3068	 3.1825	56.4085	99.9823	
   665	 1.6932	 2.7590	 4.4521	 1.3232	 2.7227	 4.0458	 0.7285	 2.5228	 3.2510	55.7367	99.9818	
   666	 1.4082	 2.8087	 4.2169	 0.9620	 2.6824	 3.6443	 0.4051	 2.3940	 2.7989	55.9339	99.9800	
   667	 1.2407	 2.8463	 4.0870	 0.7015	 2.7164	 3.4178	 0.0318	 2.4468	 2.4783	55.3709	99.9807	
   668	 1.1010	 2.9713	 4.0724	 0.5484	 2.8286	 3.3769	-0.1262	 2.5817	 2.4553	55.1587	99.9806	
   669	 1.0086	 3.0270	 4.0356	 0.3980	 2.8817	 3.2796	-0.3307	 2.4958	 2.1648	55.2074	99.9807	
   670	 0.6257	 2.8194	 3.4451	-0.1299	 2.5322	 2.4022	-0.8714	 2.0709	 1.1992	55.3691	99.9788	
   671	-0.4928	 1.9761	 1.4833	-1.3050	 1.5654	 0.2603	-1.9780	 1.0775	-0.9009	55.7248	99.9763	
   672	-0.8075	 1.9090	 1.1015	-1.1696	 1.9890	 0.8193	-1.5748	 1.8843	 0.3092	54.8262	99.9789	
   673	-1.3159	 2.1588	 0.8429	-1.7878	 2.6530	 0.8651	-2.3026	 3.0343	 0.7314	51.7238	99.9787	
   674	-1.4872	 3.1649	 1.6777	-1.4518	 3.9292	 2.4773	-1.7087	 4.7061	 2.9972	51.0640	99.9802	
   675	-0.7279	 4.1670	 3.4392	-0.2952	 4.9090	 4.6138	-1.0886	 6.3518	 5.2629	49.1668	99.9870	
   676	-0.0232	 5.0089	 4.9857	 0.1260	 5.7031	 5.8290	-1.0391	 7.1706	 6.1312	47.7796	99.9887	
   677	-0.0827	 4.8878	 4.8051	-0.2397	 5.2834	 5.0435	-1.2614	 5.9664	 4.7047	49.9289	99.9897	
   678	-0.3938	 4.0772	 3.6834	-0.6239	 4.1598	 3.5358	-1.4648	 4.2527	 2.7876	52.6129	99.9877	
   679	-0.2757	 3.3901	 3.1144	-0.6643	 3.3087	 2.6443	-1.5064	 2.8321	 1.3254	54.5942	99.9831	
   680	-0.7080	 2.5330	 1.8251	-1.4303	 2.3265	 0.8961	-2.2353	 1.7673	-0.4683	54.8147	99.9798	
   681	-0.8772	 2.3163	 1.4392	-1.5132	 1.9231	 0.4098	-2.4117	 1.2307	-1.1813	55.6902	99.9814	
   682	-1.1309	 1.9350	 0.8041	-1.6865	 1.6098	-0.0769	-2.3358	 1.2039	-1.1323	55.5531	99.9801	
   683	-0.5854	 2.1442	 1.5588	-0.8628	 2.0808	 1.2179	-1.2712	 1.7771	 0.5055	55.8318	99.9802	
   684	 0.0846	 2.1064	 2.1909	-0.4645	 1.7915	 1.3269	-1.0615	 1.2170	 0.1552	56.6241	99.9790	
   685	-0.9543	 1.4668	 0.5125	-1.4720	 1.3531	-0.1189	-2.1150	 1.1936	-0.9216	54.8454	99.9804	
   686	-1.4602	 2.0981	 0.6379	-1.8652	 2.3380	 0.4728	-2.2333	 2.2582	 0.0246	53.8902	99.9781	
   687	-1.0072	 2.4754	 1.4682	-1.2300	 2.5592	 1.3291	-1.4146	 2.3363	 0.9214	55.3924	99.9773	
   688	-0.3256	 2.2760	 1.9503	-0.5877	 2.1773	 1.5895	-0.9115	 1.8647	 0.9529	56.1973	99.9789	
   689	 0.0152	 2.1762	 2.1914	-0.1833	 2.2928	 2.1093	-0.1377	 2.1168	 1.9788	56.3976	99.9726	
   690	 0.0586	 2.0482	 2.1068	-0.3270	 1.8398	 1.5127	-0.8148	 1.5423	 0.7273	56.2030	99.9796	
   691	-0.5822	 1.8507	 1.2685	-0.9578	 1.5848	 0.6269	-1.4707	 1.2259	-0.2450	56.2703	99.9802	
   692	-0.4437	 1.9359	 1.4923	-0.6898	 1.7742	 1.0844	-0.9814	 1.5334	 0.5517	56.4218	99.9779	
   693	 0.2365	 2.2843	 2.5207	 0.1583	 2.2237	 2.3819	-0.0004	 1.9157	 1.9151	57.0567	99.9786	
   694	 1.1929	 2.5635	 3.7564	 1.0085	 2.5045	 3.5130	 0.6607	 2.2246	 2.8850	56.7140	99.9802	
   695	 1.7490	 2.7089	 4.4580	 1.4791	 2.5514	 4.0304	 0.9949	 2.3495	 3.3441	56.5222	99.9809	
   696	 1.8079	 2.5904	 4.3982	 1.4764	 2.6105	 4.0867	 1.0816	 2.3189	 3.4002	56.4577	99.9790	
   697	 1.1816	 2.2752	 3.4568	 0.9919	 2.2392	 3.2310	 0.6188	 2.0812	 2.6997	56.4599	99.9804	
   698	 1.0238	 2.2343	 3.2581	 0.9919	 2.2392	 3.2310	 0.7767	 1.9463	 2.7227	57.2560	99.9801	
   699	 1.2383	 2.3523	 3.5906	 1.1585	 2.3418	 3.5002	 0.8341	 2.1633	 2.9972	56.7380	99.9812	
   700	 1.1170	 2.4183	 3.5353	 1.1088	 2.4691	 3.5778	 0.9473	 2.2025	 3.1494	57.1571	99.9796	
   701	 1.3864	 2.4716	 3.8580	 1.1589	 2.4514	 3.6102	 0.7474	 2.1940	 2.9411	56.5043	99.9807	
   702	 1.2181	 2.3821	 3.6001	 0.9951	 2.2897	 3.2847	 0.5769	 1.9378	 2.5144	56.8920	99.9807	
   703	 1.0747	 2.3360	 3.4107	 0.8477	 2.1868	 3.0344	 0.2960	 1.9636	 2.2593	56.3944	99.9828	
   704	 0.9553	 2.4313	 3.3866	 0.7538	 2.3233	 3.0770	 0.3322	 2.1034	 2.4352	56.4695	99.9811	
   705	 1.1351	 2.5843	 3.7194	 0.9110	 2.4809	 3.3918	 0.4763	 2.2898	 2.7658	56.3119	99.9809	
   706	 1.1543	 2.6523	 3.8066	 0.9083	 2.5400	 3.4481	 0.4919	 2.3634	 2.8549	56.2588	99.9801	
   707	 1.0860	 2.6244	 3.7103	 0.7480	 2.5385	 3.2864	 0.2765	 2.2813	 2.5574	56.0869	99.9802	
   708	 0.5848	 2.3018	 2.8866	 0.1551	 2.1732	 2.3282	-0.2859	 1.8640	 1.5778	56.1476	99.9782	
   709	 0.1631	 2.5205	 2.6836	 0.2091	 2.7289	 2.9378	 0.1709	 2.6407	 2.8112	56.1300	99.9786	
   710	 1.1052	 2.6925	 3.7976	 0.9620	 2.6824	 3.6443	 0.4206	 2.4677	 2.8880	56.0044	99.9838	
   711	 0.5202	 2.4449	 2.9651	 0.3495	 2.4145	 2.7639	-0.0303	 2.1523	 2.1217	56.2941	99.9810	
   712	-0.0899	 2.3789	 2.2889	-0.4089	 2.3725	 1.9634	-0.7593	 2.1839	 1.4242	55.5394	99.9784	
   713	-0.4769	 2.4502	 1.9733	-0.7850	 2.5053	 1.7203	-1.0087	 2.2720	 1.2630	55.5298	99.9766	
   714	-0.5653	 2.3394	 1.7741	-0.9574	 2.4113	 1.4538	-1.1858	 2.1820	 0.9959	55.3215	99.9753	
   715	-0.5421	 2.2412	 1.6990	-0.8634	 2.2747	 1.4112	-1.0536	 1.9883	 0.9345	55.8538	99.9757	
   716	-0.3023	 2.0652	 1.7629	-0.4617	 1.9390	 1.4773	-0.5458	 1.5942	 1.0481	57.1690	99.9758	
   717	 0.1366	 1.9977	 2.1343	-0.0390	 1.8349	 1.7958	-0.3575	 1.5955	 1.2377	56.7651	99.9795	
   718	 0.2204	 1.9227	 2.1431	-0.1010	 1.6631	 1.5620	-0.4895	 1.4274	 0.9376	56.6651	99.9778	
   719	-0.1953	 1.8919	 1.6965	-0.1508	 1.5838	 1.4329	-0.5655	 1.1774	 0.6116	57.7094	99.9839	
   720	-0.5223	 1.6343	 1.1120	-0.6998	 1.3063	 0.6064	-1.0849	 0.8297	-0.2555	57.5615	99.9807	
   721	-0.3712	 1.6851	 1.3138	-0.5602	 1.4895	 0.9292	-0.7727	 1.0472	 0.2741	57.4910	99.9777	
   722	 0.0674	 1.9551	 2.0225	-0.1358	 1.8239	 1.6880	-0.3062	 1.4361	 1.1296	57.2919	99.9768	
   723	 0.6091	 2.1057	 2.7148	 0.2897	 1.8673	 2.1569	-0.0677	 1.3518	 1.2838	57.4812	99.9782	
   724	-0.0276	 1.6293	 1.6017	-0.6532	 1.3351	 0.6818	-1.2367	 0.8833	-0.3537	56.3643	99.9777	
   725	-1.1166	 2.1548	 1.0382	-1.4773	 2.3947	 0.9174	-1.9665	 2.4578	 0.4910	53.5234	99.9806	
   726	-1.0038	 2.8715	 1.8678	-1.1196	 3.1983	 2.0786	-1.3037	 3.1617	 1.8576	54.3051	99.9793	
   727	-0.2290	 2.8561	 2.6271	-0.3295	 3.0289	 2.6994	-0.4731	 2.7043	 2.2309	55.9139	99.9781	
   728	 0.4787	 2.6023	 3.0809	 0.4096	 2.6580	 3.0675	 0.1897	 2.3119	 2.5013	56.6841	99.9796	
   729	 0.7090	 2.2797	 2.9888	 0.5438	 2.2425	 2.7862	 0.2443	 1.7501	 1.9942	57.2619	99.9789	
   730	 0.1743	 1.8942	 2.0685	-0.0101	 1.6826	 1.6724	-0.4433	 1.2755	 0.8319	57.1608	99.9814	
   731	-0.5965	 1.7434	 1.1468	-0.8666	 1.5074	 0.6407	-1.3537	 1.0546	-0.2993	56.7628	99.9811	
   732	-1.0306	 1.7716	 0.7410	-1.2548	 1.5476	 0.2927	-1.7223	 1.1849	-0.5377	56.3866	99.9817	
   733	-0.8508	 1.9245	 1.0737	-1.0870	 1.7725	 0.6854	-1.4410	 1.3511	-0.0902	56.5539	99.9796	
   734	-0.7239	 2.0589	 1.3351	-1.0407	 1.8982	 0.8574	-1.5020	 1.4404	-0.0619	56.2728	99.9801	
   735	-0.7008	 2.0731	 1.3724	-1.0442	 1.9447	 0.9003	-1.5020	 1.4404	-0.0619	56.2659	99.9794	
   736	-0.5970	 2.1933	 1.5964	-0.9909	 1.9775	 0.9865	-1.5482	 1.5924	 0.0439	55.8573	99.9809	
   737	-0.4499	 2.4105	 1.9606	-0.9101	 2.2460	 1.3358	-1.5087	 1.7875	 0.2785	55.6350	99.9804	
   738	-0.4279	 2.5226	 2.0947	-0.9982	 2.3740	 1.3757	-1.6605	 1.8411	 0.1803	55.3691	99.9795	
   739	-0.6213	 2.5020	 1.8806	-1.2172	 2.2512	 1.0339	-2.0184	 1.6907	-0.3280	55.2743	99.9812	
   740	-0.8716	 2.5167	 1.6452	-1.4393	 2.2845	 0.8450	-2.1743	 1.6780	-0.4966	55.3999	99.9802	
   741	-0.8774	 2.5413	 1.6639	-1.3892	 2.2668	 0.8775	-2.2353	 1.7673	-0.4683	55.0961	99.9832	
   742	-0.9390	 2.6159	 1.6769	-1.5180	 2.3575	 0.8393	-2.2963	 1.8567	-0.4399	54.9784	99.9817	
   743	-1.0229	 2.6910	 1.6681	-1.6152	 2.4435	 0.8282	-2.4521	 1.8439	-0.6085	54.9632	99.9813	
   744	-1.1701	 2.6988	 1.5287	-1.7906	 2.5055	 0.7147	-2.5931	 1.8937	-0.6997	54.7818	99.9802	
   745	-1.2684	 2.7790	 1.5106	-1.9160	 2.5497	 0.6337	-2.7951	 2.0329	-0.7625	54.3030	99.9820	
   746	-1.3811	 2.8644	 1.4833	-2.0417	 2.6910	 0.6493	-2.8710	 2.0597	-0.8116	54.4184	99.9797	
   747	-1.4446	 2.9097	 1.4651	-2.1670	 2.7353	 0.5682	-3.0160	 2.0432	-0.9731	54.3427	99.9786	
   748	-1.4793	 2.9446	 1.4653	-2.1294	 2.7220	 0.5925	-3.0022	 2.1795	-0.8229	54.1401	99.9817	
   749	-1.4284	 3.0463	 1.6179	-2.0479	 2.7965	 0.7486	-2.9982	 2.2459	-0.7525	54.0953	99.9828	
   750	-1.5064	 3.0968	 1.5904	-2.2327	 2.9135	 0.6807	-3.1243	 2.3583	-0.7663	53.7557	99.9809	
   751	-1.5844	 3.1473	 1.5628	-2.3173	 2.9951	 0.6777	-3.2002	 2.3851	-0.8153	53.7467	99.9799	
   752	-1.6952	 3.2620	 1.5668	-2.4019	 3.0766	 0.6746	-3.3313	 2.5049	-0.8267	53.5554	99.9813	
   753	-1.7819	 3.2930	 1.5112	-2.5397	 3.1253	 0.5855	-3.4723	 2.5547	-0.9179	53.3211	99.9808	
   754	-1.9032	 3.3591	 1.4559	-2.7027	 3.1829	 0.4801	-3.6783	 2.6275	-1.0511	53.0091	99.9812	
   755	-2.0043	 3.3953	 1.3910	-2.8374	 3.2821	 0.4446	-3.7434	 2.6505	-1.0932	53.0428	99.9788	
   756	-1.9620	 3.4776	 1.5156	-2.7183	 3.3434	 0.6250	-3.6645	 2.7639	-0.9009	53.0139	99.9806	
   757	-2.0679	 3.4406	 1.3727	-2.8750	 3.2954	 0.4203	-3.8095	 2.7473	-1.0625	52.8392	99.9806	
   758	-2.1151	 3.5100	 1.3949	-2.9220	 3.3637	 0.4416	-3.8745	 2.7703	-1.1045	52.8502	99.9802	
   759	-2.2306	 3.5515	 1.3208	-3.1225	 3.4346	 0.3119	-4.0806	 2.8431	-1.2378	52.4780	99.9794	
   760	-2.3317	 3.5877	 1.2560	-3.2479	 3.4788	 0.2309	-4.2866	 2.9159	-1.3710	52.0698	99.9803	
   761	-2.4155	 3.6628	 1.2472	-3.2948	 3.5471	 0.2522	-4.2826	 2.9823	-1.3006	52.1927	99.9802	
   762	-2.5513	 3.7339	 1.1826	-3.4202	 3.5914	 0.1711	-4.4167	 2.9618	-1.4551	52.3116	99.9797	
   763	-2.6419	 3.8189	 1.1770	-3.5517	 3.7412	 0.1893	-4.5438	 3.1480	-1.3961	51.8624	99.9793	
   764	-2.5957	 3.8473	 1.2516	-3.4734	 3.7652	 0.2917	-4.4148	 3.1759	-1.2392	52.0571	99.9792	
   765	-2.5476	 3.9051	 1.3574	-3.4044	 3.8441	 0.4396	-4.3410	 3.2968	-1.0446	51.9428	99.9797	
   766	-2.6093	 3.9796	 1.3704	-3.4572	 3.9209	 0.4636	-4.4072	 3.3936	-1.0139	51.7942	99.9802	
   767	-2.7970	 4.0470	 1.2499	-3.6703	 3.9962	 0.3258	-4.6782	 3.4894	-1.1892	51.3858	99.9808	
   768	-2.9520	 4.0501	 1.0981	-3.8333	 4.0538	 0.2204	-4.7433	 3.5124	-1.2312	51.4452	99.9789	
   769	-3.0484	 4.1596	 1.1113	-3.8802	 4.1220	 0.2417	-4.9446	 3.6626	-1.2823	50.9820	99.9821	
   770	-3.1870	 4.1868	 0.9999	-4.1090	 4.1512	 0.0421	-5.0675	 3.5534	-1.5144	51.2700	99.9786	
   771	-3.2852	 4.2671	 0.9818	-4.1560	 4.2195	 0.0634	-5.1987	 3.6732	-1.5257	50.9871	99.9805	
   772	-3.3488	 4.3123	 0.9635	-4.3189	 4.2770	-0.0420	-5.3939	 3.7422	-1.6520	50.5620	99.9802	
   773	-3.3422	 4.4149	 1.0728	-4.2276	 4.4062	 0.1785	-5.2121	 3.9097	-1.3027	50.7344	99.9804	
   774	-3.2518	 4.5550	 1.3031	-4.1738	 4.5487	 0.3747	-5.1542	 4.0418	-1.1128	50.6467	99.9799	
   775	-3.2596	 4.6627	 1.4031	-4.2294	 4.6845	 0.4550	-5.2255	 4.1461	-1.0797	50.4407	99.9791	
   776	-3.3810	 4.7287	 1.3478	-4.3547	 4.7288	 0.3740	-5.4268	 4.2963	-1.1308	49.9328	99.9813	
   777	-3.4860	 4.8189	 1.3329	-4.4894	 4.8281	 0.3385	-5.5569	 4.3423	-1.2149	49.8701	99.9803	
   778	-3.7131	 4.8479	 1.1347	-4.7276	 4.9122	 0.1845	-5.7459	 4.3299	-1.4163	49.9111	99.9779	
   779	-3.9547	 4.8820	 0.9273	-4.8780	 4.9654	 0.0873	-6.0185	 4.5845	-1.4343	49.1188	99.9823	
   780	-4.0867	 5.0118	 0.9251	-5.0213	 5.1322	 0.1108	-6.0897	 4.6887	-1.4012	49.1661	99.9805	
   781	-4.1936	 5.0727	 0.8790	-5.1466	 5.1765	 0.0298	-6.1609	 4.7930	-1.3682	49.0392	99.9809	
   782	-4.2986	 5.1628	 0.8642	-5.2371	 5.2666	 0.0294	-6.3673	 4.9507	-1.4169	48.5176	99.9829	
   783	-4.3642	 5.2913	 0.9271	-5.2465	 5.3216	 0.0750	-6.3734	 5.0320	-1.3418	48.6568	99.9841	
   784	-4.2911	 5.3925	 1.1014	-5.1892	 5.4176	 0.2283	-6.2546	 5.0747	-1.1801	48.8913	99.9829	
   785	-4.2228	 5.4205	 1.1977	-5.2045	 5.4811	 0.2765	-6.3309	 5.1865	-1.1447	48.3697	99.9830	
   786	-4.4644	 5.4547	 0.9902	-5.3898	 5.4884	 0.0986	-6.5260	 5.2554	-1.2709	48.2264	99.9842	
   787	-4.4953	 5.5482	 1.0529	-5.4050	 5.5519	 0.1468	-6.6023	 5.3671	-1.2355	48.0000	99.9855	
   788	-4.5320	 5.6663	 1.1343	-5.4202	 5.6155	 0.1951	-6.7437	 5.5018	-1.2422	47.6194	99.9877	
   789	-4.4695	 5.7189	 1.2494	-5.4731	 5.6923	 0.2191	-6.7979	 5.5210	-1.2772	47.4322	99.9863	
   790	-4.6534	 5.7324	 1.0790	-5.6431	 5.6361	-0.0072	-6.9598	 5.4087	-1.5514	47.6782	99.9863	
   791	-4.8228	 5.7406	 0.9179	-5.8312	 5.7025	-0.1287	-7.1662	 5.5663	-1.6001	47.1094	99.9866	
   792	-4.8989	 5.8204	 0.9215	-5.8840	 5.7793	-0.1048	-7.1662	 5.5663	-1.6001	47.3947	99.9859	
   793	-4.9750	 5.9002	 0.9252	-5.9521	 5.9196	-0.0326	-7.3188	 5.7898	-1.5293	46.7611	99.9872	
   794	-4.9337	 5.9678	 1.0342	-5.8604	 5.9518	 0.0913	-7.1457	 5.8134	-1.3326	47.1691	99.9868	
   795	-4.8818	 6.0842	 1.2024	-5.8032	 6.0478	 0.2446	-7.1082	 5.9753	-1.1332	46.9843	99.9873	
   796	-4.9396	 6.1049	 1.1653	-5.9160	 6.0877	 0.1716	-7.2383	 6.0213	-1.2173	46.7021	99.9870	
   797	-5.1023	 6.2158	 1.1134	-6.0190	 6.1822	 0.1631	-7.3197	 6.1405	-1.1796	46.7104	99.9874	
   798	-5.2179	 6.2572	 1.0393	-6.1318	 6.2220	 0.0902	-7.5040	 6.2056	-1.2988	46.3924	99.9884	
   799	-5.3045	 6.2883	 0.9837	-6.2657	 6.3339	 0.0681	-7.6505	 6.3477	-1.3030	45.9050	99.9881	
   800	-5.3748	 6.3435	 0.9686	-6.3409	 6.3605	 0.0195	-7.7697	 6.3899	-1.3802	45.7424	99.9887	
   801	-5.4596	 6.4039	 0.9443	-6.4537	 6.4004	-0.0534	-7.8185	 6.3167	-1.5021	46.0684	99.9874	
   802	-5.5521	 6.4595	 0.9075	-6.5817	 6.5037	-0.0781	-8.0191	 6.4780	-1.5414	45.4565	99.9881	
   803	-5.6513	 6.5251	 0.8738	-6.6946	 6.5436	-0.1511	-8.1384	 6.5201	-1.6186	45.3639	99.9881	
   804	-5.6638	 6.5596	 0.8958	-6.6405	 6.5890	-0.0515	-8.0626	 6.6742	-1.3888	45.2599	99.9886	
   805	-5.4945	 6.6638	 1.1693	-6.5041	 6.7217	 0.2175	-7.9161	 6.8089	-1.1075	45.1749	99.9881	
   806	-5.5215	 6.7035	 1.1820	-6.5417	 6.7350	 0.1932	-7.9811	 6.8318	-1.1496	45.0825	99.9883	
   807	-5.6284	 6.7643	 1.1359	-6.6380	 6.8336	 0.1955	-8.1276	 6.9740	-1.1539	44.6870	99.9892	
   808	-5.7006	 6.7902	 1.0896	-6.7508	 6.8734	 0.1225	-8.2305	 6.9200	-1.3108	44.7443	99.9886	
   809	-5.7835	 6.8799	 1.0964	-6.8847	 6.9853	 0.1005	-8.2847	 6.9391	-1.3459	44.8809	99.9868	
   810	-5.9009	 6.8920	 0.9911	-7.0140	 6.9664	-0.0477	-8.4690	 7.0042	-1.4651	44.5069	99.9877	
   811	-6.0039	 6.8990	 0.8951	-7.1644	 7.0196	-0.1449	-8.6534	 7.0694	-1.5843	44.0957	99.9876	
   812	-6.1012	 6.9938	 0.8926	-7.2231	 7.1049	-0.1183	-8.7347	 7.1885	-1.5465	43.9594	99.9884	
   813	-6.1734	 7.0197	 0.8463	-7.3524	 7.0860	-0.2665	-8.8268	 7.1307	-1.6965	44.0511	99.9873	
   814	-6.1465	 7.0926	 0.9460	-7.2067	 7.1637	-0.0431	-8.7234	 7.3766	-1.3470	43.7994	99.9889	
   815	-5.9570	 7.1670	 1.2100	-6.9422	 7.1929	 0.2506	-8.5277	 7.4996	-1.0283	43.7755	99.9902	
   816	-5.9551	 7.1963	 1.2412	-6.9633	 7.2650	 0.3015	-8.4734	 7.4805	-0.9933	44.0046	99.9894	
   817	-5.8321	 7.3846	 1.5526	-6.8531	 7.4908	 0.6376	-8.2985	 7.7181	-0.5807	43.9832	99.9884	
   818	-5.8640	 7.5760	 1.7120	-6.8682	 7.7609	 0.8926	-8.3554	 8.1507	-0.2049	43.2226	99.9887	
   819	-5.9959	 7.5933	 1.5974	-6.9975	 7.7420	 0.7444	-8.4325	 7.9746	-0.4582	43.7204	99.9886	
   820	-6.2980	 7.4918	 1.1937	-7.2628	 7.7001	 0.4372	-8.6819	 8.0627	-0.6195	43.2713	99.9885	
   821	-6.4561	 7.7884	 1.3322	-7.3801	 8.0774	 0.6972	-8.9055	 8.6672	-0.2386	42.1262	99.9897	
   822	-6.5470	 8.2108	 1.6638	-7.3771	 8.6382	 1.2610	-9.0373	 9.5105	 0.4729	40.7770	99.9915	
   823	-6.2506	 8.2245	 1.9739	-7.1765	 8.5673	 1.3907	-8.7636	 9.1821	 0.4182	41.6753	99.9908	
   824	-6.1384	 7.6744	 1.5360	-6.9223	 7.7155	 0.7930	-8.4590	 8.0856	-0.3737	43.7983	99.9916	
   825	-6.0124	 6.7671	 0.7547	-6.7297	 6.8014	 0.0716	-7.9974	 6.9280	-1.0697	45.8091	99.9893	
   826	-5.7300	 6.3359	 0.6059	-6.4326	 6.3283	-0.1044	-7.6453	 6.6171	-1.0284	46.1091	99.9875	
   827	-5.2324	 6.3749	 1.1424	-6.1379	 6.5342	 0.3962	-7.3463	 6.8901	-0.4565	45.3565	99.9849	
   828	-5.0486	 6.3614	 1.3128	-5.9287	 6.3957	 0.4669	-7.1948	 6.7405	-0.4546	45.7244	99.9854	
   829	-5.1293	 6.2554	 1.1261	-5.8398	 6.4870	 0.6471	-6.9229	 6.9326	 0.0094	45.8596	99.9851	
   830	-5.5769	 6.3035	 0.7266	-6.3008	 6.5917	 0.2908	-7.4979	 7.0397	-0.4585	45.1236	99.9876	
   831	-5.6472	 6.3587	 0.7115	-5.9948	 6.6709	 0.6760	-7.0130	 7.3657	 0.3523	45.7154	99.9874	
   832	-4.4296	 6.2219	 1.7923	-4.8615	 6.4578	 1.5962	-5.9170	 7.0858	 1.1685	46.5603	99.9866	
   833	-3.7652	 5.9836	 2.2184	-4.3107	 6.4569	 2.1461	-5.3750	 7.5328	 2.1576	45.2250	99.9795	
   834	-3.2235	 6.1342	 2.9107	-3.9452	 6.4634	 2.5181	-5.1558	 7.1277	 1.9715	45.9957	99.9853	
   835	-3.7654	 6.0961	 2.3308	-4.4354	 6.3072	 1.8718	-5.6351	 6.9862	 1.3508	46.0835	99.9844	
   836	-4.0522	 6.1165	 2.0643	-4.8377	 6.3267	 1.4889	-5.8806	 6.8638	 0.9830	46.3330	99.9810	
   837	-3.9907	 6.2669	 2.2762	-4.7738	 6.4268	 1.6529	-5.8203	 6.9443	 1.1237	46.4453	99.9808	
   838	-3.8666	 6.2449	 2.3783	-4.5904	 6.4912	 1.9006	-5.7266	 7.1202	 1.3933	45.9961	99.9833	
   839	-3.9024	 6.4901	 2.5877	-4.6326	 6.6352	 2.0025	-5.7423	 7.2275	 1.4849	46.2053	99.9818	
   840	-4.0053	 6.3846	 2.3793	-4.8035	 6.5664	 1.7629	-5.9435	 7.1969	 1.2531	45.8014	99.9810	
   841	-4.3286	 6.2981	 1.9695	-5.0080	 6.5741	 1.5660	-6.0085	 7.2198	 1.2110	46.0006	99.9811	
   842	-4.0362	 6.4781	 2.4419	-4.6181	 6.7657	 2.1475	-5.4802	 7.3496	 1.8691	46.7247	99.9808	
   843	-3.6965	 6.5887	 2.8922	-4.2651	 6.7766	 2.5114	-5.2991	 7.5060	 2.2066	46.3937	99.9810	
   844	-3.6048	 6.2934	 2.6886	-4.2817	 6.5112	 2.2295	-5.2110	 7.0398	 1.8285	47.0043	99.9805	
   845	-3.7182	 6.1392	 2.4210	-4.1933	 6.2863	 2.0929	-5.1953	 6.9325	 1.7369	47.2078	99.9830	
   846	-3.6440	 6.0301	 2.3861	-4.1722	 6.2142	 2.0420	-5.1038	 6.7985	 1.6944	47.4102	99.9820	
   847	-3.6208	 5.9318	 2.3110	-4.1483	 6.0831	 1.9347	-4.9915	 6.5497	 1.5580	48.0340	99.9814	
   848	-3.5138	 5.7585	 2.2447	-4.0810	 5.9302	 1.8490	-4.9809	 6.4499	 1.4687	47.8051	99.9813	
   849	-3.5407	 5.6857	 2.1450	-4.0948	 5.8123	 1.7174	-4.9496	 6.2354	 1.2856	48.2979	99.9815	
   850	-3.4993	 5.6408	 2.1415	-3.9695	 5.7680	 1.7985	-4.8134	 6.2890	 1.4753	48.3245	99.9812	
   851	-3.0353	 5.6169	 2.5815	-3.4669	 5.7132	 2.2462	-4.2219	 6.1818	 1.9596	49.0795	99.9801	
   852	-2.7321	 5.5081	 2.7760	-3.1825	 5.5481	 2.3655	-3.8918	 5.9634	 2.0713	49.6314	99.9786	
   853	-2.5153	 5.3179	 2.8026	-2.9918	 5.4226	 2.4307	-3.7243	 5.8025	 2.0779	49.6853	99.9801	
   854	-2.4017	 5.2472	 2.8455	-2.7925	 5.2295	 2.4369	-3.5511	 5.6453	 2.0938	50.1259	99.9801	
   855	-2.2986	 5.1277	 2.8292	-2.6809	 5.0674	 2.3864	-3.3782	 5.3920	 2.0136	50.7254	99.9797	
   856	-2.2600	 5.0389	 2.7789	-2.6723	 4.9998	 2.3273	-3.3784	 5.2961	 1.9173	50.7326	99.9801	
   857	-2.1194	 4.9285	 2.8091	-2.4789	 4.8152	 2.3362	-3.2106	 5.0503	 1.8394	51.2623	99.9817	
   858	-1.9403	 4.8418	 2.9015	-2.3410	 4.7665	 2.4253	-2.8853	 4.9354	 2.0498	51.7910	99.9778	
   859	-1.3743	 4.7962	 3.4219	-1.7158	 4.7264	 3.0105	-2.4023	 5.0473	 2.6446	51.5665	99.9799	
   860	-1.0132	 4.6667	 3.6535	-1.4189	 4.5569	 3.1379	-2.1424	 4.8594	 2.7167	51.7667	99.9792	
   861	-0.8899	 4.5175	 3.6277	-1.3132	 4.4033	 3.0900	-2.0613	 4.6442	 2.5827	51.9935	99.9804	
   862	-0.7973	 4.3494	 3.5521	-1.2393	 4.2545	 3.0151	-1.8171	 4.2867	 2.4693	52.9264	99.9792	
   863	-0.7029	 4.2106	 3.5077	-1.2338	 4.1363	 2.9024	-1.8225	 4.1982	 2.3754	52.7277	99.9775	
   864	-0.6748	 4.0731	 3.3982	-1.2284	 4.0182	 2.7897	-1.7407	 3.9941	 2.2532	53.1020	99.9765	
   865	-0.6689	 3.9360	 3.2671	-1.2105	 3.8956	 2.6850	-1.9087	 3.9631	 2.0541	52.5610	99.9802	
   866	-0.5765	 3.8803	 3.3039	-1.0726	 3.8469	 2.7742	-1.4966	 3.8175	 2.3206	53.5324	99.9758	
   867	-0.0846	 3.8314	 3.7468	-0.4513	 3.7436	 3.2922	-1.0576	 3.7528	 2.6949	53.7522	99.9812	
   868	 0.1648	 3.6895	 3.8543	-0.1979	 3.5960	 3.3980	-0.8894	 3.6030	 2.7132	53.8218	99.9829	
   869	 0.2487	 3.5019	 3.7507	-0.1984	 3.4863	 3.2879	-0.8999	 3.5219	 2.6217	53.5207	99.9821	
   870	 0.2354	 3.4093	 3.6446	-0.1428	 3.3505	 3.2076	-0.7473	 3.2985	 2.5509	54.2355	99.9816	
   871	 0.2576	 3.2963	 3.5539	-0.1934	 3.2586	 3.0651	-0.6814	 3.1057	 2.4239	54.6039	99.9788	
   872	 0.2856	 3.1588	 3.4445	-0.1880	 3.1404	 2.9523	-0.7786	 3.0552	 2.2763	54.2287	99.9802	
   873	 0.2867	 3.0610	 3.3477	-0.2260	 3.0441	 2.8179	-0.7178	 2.8699	 2.1518	54.6301	99.9780	
   874	 0.4253	 3.0337	 3.4591	-0.0376	 3.0873	 3.0496	-0.4316	 2.9327	 2.5007	54.7932	99.9771	
   875	 0.8363	 2.9913	 3.8276	 0.3984	 2.9913	 3.3897	-0.0742	 2.8911	 2.8166	54.9216	99.9784	
   876	 0.9327	 2.8818	 3.8145	 0.4982	 2.8463	 3.3444	-0.0847	 2.8101	 2.7251	54.7513	99.9800	
   877	 0.9319	 2.7546	 3.6865	 0.4978	 2.7367	 3.2344	-0.0239	 2.6247	 2.6005	55.0983	99.9794	
   878	 0.9416	 2.6762	 3.6177	 0.5600	 2.6049	 3.1648	 0.0318	 2.4468	 2.4783	55.4936	99.9803	
   879	 0.9156	 2.6180	 3.5336	 0.5537	 2.5038	 3.0574	 0.0163	 2.3732	 2.3892	55.5756	99.9804	
   880	 0.9167	 2.5201	 3.4368	 0.5063	 2.4624	 2.9686	-0.0860	 2.3302	 2.2439	55.2900	99.9810	
   881	 0.8484	 2.4922	 3.3405	 0.4999	 2.3613	 2.8612	-0.0860	 2.3302	 2.2439	55.3388	99.9808	
   882	 1.0553	 2.4929	 3.5482	 0.7444	 2.3783	 3.1226	 0.2765	 2.2813	 2.5574	55.8810	99.9796	
   883	 1.3095	 2.4243	 3.7337	 0.9422	 2.3665	 3.3087	 0.4608	 2.2161	 2.6766	55.9052	99.9796	
   884	 1.3066	 2.3803	 3.6869	 0.9450	 2.3074	 3.2523	 0.3632	 2.2506	 2.6135	55.5443	99.9810	
   885	 1.3308	 2.2967	 3.6274	 0.9418	 2.2569	 3.1986	 0.4344	 2.1463	 2.5805	55.7538	99.9796	
   886	 1.3202	 2.2480	 3.5682	 0.9386	 2.2063	 3.1449	 0.4189	 2.0727	 2.4913	55.8311	99.9801	
   887	 1.3029	 2.2092	 3.5121	 0.8853	 2.1735	 3.0587	 0.4034	 1.9991	 2.4022	55.9375	99.9790	
   888	 1.2693	 2.1463	 3.4156	 0.8947	 2.1185	 3.0131	 0.3166	 2.0297	 2.3461	55.6166	99.9811	
   889	 1.2462	 2.1321	 3.3783	 0.9417	 2.0503	 2.9919	 0.4034	 1.9991	 2.4022	55.8740	99.9809	
   890	 1.5369	 2.1703	 3.7071	 1.2019	 2.1133	 3.3151	 0.7055	 2.0506	 2.7558	55.9884	99.9798	
   891	 1.6235	 2.1392	 3.7627	 1.3021	 2.0779	 3.3799	 0.7055	 2.0506	 2.7558	55.8015	99.9817	
   892	 1.6062	 2.1004	 3.7066	 1.2990	 2.0274	 3.3262	 0.7767	 1.9463	 2.7227	56.1567	99.9807	
   893	 1.5976	 2.0810	 3.6786	 1.2488	 2.0451	 3.2938	 0.6900	 1.9770	 2.6666	55.8834	99.9809	
   894	 1.6015	 2.0271	 3.6286	 1.2958	 1.9768	 3.2725	 0.6900	 1.9770	 2.6666	55.7750	99.9820	
   895	 1.5495	 2.0233	 3.5728	 1.2300	 1.9484	 3.1783	 0.6744	 1.9033	 2.5775	55.9988	99.9809	
   896	 1.5264	 2.0091	 3.5355	 1.1798	 1.9661	 3.1459	 0.6744	 1.9033	 2.5775	56.0057	99.9798	
   897	 1.6217	 1.9974	 3.6191	 1.2990	 2.0274	 3.3262	 0.8031	 2.0161	 2.8189	55.8148	99.9801	
   898	 1.8315	 2.0421	 3.8736	 1.5058	 2.0576	 3.5633	 1.0029	 2.0246	 3.0272	55.9653	99.9802	
   899	 1.8084	 2.0279	 3.8363	 1.5528	 1.9893	 3.5421	 1.0029	 2.0246	 3.0272	55.9722	99.9814	
   900	 1.8142	 2.0033	 3.8175	 1.5027	 2.0071	 3.5096	 1.0029	 2.0246	 3.0272	55.9172	99.9799	
   901	 1.8142	 2.0033	 3.8175	 1.5027	 2.0071	 3.5096	 1.0029	 2.0246	 3.0272	55.9172	99.9799	
   902	 1.8056	 1.9839	 3.7895	 1.4525	 2.0248	 3.4772	 0.9054	 2.0591	 2.9641	55.6139	99.9803	
   903	 1.7334	 2.0098	 3.7432	 1.4024	 2.0425	 3.4448	 0.9054	 2.0591	 2.9641	55.7692	99.9798	
   904	 1.7170	 1.9857	 3.7027	 1.4024	 2.0425	 3.4448	 0.9054	 2.0591	 2.9641	55.7475	99.9802	
   905	 1.8835	 2.0460	 3.9294	 1.6191	 2.1274	 3.7464	 1.1424	 2.1335	 3.2757	55.8991	99.9808	
   906	 2.0009	 2.0338	 4.0347	 1.7194	 2.0919	 3.8112	 1.1579	 2.2072	 3.3648	55.5518	99.9812	
   907	 1.9287	 2.0597	 3.9884	 1.6692	 2.1097	 3.7788	 1.0712	 2.2378	 3.3087	55.4590	99.9822	
   908	 1.9287	 2.0597	 3.9884	 1.6692	 2.1097	 3.7788	 1.1579	 2.2072	 3.3648	55.7063	99.9807	
   909	 1.9287	 2.0597	 3.9884	 1.6223	 2.1779	 3.8001	 1.0712	 2.2378	 3.3087	55.4590	99.9815	
   910	 1.9124	 2.0356	 3.9480	 1.5564	 2.1495	 3.7058	 1.0712	 2.2378	 3.3087	55.4377	99.9790	
   911	 1.8690	 2.0511	 3.9202	 1.5094	 2.2178	 3.7271	 1.0712	 2.2378	 3.3087	55.5305	99.9789	
   912	 1.8651	 2.1050	 3.9701	 1.6724	 2.1602	 3.8325	 1.1080	 2.3887	 3.4964	55.3364	99.9816	
   913	 2.0663	 2.1303	 4.1966	 1.7856	 2.2300	 4.0155	 1.3032	 2.3197	 3.6226	55.6444	99.9801	
   914	 2.0374	 2.1407	 4.1781	 1.7230	 2.2521	 3.9750	 1.2269	 2.4314	 3.6580	55.2796	99.9790	
   915	 2.0432	 2.1161	 4.1593	 1.7230	 2.2521	 3.9750	 1.1293	 2.4659	 3.5949	54.9469	99.9809	
   916	 2.0229	 2.1459	 4.1688	 1.6760	 2.3204	 3.9963	 1.1293	 2.4659	 3.5949	55.0323	99.9805	
   917	 1.9940	 2.1562	 4.1503	 1.6760	 2.3204	 3.9963	 1.1293	 2.4659	 3.5949	55.0942	99.9809	
   918	 1.9449	 2.1964	 4.1413	 1.5789	 2.4064	 3.9851	 1.0530	 2.5776	 3.6303	54.8149	99.9798	
   919	 1.9247	 2.2261	 4.1508	 1.6290	 2.3886	 4.0176	 1.1506	 2.5432	 3.6934	55.1782	99.9798	
   920	 2.1566	 2.2704	 4.4270	 1.9025	 2.4599	 4.3623	 1.2036	 2.7787	 3.9820	54.4461	99.9836	
   921	 2.2230	 2.2691	 4.4921	 1.8497	 2.5367	 4.3863	 1.2036	 2.7787	 3.9820	54.3452	99.9819	
   922	 2.1305	 2.3247	 4.4553	 1.8497	 2.5367	 4.3863	 1.2036	 2.7787	 3.9820	54.5852	99.9830	
   923	 2.1508	 2.2950	 4.4457	 1.7995	 2.5544	 4.3539	 1.2036	 2.7787	 3.9820	54.5002	99.9813	
   924	 2.1305	 2.3247	 4.4553	 1.7995	 2.5544	 4.3539	 1.1273	 2.8904	 4.0174	54.1602	99.9820	
   925	 2.0872	 2.3402	 4.4275	 1.7526	 2.6227	 4.3751	 1.1273	 2.8904	 4.0174	54.2532	99.9820	
   926	 2.0381	 2.3804	 4.4184	 1.7024	 2.6404	 4.3427	 1.1273	 2.8904	 4.0174	54.4001	99.9810	
   927	 2.1728	 2.4070	 4.5798	 1.8599	 2.7010	 4.5608	 1.2624	 3.0179	 4.2799	54.2087	99.9815	
   928	 2.2931	 2.4388	 4.7319	 1.9700	 2.7202	 4.6902	 1.1810	 3.1370	 4.3177	53.6364	99.9841	
   929	 2.2614	 2.4052	 4.6666	 1.9226	 2.6789	 4.6014	 1.1648	 3.0524	 4.2168	53.7949	99.9836	
   930	 2.1728	 2.4070	 4.5798	 1.9128	 2.6242	 4.5369	 1.1648	 3.0524	 4.2168	53.9302	99.9836	
   931	 2.1353	 2.3980	 4.5333	 1.8125	 2.6596	 4.4720	 1.1435	 2.9751	 4.1183	54.1144	99.9825	
   932	 2.0689	 2.3993	 4.4682	 1.6997	 2.6995	 4.3991	 1.0459	 3.0096	 4.0552	53.9364	99.9818	
   933	 2.0111	 2.4200	 4.4311	 1.6496	 2.7172	 4.3667	 1.0459	 3.0096	 4.0552	54.0606	99.9811	
   934	 1.9967	 2.4252	 4.4219	 1.6496	 2.7172	 4.3667	 0.9483	 3.0441	 3.9921	53.8120	99.9829	
   935	 1.9245	 2.4511	 4.3756	 1.5368	 2.7571	 4.2937	 0.9483	 3.0441	 3.9921	53.9675	99.9805	
   936	 1.8522	 2.4770	 4.3292	 1.4866	 2.7748	 4.2613	 0.8507	 3.0785	 3.9290	53.8432	99.9816	
   937	 1.7781	 2.4736	 4.2517	 1.3765	 2.7555	 4.1320	 0.7640	 3.1092	 3.8729	53.6987	99.9798	
   938	 1.7059	 2.4995	 4.2054	 1.3264	 2.7733	 4.0996	 0.7478	 3.0245	 3.7720	54.0278	99.9805	
   939	 1.6251	 2.5060	 4.1311	 1.2261	 2.8087	 4.0347	 0.5688	 3.1782	 3.7467	53.4266	99.9809	
   940	 1.5817	 2.5215	 4.1033	 1.1760	 2.8264	 4.0023	 0.5526	 3.0935	 3.6458	53.6933	99.9811	
   941	 1.5384	 2.5371	 4.0755	 1.1231	 2.9032	 4.0262	 0.4712	 3.2126	 3.6836	53.3328	99.9817	
   942	 1.6154	 2.5844	 4.1998	 1.2207	 2.9268	 4.1474	 0.6063	 3.3401	 3.9461	53.2691	99.9799	
   943	 1.8126	 2.6636	 4.4762	 1.4969	 2.9390	 4.4358	 0.7093	 3.3941	 4.1031	53.1950	99.9838	
   944	 1.7693	 2.6792	 4.4485	 1.4468	 2.9568	 4.4034	 0.7093	 3.3941	 4.1031	53.2886	99.9829	
   945	 1.6971	 2.7051	 4.4022	 1.3841	 2.9789	 4.3629	 0.6117	 3.4286	 4.0400	53.1638	99.9836	
   946	 1.7173	 2.6753	 4.3926	 1.3340	 2.9966	 4.3305	 0.5303	 3.5478	 4.0778	52.6265	99.9823	
   947	 1.6393	 2.7258	 4.3651	 1.2838	 3.0143	 4.2981	 0.6117	 3.4286	 4.0400	53.2886	99.9814	
   948	 1.6162	 2.7116	 4.3278	 1.2337	 3.0320	 4.2656	 0.5249	 3.4592	 3.9839	53.0477	99.9818	
   949	 1.5729	 2.7271	 4.3000	 1.1710	 3.0542	 4.2251	 0.5249	 3.4592	 3.9839	53.1414	99.9805	
   950	 1.6459	 2.8284	 4.4743	 1.3411	 3.1103	 4.4513	 0.5627	 3.7171	 4.2795	52.6725	99.9818	
   951	 1.7210	 2.8464	 4.5674	 1.3885	 3.1517	 4.5401	 0.5627	 3.7171	 4.2795	52.5916	99.9833	
   952	 1.6488	 2.8723	 4.5211	 1.3384	 3.1694	 4.5077	 0.4651	 3.7516	 4.2164	52.4663	99.9844	
   953	 1.6546	 2.8478	 4.5024	 1.3411	 3.1103	 4.4513	 0.4651	 3.7516	 4.2164	52.4130	99.9831	
   954	 1.6257	 2.8581	 4.4838	 1.2882	 3.1871	 4.4753	 0.4651	 3.7516	 4.2164	52.4756	99.9835	
   955	 1.5824	 2.8737	 4.4560	 1.1754	 3.2270	 4.4023	 0.3675	 3.7861	 4.1533	52.2875	99.9823	
   956	 1.5102	 2.8996	 4.4097	 1.1781	 3.1679	 4.3459	 0.2808	 3.8167	 4.0972	52.1932	99.9832	
   957	 1.4813	 2.9099	 4.3912	 1.1754	 3.2270	 4.4023	 0.2810	 3.9127	 4.1935	52.0276	99.9837	
   958	 1.6468	 2.9555	 4.6023	 1.3858	 3.2108	 4.5965	 0.5738	 3.8093	 4.3828	52.7037	99.9832	
   959	 1.6757	 2.9452	 4.6208	 1.3356	 3.2285	 4.5641	 0.3948	 3.9629	 4.3574	51.9084	99.9828	
   960	 1.5871	 2.9469	 4.5341	 1.2354	 3.2639	 4.4992	 0.3786	 3.8782	 4.2566	52.2154	99.9831	
   961	 1.5351	 2.9431	 4.4782	 1.2256	 3.2093	 4.4347	 0.2810	 3.9127	 4.1935	52.0051	99.9837	
   962	 1.4340	 2.9793	 4.4134	 1.1253	 3.2447	 4.3699	 0.2808	 3.8167	 4.0972	52.4539	99.9836	
   963	 1.3802	 2.9462	 4.3264	 1.0125	 3.2846	 4.2969	 0.1832	 3.8512	 4.0341	52.1932	99.9832	
   964	 1.3408	 2.9078	 4.2486	 0.9149	 3.2609	 4.1757	 0.1670	 3.7665	 3.9332	52.3534	99.9814	
   965	 1.3369	 2.9617	 4.2986	 0.9623	 3.3023	 4.2645	 0.2808	 3.8167	 4.0972	52.5695	99.9805	
   966	 1.4879	 3.0125	 4.5004	 1.1825	 3.3407	 4.5232	 0.2972	 3.9974	 4.2943	52.0340	99.9841	
   967	 1.5024	 3.0073	 4.5097	 1.1727	 3.2861	 4.4587	 0.2810	 3.9127	 4.1935	52.1713	99.9836	
   968	 1.4427	 2.9987	 4.4414	 1.0724	 3.3215	 4.3938	 0.1943	 3.9434	 4.1374	51.9954	99.9833	
   969	 1.4052	 2.9897	 4.3949	 1.0223	 3.3392	 4.3614	 0.1943	 3.9434	 4.1374	52.0365	99.9825	
   970	 1.3330	 3.0156	 4.3486	 0.9596	 3.3614	 4.3209	 0.1832	 3.8512	 4.0341	52.3911	99.9831	
   971	 1.2877	 3.0018	 4.2896	 0.9122	 3.3200	 4.2321	 0.1832	 3.8512	 4.0341	52.4350	99.9811	
   972	 1.2607	 3.0415	 4.3022	 0.9122	 3.3200	 4.2321	-0.0009	 4.0123	 4.0111	51.7846	99.9828	
   973	 1.2694	 3.0609	 4.3303	 0.9596	 3.3614	 4.3209	 0.0153	 4.0970	 4.1120	51.6382	99.9837	
   974	 1.4435	 3.1259	 4.5694	 1.1297	 3.4175	 4.5471	 0.2108	 4.1240	 4.3345	51.8271	99.9834	
   975	 1.4454	 3.1552	 4.6006	 1.1798	 3.3998	 4.5795	 0.2108	 4.1240	 4.3345	51.8769	99.9845	
   976	 1.4146	 3.1362	 4.5509	 1.1297	 3.4175	 4.5471	 0.1243	 4.2506	 4.3746	51.4112	99.9835	
   977	 1.3713	 3.1518	 4.5231	 1.0169	 3.4574	 4.4742	 0.1132	 4.1585	 4.2714	51.7012	99.9826	
   978	 1.3482	 3.1376	 4.4858	 0.9667	 3.4751	 4.4417	 0.0264	 4.1891	 4.2153	51.4589	99.9832	
   979	 1.2905	 3.1583	 4.4488	 0.9667	 3.4751	 4.4417	 0.0264	 4.1891	 4.2153	51.5851	99.9840	
   980	 1.2558	 3.1932	 4.4490	 0.9166	 3.4928	 4.4093	-0.0711	 4.2236	 4.1522	51.4172	99.9843	
   981	 1.2269	 3.2036	 4.4305	 0.9166	 3.4928	 4.4093	-0.1576	 4.3502	 4.1923	51.0006	99.9843	
   982	 1.1999	 3.2433	 4.4432	 0.8579	 3.5781	 4.4359	-0.0600	 4.3158	 4.2554	51.3978	99.9830	
   983	 1.3452	 3.3186	 4.6638	 1.0655	 3.6210	 4.6864	 0.0489	 4.4694	 4.5180	51.1716	99.9839	
   984	 1.4279	 3.3414	 4.7693	 1.1255	 3.6579	 4.7833	 0.1465	 4.4349	 4.5811	51.3684	99.9841	
   985	 1.3759	 3.3376	 4.7135	 1.1157	 3.6033	 4.7189	 0.0489	 4.4694	 4.5180	51.1580	99.9845	
   986	 1.3452	 3.3186	 4.6638	 1.0154	 3.6387	 4.6540	-0.0487	 4.5039	 4.4549	50.8874	99.9840	
   987	 1.2730	 3.3445	 4.6175	 0.9653	 3.6564	 4.6216	-0.0487	 4.5039	 4.4549	51.0454	99.9835	
   988	 1.2065	 3.3458	 4.5524	 0.8525	 3.6963	 4.5487	-0.0598	 4.4117	 4.3517	51.3448	99.9833	
   989	 1.1488	 3.3665	 4.5153	 0.8552	 3.6372	 4.4923	-0.1465	 4.4424	 4.2956	51.2186	99.9837	
   990	 1.1324	 3.3424	 4.4749	 0.8050	 3.6549	 4.4599	-0.1465	 4.4424	 4.2956	51.2006	99.9829	
   991	 1.0602	 3.3683	 4.4285	 0.6922	 3.6948	 4.3869	-0.2441	 4.4769	 4.2325	51.0742	99.9821	
   992	 1.0313	 3.3787	 4.4100	 0.6922	 3.6948	 4.3869	-0.3417	 4.5113	 4.1693	50.8525	99.9841	
   993	 0.9841	 3.4481	 4.4322	 0.6895	 3.7539	 4.4433	-0.2330	 4.5690	 4.3357	51.1401	99.9822	
   994	 1.1910	 3.4489	 4.6399	 0.9124	 3.7332	 4.6455	-0.1402	 4.6379	 4.4974	50.8521	99.9834	
   995	 1.1641	 3.4885	 4.6526	 0.8537	 3.8186	 4.6722	-0.1402	 4.6379	 4.4974	50.9645	99.9838	
   996	 1.1333	 3.4696	 4.6028	 0.7996	 3.7731	 4.5726	-0.2378	 4.6724	 4.4343	50.6939	99.9824	
   997	 1.0813	 3.4657	 4.5470	 0.7495	 3.7908	 4.5402	-0.2330	 4.5690	 4.3357	51.0213	99.9839	
   998	 1.0380	 3.4813	 4.5192	 0.6367	 3.8307	 4.4672	-0.3306	 4.6035	 4.2726	50.8313	99.9827	
   999	 0.9860	 3.4774	 4.4634	 0.6394	 3.7716	 4.4109	-0.3306	 4.6035	 4.2726	50.9051	99.9818	
  1000	 0.9408	 3.4636	 4.4044	 0.5391	 3.8070	 4.3460	-0.4282	 4.6379	 4.2095	50.6656	99.9815	
  1001	 0.8705	 3.5188	 4.3893	 0.4890	 3.8247	 4.3136	-0.5257	 4.6724	 4.1464	50.5879	99.9822	
  1002	 0.8127	 3.5396	 4.3523	 0.4890	 3.8247	 4.3136	-0.5257	 4.6724	 4.1464	50.7149	99.9829	
  1003	 0.7925	 3.5693	 4.3618	 0.4361	 3.9015	 4.3375	-0.5197	 4.7720	 4.2520	50.5778	99.9812	
  1004	 0.9435	 3.6201	 4.5636	 0.6379	 3.9529	 4.5907	-0.4161	 4.8371	 4.4207	50.4970	99.9842	
  1005	 0.9868	 3.6046	 4.5914	 0.6379	 3.9529	 4.5907	-0.4161	 4.8371	 4.4207	50.4018	99.9836	
  1006	 0.9146	 3.6305	 4.5451	 0.5251	 3.9928	 4.5178	-0.5137	 4.8716	 4.3576	50.2747	99.9829	
  1007	 0.8424	 3.6563	 4.4988	 0.4750	 4.0105	 4.4854	-0.5137	 4.8716	 4.3576	50.4336	99.9823	
  1008	 0.8424	 3.6563	 4.4988	 0.4750	 4.0105	 4.4854	-0.5137	 4.8716	 4.3576	50.4336	99.9823	
  1009	 0.7991	 3.6719	 4.4710	 0.4248	 4.0282	 4.4529	-0.6113	 4.9061	 4.2945	50.2429	99.9830	
  1010	 0.7288	 3.7271	 4.4559	 0.3747	 4.0459	 4.4205	-0.6113	 4.9061	 4.2945	50.4509	99.9820	
  1011	 0.6710	 3.7478	 4.4188	 0.3246	 4.0636	 4.3881	-0.7089	 4.9405	 4.2314	50.2920	99.9829	
  1012	 0.6547	 3.7237	 4.3784	 0.2744	 4.0813	 4.3557	-0.7956	 4.9712	 4.1753	50.0199	99.9836	
  1013	 0.6277	 3.7634	 4.3910	 0.2157	 4.1667	 4.3823	-0.7953	 5.0672	 4.2715	49.9088	99.9821	
  1014	 0.7499	 3.8245	 4.5744	 0.4175	 4.2181	 4.6355	-0.5941	 5.0978	 4.5034	50.1778	99.9838	
  1015	 0.8307	 3.8180	 4.6487	 0.4676	 4.2004	 4.6679	-0.6908	 5.2393	 4.5482	49.5059	99.9833	
  1016	 0.7788	 3.8141	 4.5929	 0.3548	 4.2402	 4.5949	-0.6917	 5.1323	 4.4402	49.8281	99.9832	
  1017	 0.7210	 3.8349	 4.5558	 0.3047	 4.2579	 4.5625	-0.6917	 5.1323	 4.4402	49.9555	99.9824	
  1018	 0.7046	 3.8107	 4.5154	 0.2631	 4.2080	 4.4711	-0.7893	 5.1667	 4.3771	49.6518	99.9812	
  1019	 0.6036	 3.8470	 4.4505	 0.2130	 4.2257	 4.4386	-0.8869	 5.2012	 4.3140	49.5879	99.9827	
  1020	 0.5602	 3.8625	 4.4227	 0.1629	 4.2435	 4.4062	-0.9736	 5.2319	 4.2579	49.4280	99.9832	
  1021	 0.4938	 3.8638	 4.3577	-0.0001	 4.3010	 4.3008	-0.9797	 5.1323	 4.1523	49.7549	99.9817	
  1022	 0.4197	 3.8604	 4.2801	-0.0475	 4.2597	 4.2121	-1.0772	 5.1668	 4.0892	49.5780	99.9813	
  1023	 0.3533	 3.8618	 4.2151	-0.0977	 4.2774	 4.1796	-1.1640	 5.1974	 4.0331	49.4293	99.9826	
  1024	 0.4447	 3.9040	 4.3486	 0.0415	 4.3509	 4.3923	-0.8869	 5.2012	 4.3140	49.9385	99.9820	
  1025	 0.5582	 3.9457	 4.5039	 0.1543	 4.3111	 4.4652	-0.8860	 5.3083	 4.4220	49.5864	99.9802	
  1026	 0.5419	 3.9216	 4.4635	 0.1543	 4.3111	 4.4652	-0.9835	 5.3427	 4.3589	49.2823	99.9827	
  1027	 0.4408	 3.9578	 4.3986	-0.0087	 4.3686	 4.3599	-1.0712	 5.2664	 4.1948	49.4972	99.9828	
  1028	 0.3888	 3.9540	 4.3428	-0.1089	 4.4041	 4.2950	-1.1688	 5.3008	 4.1317	49.2843	99.9825	
  1029	 0.3580	 3.9350	 4.2931	-0.0502	 4.3187	 4.2684	-1.1688	 5.3008	 4.1317	49.2998	99.9828	
  1030	 0.3310	 3.9747	 4.3057	-0.1591	 4.4218	 4.2626	-1.1688	 5.3008	 4.1317	49.4126	99.9818	
  1031	 0.3022	 3.9851	 4.2872	-0.1591	 4.4218	 4.2626	-1.2555	 5.3315	 4.0756	49.2201	99.9836	
  1032	 0.2530	 4.0252	 4.2782	-0.1591	 4.4218	 4.2626	-1.3522	 5.4730	 4.1205	48.8330	99.9833	
  1033	 0.2116	 4.0700	 4.2816	-0.2621	 4.5163	 4.2541	-1.3522	 5.4730	 4.1205	48.9780	99.9825	
  1034	 0.3396	 4.1066	 4.4462	-0.0074	 4.4909	 4.4834	-1.0751	 5.4768	 4.4014	49.4216	99.9827	
  1035	 0.4204	 4.1001	 4.5205	-0.0160	 4.5585	 4.5424	-1.1667	 5.6109	 4.4439	48.7763	99.9828	
  1036	 0.3771	 4.1156	 4.4927	-0.0662	 4.5762	 4.5100	-1.0751	 5.4768	 4.4014	49.3782	99.9824	
  1037	 0.3193	 4.1363	 4.4557	-0.1202	 4.5308	 4.4104	-1.1618	 5.5074	 4.3453	49.2503	99.9806	
  1038	 0.3049	 4.1415	 4.4464	-0.1790	 4.6161	 4.4370	-1.1618	 5.5074	 4.3453	49.2823	99.9814	
  1039	 0.2963	 4.1221	 4.4184	-0.1790	 4.6161	 4.4370	-1.2594	 5.5419	 4.2822	48.9735	99.9836	
  1040	 0.2327	 4.1674	 4.4001	-0.2792	 4.6515	 4.3722	-1.2594	 5.5419	 4.2822	49.1542	99.9810	
  1041	 0.1894	 4.1830	 4.3723	-0.2792	 4.6515	 4.3722	-1.3570	 5.5764	 4.2191	48.9617	99.9833	
  1042	 0.1605	 4.1933	 4.3538	-0.3294	 4.6692	 4.3398	-1.3570	 5.5764	 4.2191	49.0259	99.9822	
  1043	 0.1624	 4.2226	 4.3850	-0.2792	 4.6515	 4.3722	-1.3510	 5.6760	 4.3247	48.8567	99.9809	
  1044	 0.3192	 4.2488	 4.5681	-0.0774	 4.7029	 4.6254	-1.2633	 5.7524	 4.4888	48.6640	99.9844	
  1045	 0.2903	 4.2592	 4.5495	-0.1777	 4.7384	 4.5605	-1.3500	 5.7830	 4.4327	48.4711	99.9833	
  1046	 0.2451	 4.2454	 4.4906	-0.1875	 4.6837	 4.4961	-1.3510	 5.6760	 4.3247	48.7645	99.9842	
  1047	 0.1999	 4.2317	 4.4316	-0.2878	 4.7191	 4.4312	-1.3510	 5.6760	 4.3247	48.8126	99.9823	
  1048	 0.1855	 4.2368	 4.4223	-0.2792	 4.6515	 4.3722	-1.4486	 5.7105	 4.2616	48.5552	99.9819	
  1049	 0.1421	 4.2524	 4.3945	-0.3795	 4.6869	 4.3073	-1.5353	 5.7411	 4.2055	48.3939	99.9809	
  1050	 0.0902	 4.2485	 4.3387	-0.4296	 4.7047	 4.2749	-1.5413	 5.6415	 4.0999	48.6881	99.9827	
  1051	-0.0089	 4.2016	 4.1927	-0.5127	 4.6049	 4.0920	-1.7208	 5.6032	 3.8821	48.4655	99.9833	
  1052	-0.0975	 4.2034	 4.1059	-0.5727	 4.5679	 3.9951	-1.6242	 5.4617	 3.8372	49.1488	99.9816	
  1053	 0.0016	 4.2503	 4.2519	-0.4798	 4.7224	 4.2425	-1.5413	 5.6415	 4.0999	48.8330	99.9829	
  1054	 0.0883	 4.2192	 4.3075	-0.4211	 4.6370	 4.2159	-1.6281	 5.6722	 4.0438	48.3811	99.9826	
  1055	-0.0667	 4.2223	 4.1556	-0.5629	 4.6226	 4.0596	-1.7109	 5.4924	 3.7811	48.8745	99.9845	
  1056	-0.1080	 4.1547	 4.0466	-0.6730	 4.6034	 3.9303	-1.7061	 5.3890	 3.6825	49.0731	99.9828	
  1057	-0.1080	 4.1547	 4.0466	-0.6228	 4.5856	 3.9627	-1.7977	 5.5230	 3.7250	48.5625	99.9840	
  1058	-0.1350	 4.1943	 4.0593	-0.6228	 4.5856	 3.9627	-1.7109	 5.4924	 3.7811	48.9348	99.9824	
  1059	-0.1389	 4.2482	 4.1093	-0.6256	 4.6447	 4.0191	-1.8076	 5.6339	 3.8260	48.4979	99.9831	
  1060	-0.1822	 4.2637	 4.0815	-0.6757	 4.6624	 3.9866	-1.8943	 5.6645	 3.7699	48.3358	99.9836	
  1061	-0.2111	 4.2741	 4.0630	-0.6757	 4.6624	 3.9866	-1.8076	 5.6339	 3.8260	48.6598	99.9826	
  1062	-0.1226	 4.2723	 4.1498	-0.5715	 4.6902	 4.1186	-1.7148	 5.7028	 3.9877	48.5550	99.9827	
  1063	 0.0304	 4.3524	 4.3828	-0.4382	 4.7723	 4.3339	-1.5353	 5.7411	 4.2055	48.7485	99.9822	
  1064	 0.0679	 4.3615	 4.4294	-0.4911	 4.8491	 4.3579	-1.5353	 5.7411	 4.2055	48.7042	99.9817	
  1065	 0.0409	 4.4011	 4.4421	-0.4911	 4.8491	 4.3579	-1.5353	 5.7411	 4.2055	48.8171	99.9817	
  1066	 0.0120	 4.4115	 4.4235	-0.4911	 4.8491	 4.3579	-1.5353	 5.7411	 4.2055	48.8815	99.9821	
  1067	-0.0148	 4.3387	 4.3238	-0.5385	 4.8077	 4.2691	-1.7196	 5.8062	 4.0863	48.2481	99.9833	
  1068	-0.0582	 4.3542	 4.2960	-0.5886	 4.8254	 4.2367	-1.7196	 5.8062	 4.0863	48.3452	99.9824	
  1069	-0.0851	 4.3939	 4.3087	-0.5385	 4.8077	 4.2691	-1.8163	 5.9477	 4.1312	47.9220	99.9830	
  1070	-0.1054	 4.4236	 4.3182	-0.5886	 4.8254	 4.2367	-1.7196	 5.8062	 4.0863	48.5428	99.9822	
  1071	-0.0149	 4.4512	 4.4362	-0.3908	 4.8136	 4.4227	-1.6419	 5.9935	 4.3513	48.1818	99.9819	
  1072	 0.0822	 4.4688	 4.5510	-0.4080	 4.9489	 4.5408	-1.5443	 5.9590	 4.4144	48.3464	99.9828	
  1073	 0.0245	 4.4895	 4.5140	-0.3994	 4.8813	 4.4818	-1.6419	 5.9935	 4.3513	48.1850	99.9829	
  1074	 0.0139	 4.4408	 4.4547	-0.4997	 4.9167	 4.4169	-1.6320	 5.8826	 4.2504	48.3939	99.9831	
  1075	-0.0332	 4.3977	 4.3645	-0.5412	 4.8668	 4.3255	-1.6329	 5.7756	 4.1424	48.6397	99.9833	
  1076	-0.0726	 4.3594	 4.2868	-0.5299	 4.7401	 4.2101	-1.7148	 5.7028	 3.9877	48.6274	99.9840	
  1077	-0.1467	 4.3560	 4.2093	-0.6302	 4.7755	 4.1452	-1.8124	 5.7373	 3.9246	48.4495	99.9841	
  1078	-0.1987	 4.3521	 4.1534	-0.7430	 4.8154	 4.0723	-1.8076	 5.6339	 3.8260	48.7771	99.9835	
  1079	-0.2189	 4.3819	 4.1629	-0.6803	 4.7932	 4.1128	-1.8124	 5.7373	 3.9246	48.6113	99.9836	
  1080	-0.0621	 4.4081	 4.3460	-0.5412	 4.8668	 4.3255	-1.6329	 5.7756	 4.1424	48.7042	99.9837	
  1081	-0.0043	 4.3874	 4.3831	-0.4911	 4.8491	 4.3579	-1.6329	 5.7756	 4.1424	48.5751	99.9844	
  1082	-0.0621	 4.4081	 4.3460	-0.5385	 4.8077	 4.2691	-1.7196	 5.8062	 4.0863	48.4458	99.9831	
  1083	-0.0726	 4.3594	 4.2868	-0.5886	 4.8254	 4.2367	-1.8064	 5.8369	 4.0302	48.1184	99.9841	
  1084	-0.1304	 4.3801	 4.2497	-0.5801	 4.7578	 4.1777	-1.8064	 5.8369	 4.0302	48.2481	99.9826	
  1085	-0.1285	 4.4094	 4.2809	-0.6388	 4.8431	 4.2043	-1.7196	 5.8062	 4.0863	48.5550	99.9813	
  1086	-0.1574	 4.4198	 4.2624	-0.6889	 4.8608	 4.1718	-1.8064	 5.8369	 4.0302	48.3611	99.9817	
  1087	-0.2189	 4.3819	 4.1629	-0.8017	 4.9007	 4.0989	-1.8124	 5.7373	 3.9246	48.6113	99.9820	
  1088	-0.1574	 4.4198	 4.2624	-0.5913	 4.8845	 4.2931	-1.7295	 5.9171	 4.1873	48.3423	99.9833	
  1089	-0.0313	 4.4270	 4.3957	-0.5498	 4.9344	 4.3845	-1.6320	 5.8826	 4.2504	48.4426	99.9827	
  1090	-0.1574	 4.4198	 4.2624	-0.6388	 4.8431	 4.2043	-1.7196	 5.8062	 4.0863	48.6196	99.9817	
  1091	-0.2189	 4.3819	 4.1629	-0.6889	 4.8608	 4.1718	-1.7196	 5.8062	 4.0863	48.6519	99.9820	
  1092	-0.2007	 4.4353	 4.2346	-0.6916	 4.9199	 4.2282	-1.7196	 5.8062	 4.0863	48.7163	99.9828	
  1093	-0.2151	 4.4405	 4.2254	-0.6388	 4.8431	 4.2043	-1.7196	 5.8062	 4.0863	48.7485	99.9825	
  1094	-0.2767	 4.4026	 4.1259	-0.6803	 4.7932	 4.1128	-1.9040	 5.8714	 3.9671	48.2323	99.9837	
  1095	-0.3345	 4.4233	 4.0888	-0.7931	 4.8331	 4.0399	-1.8991	 5.7679	 3.8685	48.6113	99.9832	
  1096	-0.3306	 4.3694	 4.0389	-0.8433	 4.8508	 4.0074	-1.9907	 5.9020	 3.9110	48.0024	99.9819	
  1097	-0.2007	 4.4353	 4.2346	-0.6415	 4.9022	 4.2606	-1.6320	 5.8826	 4.2504	48.7282	99.9807	
  1098	-0.1160	 4.4874	 4.3714	-0.5584	 5.0020	 4.4435	-1.6419	 5.9935	 4.3513	48.4072	99.9834	
  1099	-0.1035	 4.4529	 4.3494	-0.5999	 4.9521	 4.3521	-1.7286	 6.0241	 4.2952	48.0693	99.9816	
  1100	-0.1198	 4.4288	 4.3090	-0.5913	 4.8845	 4.2931	-1.7295	 5.9171	 4.1873	48.2977	99.9824	
  1101	-0.1920	 4.4547	 4.2627	-0.5913	 4.8845	 4.2931	-1.7295	 5.9171	 4.1873	48.4589	99.9834	
  1102	-0.2007	 4.4353	 4.2346	-0.6916	 4.9199	 4.2282	-1.8163	 5.9477	 4.1312	48.1809	99.9823	
  1103	-0.3739	 4.3850	 4.0111	-0.8347	 4.7832	 3.9484	-1.9859	 5.7986	 3.8124	48.3487	99.9824	
  1104	-0.5663	 4.2665	 3.7003	-1.0615	 4.7406	 3.6790	-2.1555	 5.6494	 3.4936	48.4290	99.9838	
  1105	-0.8337	 4.1300	 3.2963	-1.3187	 4.5215	 3.2027	-2.2329	 5.3773	 3.1441	49.0850	99.9793	
  1106	-0.7615	 4.1041	 3.3427	-1.0417	 4.5463	 3.5046	-1.8953	 5.5575	 3.6619	49.2281	99.9794	
  1107	-0.5690	 4.1101	 3.5411	-0.7494	 4.5077	 3.7581	-1.7208	 5.6032	 3.8821	49.1992	99.9816	
  1108	-0.4555	 4.1518	 3.6964	-0.6644	 4.5357	 3.8712	-1.7109	 5.4924	 3.7811	49.3705	99.9855	
  1109	-0.5179	 3.9868	 3.4689	-0.7296	 4.3134	 3.5837	-1.7992	 5.2241	 3.4246	49.6154	99.9860	
  1110	-0.4426	 3.7798	 3.3373	-0.7716	 4.1538	 3.3822	-1.6217	 4.7714	 3.1495	50.5694	99.9845	
  1111	-0.4973	 3.6195	 3.1222	-0.9930	 3.9931	 3.0000	-1.7196	 4.4331	 2.7132	50.9646	99.9812	
  1112	-0.7557	 3.1649	 2.4092	-1.3662	 3.5567	 2.1904	-2.1677	 3.8003	 1.6323	51.1164	99.9826	
  1113	-0.6037	 3.2304	 2.6266	-1.2485	 3.7993	 2.5506	-1.9087	 3.9631	 2.0541	51.1533	99.9803	
  1114	-0.9414	 3.0366	 2.0952	-1.6617	 3.3382	 1.6764	-2.4450	 3.2428	 0.7975	51.9487	99.9809	
  1115	-1.3955	 2.8696	 1.4741	-1.9881	 3.1371	 1.1488	-2.7627	 3.1177	 0.3547	51.9882	99.9826	
  1116	-1.3781	 2.7959	 1.4178	-2.0289	 3.0998	 1.0708	-2.8386	 3.1445	 0.3056	51.5924	99.9825	
  1117	-1.4254	 2.9778	 1.5523	-1.8658	 3.2489	 1.3829	-2.6015	 3.2190	 0.6172	52.3313	99.9837	
  1118	-1.4129	 2.9433	 1.5304	-2.0790	 3.1175	 1.0384	-2.9940	 3.0469	 0.0526	51.8334	99.9837	
  1119	-1.5237	 3.0580	 1.5343	-2.1698	 3.3046	 1.1347	-3.0663	 3.2250	 0.1584	51.6274	99.9835	
  1120	-1.6381	 2.8891	 1.2510	-2.3267	 3.0500	 0.7233	-3.2243	 2.9022	-0.3224	51.9572	99.9829	
  1121	-1.7150	 2.8417	 1.1267	-2.4458	 2.9888	 0.5429	-3.4498	 2.8350	-0.6151	51.6688	99.9838	
  1122	-1.8132	 2.8095	 0.9963	-2.6025	 2.9408	 0.3382	-3.6035	 2.6745	-0.9292	51.8360	99.9824	
  1123	-1.9718	 2.6414	 0.6696	-2.7429	 2.7450	 0.0020	-3.6813	 2.4873	-1.1943	52.0771	99.9821	
  1124	-2.0093	 2.6324	 0.6231	-2.7836	 2.7078	-0.0760	-3.8262	 2.4707	-1.3558	51.8443	99.9835	
  1125	-1.9746	 2.5975	 0.6228	-2.7425	 2.6480	-0.0946	-3.7601	 2.3739	-1.3865	52.1131	99.9831	
  1126	-1.9284	 2.5134	 0.5850	-2.7238	 2.5381	-0.1858	-3.8440	 2.2679	-1.5764	51.9602	99.9841	
  1127	-2.1448	 2.3661	 0.2213	-2.9578	 2.3818	-0.5761	-4.0553	 2.0713	-1.9843	52.0675	99.9834	
  1128	-2.1967	 2.3623	 0.1655	-2.8042	 2.3792	-0.4251	-3.7641	 2.3075	-1.4569	52.1813	99.9851	
  1129	-1.8706	 2.4927	 0.6221	-2.4546	 2.6432	 0.1885	-3.2525	 2.6183	-0.6345	52.2292	99.9830	
  1130	-2.0119	 2.3635	 0.3515	-2.5198	 2.4208	-0.0991	-3.3629	 2.1657	-1.1975	53.1160	99.9836	
  1131	-2.4488	 2.2352	-0.2136	-3.0295	 2.3619	-0.6676	-3.9822	 2.1811	-1.8014	52.1912	99.9844	
  1132	-2.4778	 2.3581	-0.1197	-2.9957	 2.4921	-0.5037	-3.8440	 2.2679	-1.5764	52.5545	99.9835	
  1133	-2.4076	 2.4154	 0.0078	-2.8456	 2.5359	-0.3098	-3.6950	 2.3509	-1.3445	52.6631	99.9846	
  1134	-2.0554	 2.4915	 0.4361	-2.5423	 2.6742	 0.1317	-3.3324	 2.5788	-0.7540	52.4499	99.9838	
  1135	-1.8331	 2.5017	 0.6687	-2.2823	 2.5306	 0.2482	-3.2002	 2.3851	-0.8153	52.8879	99.9859	
  1136	-1.9196	 2.4203	 0.5007	-2.3665	 2.5152	 0.1486	-3.1904	 2.4551	-0.7356	52.7136	99.9850	
  1137	-1.4753	 2.7782	 1.3030	-1.7564	 2.7452	 0.9887	-2.5932	 2.5323	-0.0612	53.7701	99.9863	
  1138	-1.4574	 2.1421	 0.6847	-2.0271	 2.1046	 0.0775	-2.8979	 1.7980	-1.1002	53.7424	99.9833	
  1139	-1.6525	 1.8672	 0.2147	-2.1788	 1.8289	-0.3500	-3.1319	 1.6829	-1.4493	53.3125	99.9856	
  1140	-1.5766	 2.0124	 0.4358	-2.1019	 2.0342	-0.0678	-2.9549	 1.9538	-1.0015	53.1595	99.9843	
  1141	-1.4197	 2.0386	 0.6189	-1.9801	 2.0364	 0.0562	-2.8100	 1.9704	-0.8399	53.2285	99.9834	
  1142	-1.0070	 2.2504	 1.2434	-1.4769	 2.2978	 0.8207	-2.2333	 2.2582	 0.0246	53.4775	99.9835	
  1143	-0.4961	 2.3821	 1.8860	-0.9982	 2.3740	 1.3757	-1.7681	 2.1673	 0.3989	54.1395	99.9831	
  1144	-0.7037	 2.1417	 1.4379	-1.3917	 2.0222	 0.6304	-2.3911	 1.7546	-0.6368	53.7397	99.9841	
  1145	-0.7124	 2.1223	 1.4099	-1.3422	 2.1985	 0.8562	-2.0400	 1.9752	-0.0651	53.8949	99.9803	
  1146	-0.5941	 2.2373	 1.6432	-1.1768	 2.3855	 1.2086	-1.8538	 2.1241	 0.2701	53.9440	99.9803	
  1147	-0.6692	 2.2192	 1.5501	-1.2234	 2.3567	 1.1332	-1.9445	 2.0884	 0.1436	53.9267	99.9812	
  1148	-0.7846	 2.1482	 1.3636	-1.2639	 2.2225	 0.9585	-1.9641	 1.9484	-0.0160	54.2846	99.9819	
  1149	-0.9204	 2.2194	 1.2990	-1.3516	 2.2535	 0.9018	-2.1918	 2.0288	-0.1632	53.9514	99.9845	
  1150	-0.9319	 2.1560	 1.2242	-1.3924	 2.2162	 0.8237	-2.0548	 1.9127	-0.1425	54.4298	99.9815	
  1151	-0.7326	 2.1520	 1.4194	-1.1671	 2.2335	 1.0663	-1.8025	 1.9648	 0.1619	54.5060	99.9815	
  1152	-0.6721	 2.2878	 1.6157	-1.0891	 2.3545	 1.2653	-1.7779	 2.0973	 0.3191	54.3880	99.9825	
  1153	-0.6520	 2.3705	 1.7185	-1.1329	 2.4733	 1.3403	-1.7779	 2.0973	 0.3191	54.5164	99.9803	
  1154	-0.7704	 2.3680	 1.5976	-1.2234	 2.3567	 1.1332	-2.0204	 2.1152	 0.0945	54.1436	99.9839	
  1155	-0.8858	 2.2969	 1.4111	-1.2674	 2.2689	 1.0015	-1.8882	 1.9216	 0.0331	54.9544	99.9818	
  1156	-1.2927	 2.0605	 0.7678	-1.6887	 1.9851	 0.2963	-2.3911	 1.7546	-0.6368	54.5072	99.9834	
  1157	-1.3071	 2.0657	 0.7586	-1.6796	 2.0271	 0.3474	-2.3003	 1.7903	-0.5103	54.6371	99.9825	
  1158	-0.9058	 2.1017	 1.1959	-1.2165	 2.0572	 0.8406	-1.7513	 1.8054	 0.0538	55.1856	99.9818	
  1159	-0.3313	 2.1880	 1.8567	-0.6880	 2.2127	 1.5247	-1.2823	 2.1426	 0.8600	54.5820	99.9821	
  1160	-0.1407	 2.1647	 2.0239	-0.5905	 2.0298	 1.4392	-1.3569	 1.7339	 0.3767	55.1330	99.9834	
  1161	-0.6415	 1.5046	 0.8631	-1.1781	 1.3397	 0.1615	-1.8981	 1.1170	-0.7814	55.0849	99.9816	
  1162	-0.7388	 1.5995	 0.8606	-1.1278	 1.7353	 0.6074	-1.7000	 1.6460	-0.0543	54.4749	99.9815	
  1163	-0.6719	 2.0628	 1.3909	-1.2134	 2.1078	 0.8943	-1.8420	 1.7696	-0.0727	54.6559	99.9799	
  1164	-0.9634	 1.8974	 0.9340	-1.4341	 1.7531	 0.3188	-2.1469	 1.3971	-0.7502	55.1095	99.9823	
  1165	-1.2790	 1.8157	 0.5367	-1.6343	 1.7269	 0.0925	-2.2080	 1.4864	-0.7218	55.0789	99.9819	
  1166	-0.9518	 1.8483	 0.8965	-1.3033	 1.7972	 0.4939	-1.8205	 1.4851	-0.3356	55.4427	99.9809	
  1167	-0.7881	 1.7521	 0.9640	-1.1243	 1.6888	 0.5644	-1.6538	 1.4941	-0.1600	55.3252	99.9813	
  1168	-0.6898	 1.6719	 0.9820	-1.0832	 1.6291	 0.5458	-1.5928	 1.4047	-0.1884	55.3741	99.9802	
  1169	-0.8139	 1.5814	 0.7675	-1.2172	 1.5344	 0.3170	-1.7783	 1.2668	-0.5118	55.3609	99.9809	
  1170	-0.9988	 1.6927	 0.6939	-1.3930	 1.6933	 0.3002	-1.9152	 1.3830	-0.5325	55.2797	99.9804	
  1171	-1.0567	 1.8259	 0.7693	-1.4306	 1.7066	 0.2759	-2.0710	 1.3703	-0.7011	55.3400	99.9824	
  1172	-1.1115	 1.7781	 0.6666	-1.5180	 1.6406	 0.1225	-2.1709	 1.2756	-0.8956	55.3691	99.9821	
  1173	-1.2654	 1.6834	 0.4180	-1.6454	 1.5500	-0.0955	-2.2708	 1.1809	-1.0902	55.4587	99.9820	
  1174	-1.0941	 1.7044	 0.6103	-1.4268	 1.5632	 0.1363	-2.0300	 1.2258	-0.8045	55.6178	99.9824	
  1175	-1.0401	 1.6250	 0.5850	-1.3947	 1.4615	 0.0666	-1.9780	 1.0775	-0.9009	55.8711	99.9817	
  1176	-1.0632	 1.6108	 0.5477	-1.4323	 1.4747	 0.0423	-1.9980	 1.0223	-0.9759	55.9808	99.9808	
  1177	-1.0776	 1.6160	 0.5384	-1.3912	 1.4150	 0.0237	-1.9980	 1.0223	-0.9759	56.0130	99.9825	
  1178	-1.1094	 1.5824	 0.4731	-1.4755	 1.3996	-0.0760	-2.0219	 0.9008	-1.1214	56.2630	99.9805	
  1179	-1.1709	 1.5445	 0.3736	-1.4720	 1.3531	-0.1189	-2.1538	 1.0096	-1.1445	55.7275	99.9838	
  1180	-1.1854	 1.5497	 0.3643	-1.5562	 1.3377	-0.2186	-2.1828	 0.8955	-1.2876	55.9976	99.9819	
  1181	-1.1882	 1.5057	 0.3175	-1.5186	 1.3244	-0.1943	-2.1069	 0.8687	-1.2385	56.1411	99.9817	
  1182	-1.0351	 1.4733	 0.4382	-1.3556	 1.2668	-0.0889	-1.9660	 0.8189	-1.1474	56.2630	99.9822	
  1183	-1.0438	 1.4539	 0.4102	-1.3521	 1.2204	-0.1319	-1.9660	 0.8189	-1.1474	56.2377	99.9827	
  1184	-1.0149	 1.4436	 0.4287	-1.3521	 1.2204	-0.1319	-2.0419	 0.8457	-1.1964	55.9473	99.9835	
  1185	-1.0611	 1.4152	 0.3541	-1.3486	 1.1739	-0.1748	-1.9859	 0.7638	-1.2224	56.2906	99.9832	
  1186	-1.0842	 1.4009	 0.3168	-1.3953	 1.1452	-0.2502	-2.0150	 0.6497	-1.3655	56.5373	99.9822	
  1187	-1.1371	 1.3824	 0.2454	-1.4419	 1.1165	-0.3255	-2.0800	 0.6727	-1.4076	56.3874	99.9829	
  1188	-1.1948	 1.4032	 0.2083	-1.5136	 1.0966	-0.4171	-2.1741	 0.5817	-1.5928	56.5636	99.9827	
  1189	-1.1688	 1.3488	 0.1800	-1.4008	 1.0568	-0.3442	-2.0241	 0.5908	-1.4336	56.6984	99.9834	
  1190	-0.9724	 1.3009	 0.3285	-1.3131	 1.0258	-0.2874	-1.9681	 0.5089	-1.4595	56.6350	99.9822	
  1191	-1.0917	 1.2837	 0.1920	-1.3507	 1.0390	-0.3117	-2.0150	 0.6497	-1.3655	56.3159	99.9839	
  1192	-0.9407	 1.3345	 0.3938	-1.2288	 1.0412	-0.1877	-1.9031	 0.4859	-1.4175	56.8477	99.9827	
  1193	-1.2312	 1.1838	-0.0474	-1.4918	 0.8306	-0.6613	-2.2083	 0.4751	-1.7335	56.3921	99.9849	
  1194	-1.0533	 1.3074	 0.2541	-1.3096	 0.9793	-0.3304	-1.9772	 0.4499	-1.5276	56.9079	99.9833	
  1195	-1.3447	 1.1420	-0.2027	-1.5726	 0.7687	-0.8040	-2.3674	 0.4070	-1.9607	56.3343	99.9863	
  1196	-1.1639	 1.3096	 0.1457	-1.4008	 1.0568	-0.3442	-2.0150	 0.6497	-1.3655	56.4768	99.9834	
  1197	-0.7607	 1.3749	 0.6142	-0.8773	 1.2334	 0.3560	-1.3474	 0.7925	-0.5552	56.9767	99.9822	
  1198	-0.5172	 1.3701	 0.8528	-0.7018	 1.1714	 0.4695	-1.1545	 0.5944	-0.5604	57.5082	99.9804	
  1199	-0.5836	 1.3714	 0.7877	-0.7520	 1.1892	 0.4371	-1.2105	 0.6763	-0.5345	57.2832	99.9812	
  1200	-0.4941	 1.3843	 0.8901	-0.6552	 1.2002	 0.5449	-1.1197	 0.7120	-0.4080	57.2638	99.9815	
  1201	-0.4095	 1.4364	 1.0269	-0.5243	 1.2444	 0.7199	-1.0090	 0.8029	-0.2064	57.2252	99.9826	
  1202	-0.3353	 1.3273	 0.9920	-0.4923	 1.1426	 0.6502	-0.8920	 0.6316	-0.2607	57.5792	99.9806	
  1203	-0.2747	 1.3505	 1.0759	-0.3865	 1.1956	 0.8091	-0.7813	 0.7224	-0.0592	57.5183	99.9811	
  1204	-0.1207	 1.3328	 1.2121	-0.2611	 1.1514	 0.8901	-0.7614	 0.7776	 0.0159	57.1532	99.9828	
  1205	 0.1017	 1.3430	 1.4447	-0.0300	 1.1601	 1.1300	-0.4578	 0.6703	 0.2122	57.7260	99.9813	
  1206	-0.1166	 1.1664	 1.0498	-0.1844	 0.9434	 0.7589	-0.6643	 0.5511	-0.1135	57.6007	99.9833	
  1207	-0.3676	 0.9415	 0.5739	-0.4663	 0.6362	 0.1698	-0.9307	 0.2667	-0.6643	57.7409	99.9829	
  1208	-0.5042	 0.8856	 0.3813	-0.6030	 0.6005	-0.0026	-1.1115	 0.2062	-0.9056	57.6308	99.9835	
  1209	-0.6284	 0.9076	 0.2792	-0.6873	 0.5851	-0.1023	-1.1874	 0.2331	-0.9547	57.6366	99.9840	
  1210	-0.6948	 0.9089	 0.2141	-0.8275	 0.5959	-0.2317	-1.2975	 0.1533	-1.1445	57.7281	99.9825	
  1211	-0.7939	 0.8620	 0.0681	-0.9232	 0.5005	-0.4227	-1.4584	 0.1480	-1.3107	57.4743	99.9837	
  1212	-0.7093	 0.9141	 0.2049	-0.8251	 0.6338	-0.1914	-1.1874	 0.2331	-0.9547	57.7686	99.9811	
  1213	-0.5438	 0.9597	 0.4160	-0.6030	 0.6005	-0.0026	-1.1115	 0.2062	-0.9056	57.8364	99.9840	
  1214	-0.5669	 0.9455	 0.3787	-0.6532	 0.6182	-0.0350	-1.1115	 0.2062	-0.9056	57.8421	99.9829	
  1215	-0.5409	 1.0037	 0.4628	-0.6030	 0.6005	-0.0026	-1.1874	 0.2331	-0.9547	57.6984	99.9852	
  1216	-0.6111	 0.9464	 0.3353	-0.6873	 0.5851	-0.1023	-1.1315	 0.1511	-0.9807	58.0144	99.9828	
  1217	-0.5582	 0.9649	 0.4067	-0.6908	 0.6315	-0.0593	-1.1965	 0.1741	-1.0227	57.7838	99.9830	
  1218	-0.6659	 0.8986	 0.2326	-0.8240	 0.5494	-0.2747	-1.3625	 0.1763	-1.1866	57.4743	99.9833	
  1219	-0.6978	 0.9775	 0.2797	-0.7899	 0.5826	-0.2074	-1.2975	 0.1533	-1.1445	57.8692	99.9836	
  1220	-0.5909	 0.9167	 0.3258	-0.6520	 0.5339	-0.1183	-1.1457	 0.0996	-1.0463	58.0330	99.9837	
  1221	-0.5004	 0.9442	 0.4437	-0.6030	 0.6005	-0.0026	-1.1115	 0.2062	-0.9056	57.7417	99.9835	
  1222	-0.4802	 0.9144	 0.4342	-0.6121	 0.5585	-0.0537	-1.0556	 0.1243	-0.9316	57.9792	99.9821	
  1223	-0.5004	 0.9442	 0.4437	-0.6030	 0.6005	-0.0026	-1.1115	 0.2062	-0.9056	57.7417	99.9835	
  1224	-0.5004	 0.9442	 0.4437	-0.6030	 0.6005	-0.0026	-1.1115	 0.2062	-0.9056	57.7417	99.9835	
