OxySoft export of:	C:\Users\TO3 TechSupport\Documents\Train2Adapt\T2A_60
Export date:	2022/09/14 03:51:51
Start of measurement:	2022-09-14 02:36:35.615

Datafile sample rate:	10.00	Hz
Datafile duration:	3660.100	s
Datafile total number of samples:	36601

Description:	

Optode-template:	PortaMon TSI Fit Factor
Optode distance (mm):	 35.00
Optode gradients (mm):	 5.00
DPF:	6.00

Device id:	334
# Receivers:	1
# Light sources:	6
# ADC:	2

Light source wavelengths:
device	index	wavelength
1	1	849	nm
1	2	759	nm
1	3	846	nm
1	4	757	nm
1	5	848	nm
1	6	757	nm

Export sample rate:	10.00	Hz
Selected time span:	0	3660.100
Selected time span (sample numbers):	0	36601


Legend:
Column	Trace (Measurement)
1	(Sample number)
2	Rx1-Tx1 O2Hb (T2A_60)
3	Rx1-Tx1 HHb (T2A_60)
4	Rx1-Tx1 tHb (T2A_60)
5	Rx1-Tx2 O2Hb (T2A_60)
6	Rx1-Tx2 HHb (T2A_60)
7	Rx1-Tx2 tHb (T2A_60)
8	Rx1-Tx3 O2Hb (T2A_60)
9	Rx1-Tx3 HHb (T2A_60)
10	Rx1-Tx3 tHb (T2A_60)
11	Rx1-Tx1,Tx2,Tx3 TSI% (T2A_60)
12	Rx1-Tx1,Tx2,Tx3 TSI Fit Factor (T2A_60)
13	(Event)


1	2	3	4	5	6	7	8	9	10	11	12	13
     0	151.1284	83.2418	234.3703	125.9569	71.8916	197.8485	105.3204	66.2645	171.5849	11.5652	98.7634	
     1	-0.9041	-0.3861	-1.2901	-0.9795	-0.4294	-1.4089	-0.9815	-0.3940	-1.3756	65.5712	99.9115	
     2	-0.9041	-0.3861	-1.2901	-0.9584	-0.4298	-1.3881	-0.9562	-0.3780	-1.3343	65.5723	99.9110	
     3	-0.8299	-0.3714	-1.2012	-0.9070	-0.3981	-1.3051	-0.8942	-0.3626	-1.2569	65.5726	99.9116	
     4	-0.8045	-0.3558	-1.1601	-0.8703	-0.3755	-1.2458	-0.8562	-0.3387	-1.1949	65.5734	99.9127	
     5	-0.7451	-0.3192	-1.0642	-0.8116	-0.3393	-1.1509	-0.7998	-0.3150	-1.1149	65.6351	99.9141	
     6	-0.7621	-0.3297	-1.0916	-0.8280	-0.3762	-1.2042	-0.8147	-0.3595	-1.1744	65.8187	99.9125	
     7	-0.7462	-0.3354	-1.0814	-0.7728	-0.3957	-1.1685	-0.7192	-0.3933	-1.1126	66.2486	99.9122	
     8	-0.4388	-0.2391	-0.6778	-0.5064	-0.3120	-0.8184	-0.4707	-0.3192	-0.7900	66.3097	99.9107	
     9	-0.1897	-0.1633	-0.3528	-0.2841	-0.2553	-0.5395	-0.3173	-0.3049	-0.6224	66.4331	99.9171	
    10	-0.1398	-0.1481	-0.2879	-0.2254	-0.2192	-0.4446	-0.2412	-0.2571	-0.4984	66.3709	99.9169	
    11	-0.1473	-0.1372	-0.2844	-0.2181	-0.2146	-0.4327	-0.2405	-0.2449	-0.4855	66.3708	99.9172	
    12	-0.1303	-0.1267	-0.2570	-0.2025	-0.1917	-0.3942	-0.2144	-0.2168	-0.4313	66.3093	99.9168	
    13	-0.1632	-0.1315	-0.2946	-0.2383	-0.2004	-0.4387	-0.2398	-0.2327	-0.4726	66.3705	99.9161	
    14	-0.2459	-0.1514	-0.3972	-0.3035	-0.2271	-0.5307	-0.2778	-0.2566	-0.5345	66.4924	99.9142	
    15	-0.2967	-0.1827	-0.4793	-0.3476	-0.2543	-0.6018	-0.3159	-0.2806	-0.5965	66.4924	99.9142	
    16	-0.3306	-0.2036	-0.5341	-0.3769	-0.2724	-0.6493	-0.3349	-0.2925	-0.6275	66.4922	99.9133	
    17	-0.3222	-0.1983	-0.5204	-0.3622	-0.2633	-0.6255	-0.3341	-0.2803	-0.6146	66.4312	99.9149	
    18	-0.3052	-0.1879	-0.4930	-0.3476	-0.2543	-0.6018	-0.3166	-0.2927	-0.6094	66.5535	99.9165	
    19	-0.2225	-0.1680	-0.3904	-0.2733	-0.1951	-0.4684	-0.2383	-0.2084	-0.4467	66.2478	99.9163	
    20	-0.0000	-0.0000	 0.0000	 0.0000	 0.0000	 0.0000	 0.0000	 0.0000	-0.0000	66.0657	99.9236	
    21	 0.2458	 0.1513	 0.3972	 0.2733	 0.1951	 0.4685	 0.2757	 0.2201	 0.4957	65.8265	99.9263	
    22	 0.5723	 0.2903	 0.8626	 0.6019	 0.3708	 0.9726	 0.6420	 0.4269	 1.0687	65.7109	99.9235	
    23	 0.8637	 0.3922	 1.2561	 0.9269	 0.4907	 1.4176	 0.9983	 0.5687	 1.5668	65.8321	99.9226	
    24	 1.0270	 0.3997	 1.4269	 1.1263	 0.5198	 1.6462	 1.2255	 0.5942	 1.8196	66.0673	99.9247	
    25	 1.1183	 0.3009	 1.4193	 1.1763	 0.4168	 1.5931	 1.2372	 0.4843	 1.7213	66.0671	99.9252	
    26	 1.0707	 0.1941	 1.2649	 1.1206	 0.3155	 1.4361	 1.2208	 0.4153	 1.6360	66.0672	99.9190	
    27	 0.9806	 0.1851	 1.1658	 1.0636	 0.3072	 1.3708	 1.1947	 0.3872	 1.5818	66.3011	99.9207	
    28	 0.9297	 0.1538	 1.0836	 1.0390	 0.2519	 1.2909	 1.1888	 0.2897	 1.4784	66.7695	99.9229	
    29	 0.8503	 0.0584	 0.9088	 0.9474	 0.1419	 1.0894	 1.0415	 0.1737	 1.2150	66.7147	99.9258	
    30	 0.7083	 0.0020	 0.7103	 0.8097	 0.0839	 0.8936	 0.8978	 0.1186	 1.0163	66.6571	99.9262	
    31	 0.6425	-0.0075	 0.6352	 0.7472	 0.0989	 0.8460	 0.8747	 0.1392	 1.0138	66.5969	99.9247	
    32	 0.6860	 0.0348	 0.7208	 0.8426	 0.1576	 1.0002	 1.0086	 0.2351	 1.2436	66.5932	99.9231	
    33	 0.8216	 0.1183	 0.9400	 1.0049	 0.2710	 1.2759	 1.1996	 0.3668	 1.5663	66.5318	99.9232	
    34	 0.8576	 0.1714	 1.0291	 1.0507	 0.3260	 1.3767	 1.2637	 0.4189	 1.6825	66.5887	99.9229	
    35	 0.8586	 0.1876	 1.0463	 1.0589	 0.3445	 1.4033	 1.2779	 0.4512	 1.7290	66.5302	99.9218	
    36	 0.8841	 0.2032	 1.0874	 1.0818	 0.3719	 1.4537	 1.3166	 0.4873	 1.8039	66.4717	99.9205	
    37	 0.8936	 0.2246	 1.1183	 1.1176	 0.3806	 1.4982	 1.3547	 0.5112	 1.8658	66.5286	99.9198	
    38	 0.8851	 0.2194	 1.1046	 1.0827	 0.3859	 1.4685	 1.3603	 0.5030	 1.8632	66.5860	99.9168	
    39	 0.8607	 0.2199	 1.0807	 1.0744	 0.3674	 1.4419	 1.3476	 0.4950	 1.8426	66.6435	99.9158	
    40	 0.8682	 0.2089	 1.0772	 1.0671	 0.3629	 1.4300	 1.3532	 0.4868	 1.8400	66.6435	99.9146	
    41	 0.8766	 0.2142	 1.0909	 1.0744	 0.3674	 1.4419	 1.3532	 0.4868	 1.8400	66.6438	99.9155	
    42	 0.8851	 0.2194	 1.1046	 1.0818	 0.3719	 1.4537	 1.3715	 0.4866	 1.8580	66.7011	99.9150	
    43	 0.8851	 0.2194	 1.1046	 1.0956	 0.3671	 1.4627	 1.3715	 0.4866	 1.8580	66.7011	99.9162	
    44	 0.8851	 0.2194	 1.1046	 1.0883	 0.3625	 1.4508	 1.3588	 0.4786	 1.8374	66.7017	99.9161	
    45	 0.8692	 0.2251	 1.0944	 1.0744	 0.3674	 1.4419	 1.3525	 0.4746	 1.8270	66.7593	99.9164	
    46	 0.8692	 0.2251	 1.0944	 1.0606	 0.3723	 1.4329	 1.3405	 0.4789	 1.8193	66.7020	99.9157	
    47	 0.8533	 0.2308	 1.0842	 1.0468	 0.3772	 1.4240	 1.3342	 0.4749	 1.8090	66.7596	99.9161	
    48	 0.8374	 0.2365	 1.0740	 1.0395	 0.3727	 1.4121	 1.3279	 0.4709	 1.7987	66.8173	99.9157	
    49	 0.8533	 0.2308	 1.0842	 1.0606	 0.3723	 1.4329	 1.3342	 0.4749	 1.8090	66.7596	99.9173	
    50	 0.8777	 0.2303	 1.1081	 1.0680	 0.3768	 1.4448	 1.3405	 0.4789	 1.8193	66.7022	99.9166	
    51	 0.8703	 0.2412	 1.1116	 1.0680	 0.3768	 1.4448	 1.3398	 0.4667	 1.8064	66.8180	99.9175	
    52	 0.8543	 0.2469	 1.1014	 1.0542	 0.3817	 1.4359	 1.3215	 0.4669	 1.7883	66.8183	99.9183	
    53	 0.8618	 0.2360	 1.0979	 1.0468	 0.3772	 1.4240	 1.3152	 0.4629	 1.7780	66.7609	99.9177	
    54	 0.8533	 0.2308	 1.0842	 1.0395	 0.3727	 1.4121	 1.3032	 0.4672	 1.7703	66.7031	99.9174	
    55	 0.8374	 0.2365	 1.0740	 1.0395	 0.3727	 1.4121	 1.3088	 0.4589	 1.7677	66.8183	99.9183	
    56	 0.8459	 0.2417	 1.0877	 1.0468	 0.3772	 1.4240	 1.3208	 0.4547	 1.7754	66.8760	99.9186	
    57	 0.8459	 0.2417	 1.0877	 1.0533	 0.3678	 1.4211	 1.3025	 0.4550	 1.7574	66.8190	99.9194	
    58	 0.8374	 0.2365	 1.0740	 1.0321	 0.3681	 1.4003	 1.2898	 0.4470	 1.7367	66.8193	99.9191	
    59	 0.8374	 0.2365	 1.0740	 1.0248	 0.3636	 1.3884	 1.2835	 0.4430	 1.7264	66.8196	99.9181	
    60	 0.8289	 0.2313	 1.0603	 1.0110	 0.3685	 1.3795	 1.2708	 0.4350	 1.7057	66.8200	99.9196	
    61	 0.8204	 0.2261	 1.0466	 1.0037	 0.3640	 1.3676	 1.2469	 0.4435	 1.6903	66.7045	99.9199	
    62	 0.7971	 0.2427	 1.0399	 0.9972	 0.3734	 1.3706	 1.2532	 0.4475	 1.7006	66.8196	99.9199	
    63	 0.8289	 0.2313	 1.0603	 1.0304	 0.3403	 1.3707	 1.2749	 0.4025	 1.6773	66.9944	99.9203	
    64	 0.8343	 0.1881	 1.0224	 1.0066	 0.2989	 1.3055	 1.2220	 0.3340	 1.5559	66.9982	99.9232	
    65	 0.7071	 0.1098	 0.8170	 0.8314	 0.2043	 1.0357	 1.0015	 0.2189	 1.2203	66.8884	99.9242	
    66	 0.5258	 0.0757	 0.6016	 0.6622	 0.2071	 0.8693	 0.8630	 0.2492	 1.1121	66.5942	99.9229	
    67	 0.4229	 0.1208	 0.5439	 0.6014	 0.2500	 0.8513	 0.8231	 0.2944	 1.1174	66.6514	99.9237	
    68	 0.4484	 0.1365	 0.5849	 0.6454	 0.2771	 0.9225	 0.9040	 0.3218	 1.2258	66.7658	99.9229	
    69	 0.4866	 0.0980	 0.5847	 0.6713	 0.2395	 0.9108	 0.9208	 0.2972	 1.2180	66.7079	99.9217	
    70	 0.5533	 0.1236	 0.6771	 0.7356	 0.2524	 0.9879	 0.9559	 0.2724	 1.2282	66.8844	99.9261	
    71	 0.6552	 0.0623	 0.7176	 0.8167	 0.1952	 1.0119	 0.9832	 0.2192	 1.2023	66.7695	99.9288	
    72	 0.5799	 0.0315	 0.6115	 0.7230	 0.1643	 0.8873	 0.8840	 0.1920	 1.0758	66.6537	99.9277	
    73	 0.4729	 0.0121	 0.4850	 0.5871	 0.1341	 0.7211	 0.7418	 0.1613	 0.9030	66.5380	99.9256	
    74	 0.4167	 0.0240	 0.4407	 0.5327	 0.1675	 0.7002	 0.7440	 0.1978	 0.9418	66.5366	99.9227	
    75	 0.4760	 0.0605	 0.5366	 0.6402	 0.1936	 0.8338	 0.8503	 0.2412	 1.0914	66.6519	99.9236	
    76	 0.5322	 0.0486	 0.5809	 0.6954	 0.1741	 0.8695	 0.9093	 0.2079	 1.1171	66.8274	99.9239	
    77	 0.5142	 0.0220	 0.5363	 0.6514	 0.1469	 0.7983	 0.8523	 0.1720	 1.0242	66.7708	99.9239	
    78	 0.4146	-0.0083	 0.4063	 0.5504	 0.1115	 0.6618	 0.7220	 0.1371	 0.8591	66.6553	99.9257	
    79	 0.3509	 0.0145	 0.3655	 0.5107	 0.1540	 0.6646	 0.7131	 0.1901	 0.9031	66.5948	99.9254	
    80	 0.4198	 0.0724	 0.4923	 0.6143	 0.2312	 0.8455	 0.8548	 0.3143	 1.1690	66.4748	99.9221	
    81	 0.4112	 0.1911	 0.6024	 0.5798	 0.3572	 0.9370	 0.7875	 0.4128	 1.2002	66.2424	99.9260	
    82	 0.4292	 0.2177	 0.6470	 0.5487	 0.3113	 0.8600	 0.6641	 0.2883	 0.9523	66.5395	99.9313	
    83	 0.4876	 0.1142	 0.6019	 0.4593	 0.1223	 0.5816	 0.4270	-0.0014	 0.4255	66.7304	99.9354	
    84	 0.4357	 0.0667	 0.5025	 0.2693	 0.0187	 0.2880	 0.1363	-0.0668	 0.0694	66.0648	99.9270	
    85	 0.5702	 0.2580	 0.8283	 0.3497	 0.1753	 0.5250	 0.1090	-0.0136	 0.0953	66.1260	99.9380	
    86	 0.5150	 0.2860	 0.8011	 0.1291	 0.1465	 0.2756	-0.2548	-0.0780	-0.3329	65.4929	99.9375	
    87	 0.2690	 0.2586	 0.5278	-0.1134	 0.1041	-0.0093	-0.4955	-0.1237	-0.6193	65.4267	99.9369	
    88	 0.1365	 0.2236	 0.3602	-0.2438	 0.0506	-0.1932	-0.6342	-0.1992	-0.8335	65.5513	99.9382	
    89	-0.0341	 0.1030	 0.0691	-0.4088	-0.1046	-0.5133	-0.7662	-0.3642	-1.1305	65.9334	99.9345	
    90	-0.0912	-0.0252	-0.1162	-0.4451	-0.2340	-0.6791	-0.7019	-0.5114	-1.2135	66.5718	99.9295	
    91	-0.1494	-0.1695	-0.3187	-0.4611	-0.3778	-0.8389	-0.6761	-0.5890	-1.2653	66.6330	99.9230	
    92	-0.3985	-0.2453	-0.6437	-0.5781	-0.3293	-0.9074	-0.6251	-0.4514	-1.0766	66.3745	99.9199	
    93	-0.7408	-0.3786	-1.1193	-1.0167	-0.5728	-1.5895	-1.2175	-0.7650	-1.9826	66.3808	99.9237	
    94	-1.7063	-0.8335	-2.5397	-1.9781	-0.9375	-2.9155	-2.0932	-1.0222	-3.1154	65.3559	99.9136	
    95	-2.0689	-0.9016	-2.9704	-2.2133	-0.9753	-3.1886	-2.1973	-1.0289	-3.2263	65.6818	99.9112	
    96	-1.9587	-0.8338	-2.7924	-2.0821	-0.9078	-2.9899	-2.0536	-0.9739	-3.0276	65.8730	99.9129	
    97	-1.9703	-0.8875	-2.8576	-2.1248	-1.0279	-3.1527	-2.1491	-1.1394	-3.2885	66.2531	99.9140	
    98	-1.9660	-0.9468	-2.9127	-2.1439	-1.1065	-3.2504	-2.1964	-1.2160	-3.4125	66.2536	99.9128	
    99	-1.9586	-0.9577	-2.9162	-2.1512	-1.1111	-3.2623	-2.1837	-1.2080	-3.3919	66.1894	99.9092	
   100	-1.9331	-0.9421	-2.8751	-2.1219	-1.0930	-3.2148	-2.1527	-1.2003	-3.3532	66.2534	99.9107	
   101	-1.9236	-0.9207	-2.8442	-2.0860	-1.0843	-3.1703	-2.1210	-1.1804	-3.3015	66.3171	99.9108	
   102	-1.8897	-0.8998	-2.7894	-2.0631	-1.0568	-3.1199	-2.1013	-1.1562	-3.2576	66.2532	99.9112	
   103	-1.8632	-0.8680	-2.7312	-2.0191	-1.0297	-3.0488	-2.0561	-1.1162	-3.1724	66.2530	99.9107	
   104	-1.7795	-0.8320	-2.6114	-1.9522	-0.9751	-2.9272	-1.9618	-1.0686	-3.0304	66.2528	99.9094	
   105	-1.7191	-0.7793	-2.4983	-1.8650	-0.9347	-2.7997	-1.8976	-1.0165	-2.9143	66.2526	99.9111	
   106	-1.6608	-0.7589	-2.4196	-1.8209	-0.9076	-2.7285	-1.8532	-0.9886	-2.8420	66.1891	99.9105	
   107	-1.6343	-0.7271	-2.3614	-1.7760	-0.8665	-2.6426	-1.8018	-0.9446	-2.7464	66.1890	99.9119	
   108	-1.5231	-0.6431	-2.1661	-1.5999	-0.7580	-2.3579	-1.5455	-0.8422	-2.3877	66.5640	99.9125	
   109	-1.2707	-0.6428	-1.9134	-1.4083	-0.8542	-2.2625	-1.5099	-0.9605	-2.4706	66.6964	99.9153	
   110	-1.2442	-0.6110	-1.8551	-1.3444	-0.7345	-2.0788	-1.3111	-0.8004	-2.1117	66.5632	99.9100	
   111	-1.1520	-0.5697	-1.7217	-1.2369	-0.7084	-1.9453	-1.2429	-0.7810	-2.0239	66.6259	99.9138	
   112	-0.7589	-0.2812	-1.0401	-0.7628	-0.3494	-1.1123	-0.7143	-0.4137	-1.1281	66.6169	99.9201	
   113	-0.1284	 0.0295	-0.0988	-0.2011	-0.0570	-0.2581	-0.2529	-0.1472	-0.4002	66.4327	99.9245	
   114	 0.3464	 0.3217	 0.6682	 0.4145	 0.3089	 0.7234	 0.3861	 0.2309	 0.6169	66.5464	99.9360	
   115	 0.8986	 0.5532	 1.4519	 0.8890	 0.5610	 1.4500	 0.8385	 0.5504	 1.3889	65.9472	99.9285	
   116	 1.1041	 0.7107	 1.8149	 1.1317	 0.8310	 1.9627	 1.1749	 0.8673	 2.0421	65.5395	99.9279	
   117	 1.2811	 0.8042	 2.0854	 1.4153	 0.9656	 2.3809	 1.5312	 1.0091	 2.5402	65.8942	99.9314	
   118	 1.4274	 0.8012	 2.2288	 1.5974	 0.9439	 2.5413	 1.7182	 0.9742	 2.6923	66.2983	99.9330	
   119	 1.3364	 0.6522	 1.9887	 1.4410	 0.7003	 2.1414	 1.4382	 0.6809	 2.1190	66.5364	99.9355	
   120	 1.1234	 0.5056	 1.6291	 1.1704	 0.5470	 1.7173	 1.1550	 0.5382	 1.6931	66.3032	99.9315	
   121	 1.0651	 0.4852	 1.5504	 1.0555	 0.5164	 1.5719	 1.0009	 0.5117	 1.5125	66.0070	99.9299	
   122	 1.0015	 0.5080	 1.5096	 0.9451	 0.5554	 1.5005	 0.8919	 0.5253	 1.4171	65.8277	99.9302	
   123	 0.9294	 0.5256	 1.4551	 0.8173	 0.5436	 1.3610	 0.7061	 0.4789	 1.1849	65.7046	99.9319	
   124	 0.6580	 0.4825	 1.1406	 0.4737	 0.4658	 0.9395	 0.2908	 0.3704	 0.6611	65.3932	99.9330	
   125	 0.2255	 0.3403	 0.5659	 0.0468	 0.2965	 0.3433	-0.2120	 0.1248	-0.0874	65.5061	99.9431	
   126	-0.1973	 0.0955	-0.1017	-0.3971	-0.0304	-0.4275	-0.6372	-0.2479	-0.8852	66.1258	99.9389	
   127	-0.4304	-0.1100	-0.5403	-0.6380	-0.2726	-0.9106	-0.7904	-0.4615	-1.2520	66.5031	99.9266	
   128	-0.5735	-0.1826	-0.7559	-0.7848	-0.3630	-1.1478	-0.9214	-0.5086	-1.4301	66.3775	99.9197	
   129	-0.7250	-0.2603	-0.9853	-0.9428	-0.4068	-1.3496	-1.0389	-0.5356	-1.5746	66.1887	99.9170	
   130	-0.8724	-0.2736	-1.1459	-0.9842	-0.3922	-1.3764	-1.0352	-0.4746	-1.5099	66.1882	99.9185	
   131	-0.8608	-0.2199	-1.0806	-0.9000	-0.2867	-1.1868	-0.8815	-0.3546	-1.2362	66.2493	99.9207	
   132	-0.7284	-0.0609	-0.7892	-0.6846	-0.1139	-0.7984	-0.6567	-0.1664	-0.8231	66.3092	99.9252	
   133	-0.3268	 0.2328	-0.0939	-0.2105	 0.2451	 0.0346	-0.2125	 0.2183	 0.0057	65.9454	99.9347	
   134	 0.3292	 0.5592	 0.8884	 0.3858	 0.6392	 1.0250	 0.4022	 0.6983	 1.1004	65.1768	99.9270	
   135	 0.7743	 0.7712	 1.5456	 0.8905	 0.9233	 1.8138	 0.9558	 0.9759	 1.9316	65.3081	99.9328	
   136	 1.0128	 0.8095	 1.8225	 1.1909	 0.9879	 2.1788	 1.2894	 1.0448	 2.3340	65.6047	99.9355	
   137	 1.1178	 0.7967	 1.9146	 1.3022	 0.9628	 2.2650	 1.3983	 1.0312	 2.4294	65.7209	99.9342	
   138	 1.0225	 0.7070	 1.7295	 1.1869	 0.8115	 1.9984	 1.2339	 0.8340	 2.0678	66.0673	99.9361	
   139	 0.8572	 0.5432	 1.4006	 0.9127	 0.6024	 1.5151	 0.8661	 0.6029	 1.4689	65.8294	99.9349	
   140	 0.6643	 0.4555	 1.1199	 0.6667	 0.5044	 1.1710	 0.6225	 0.5085	 1.1309	65.6487	99.9305	
   141	 0.6017	 0.4944	 1.0963	 0.5782	 0.5570	 1.1352	 0.5340	 0.5584	 1.0923	65.4090	99.9301	
   142	 0.5741	 0.5704	 1.1446	 0.5256	 0.6183	 1.1438	 0.4321	 0.5882	 1.0202	65.2851	99.9339	
   143	 0.4278	 0.5734	 1.0012	 0.2930	 0.6222	 0.9151	 0.1825	 0.5955	 0.7778	64.7951	99.9296	
   144	 0.2009	 0.5887	 0.7896	 0.0448	 0.6031	 0.6479	-0.1519	 0.5144	 0.3624	64.7175	99.9375	
   145	-0.2008	 0.4189	 0.2181	-0.3701	 0.4011	 0.0310	-0.6204	 0.2317	-0.3888	64.9448	99.9448	
   146	-0.5071	 0.2149	-0.2921	-0.6568	 0.1040	-0.5528	-0.8646	-0.0742	-0.9389	65.6878	99.9376	
   147	-0.7529	 0.0635	-0.6893	-0.9284	-0.0633	-0.9917	-1.0619	-0.2099	-1.2719	65.7498	99.9264	
   148	-0.9204	-0.0086	-0.9289	-1.1321	-0.1620	-1.2942	-1.2492	-0.2807	-1.5300	65.6224	99.9179	
   149	-1.0868	-0.0645	-1.1512	-1.2608	-0.1877	-1.4485	-1.3350	-0.2878	-1.6229	65.5615	99.9177	
   150	-1.3570	-0.2154	-1.5723	-1.4736	-0.3189	-1.7925	-1.4999	-0.3914	-1.8913	65.6255	99.9166	
   151	-1.5096	-0.3093	-1.8189	-1.5764	-0.3822	-1.9585	-1.5562	-0.4150	-1.9714	65.5658	99.9149	
   152	-1.5097	-0.1854	-1.6950	-1.4593	-0.2030	-1.6623	-1.3728	-0.2059	-1.5788	65.5740	99.9193	
   153	-1.1654	 0.1041	-1.0612	-1.0448	 0.1059	-0.9389	-0.9662	 0.0613	-0.9050	65.8224	99.9300	
   154	-0.5592	 0.4153	-0.1439	-0.4823	 0.4123	-0.0700	-0.5152	 0.3564	-0.1589	65.5198	99.9361	
   155	-0.1258	 0.6976	 0.5718	-0.0855	 0.7772	 0.6918	-0.1300	 0.7743	 0.6442	64.6867	99.9360	
   156	 0.2069	 0.9334	 1.1404	 0.2371	 1.0830	 1.3201	 0.2529	 1.1557	 1.4086	64.1162	99.9296	
   157	 0.4538	 1.1009	 1.5548	 0.5894	 1.3000	 1.8894	 0.6510	 1.3824	 2.0332	64.3198	99.9353	
   158	 0.6361	 1.1511	 1.7873	 0.8044	 1.3522	 2.1565	 0.8860	 1.4363	 2.3222	64.5614	99.9358	
   159	 0.6510	 1.1293	 1.7803	 0.7806	 1.3108	 2.0914	 0.8268	 1.3638	 2.1905	64.6109	99.9372	
   160	 0.4157	 1.0154	 1.4312	 0.4603	 1.1536	 1.6139	 0.4444	 1.1939	 1.6382	64.3542	99.9347	
   161	 0.2768	 1.0074	 1.2843	 0.2893	 1.1286	 1.4179	 0.2347	 1.1560	 1.3905	64.1642	99.9355	
   162	 0.1962	 1.0198	 1.2161	 0.1487	 1.1356	 1.2843	 0.0701	 1.1581	 1.2281	63.8541	99.9337	
   163	 0.1177	 1.0645	 1.1823	 0.0317	 1.1840	 1.2158	-0.0628	 1.1801	 1.1172	63.6642	99.9350	
   164	-0.0944	 1.0580	 0.9637	-0.2808	 1.1522	 0.8714	-0.4520	 1.0997	 0.6477	63.2614	99.9367	
   165	-0.5851	 0.8953	 0.3103	-0.8023	 0.9380	 0.1357	-1.0738	 0.8028	-0.2712	63.2646	99.9451	
   166	-0.9995	 0.6558	-0.3436	-1.1891	 0.6194	-0.5698	-1.3744	 0.4732	-0.9013	64.0625	99.9364	
   167	-1.2538	 0.4992	-0.7545	-1.4404	 0.4378	-1.0026	-1.5295	 0.3288	-1.2008	64.3143	99.9243	
   168	-1.4552	 0.4062	-1.0489	-1.6019	 0.3383	-1.2636	-1.6485	 0.2775	-1.3712	64.3189	99.9186	
   169	-1.6247	 0.3018	-1.3228	-1.7064	 0.2472	-1.4592	-1.7324	 0.2013	-1.5313	64.4477	99.9210	
   170	-1.8282	 0.1766	-1.6515	-1.8761	 0.1293	-1.7468	-1.8790	 0.0974	-1.7817	64.5098	99.9206	
   171	-1.9247	 0.1947	-1.7299	-1.9140	 0.1996	-1.7144	-1.8653	 0.2233	-1.6421	64.2165	99.9194	
   172	-1.7394	 0.4173	-1.3220	-1.6998	 0.4654	-1.2344	-1.6614	 0.4687	-1.1927	64.0452	99.9275	
   173	-1.4661	 0.7405	-0.7255	-1.4169	 0.8137	-0.6033	-1.3959	 0.8232	-0.5728	63.6961	99.9308	
   174	-1.0042	 1.0869	 0.0829	-0.9393	 1.2283	 0.2890	-0.9559	 1.2404	 0.2845	63.2414	99.9390	
   175	-0.4680	 1.4480	 0.9801	-0.3763	 1.6555	 1.2792	-0.3629	 1.7655	 1.4025	62.6479	99.9351	
   176	-0.1055	 1.6401	 1.5347	 0.0006	 1.9278	 1.9284	 0.0691	 2.0486	 2.1176	62.5188	99.9365	
   177	 0.0979	 1.7654	 1.8634	 0.2851	 2.0763	 2.3614	 0.3776	 2.2073	 2.5848	62.7279	99.9401	
   178	 0.1339	 1.8185	 1.9526	 0.2739	 2.1230	 2.3969	 0.3608	 2.2319	 2.5926	62.6608	99.9391	
   179	-0.0898	 1.7583	 1.6687	-0.0235	 1.9933	 1.9697	-0.0399	 2.0622	 2.0222	62.4867	99.9407	
   180	-0.3442	 1.7257	 1.3816	-0.3075	 1.9656	 1.6580	-0.3347	 2.0294	 1.6946	62.1712	99.9405	
   181	-0.4736	 1.7391	 1.2656	-0.4923	 1.9455	 1.4532	-0.5929	 1.9962	 1.4031	61.8338	99.9414	
   182	-0.5860	 1.7629	 1.1770	-0.6873	 1.9859	 1.2986	-0.7799	 2.0311	 1.2511	61.3945	99.9375	
   183	-0.5956	 1.8654	 1.2699	-0.6877	 2.0928	 1.4051	-0.7860	 2.1329	 1.3468	61.2795	99.9392	
   184	-0.6518	 1.8773	 1.2256	-0.8072	 2.0994	 1.2922	-0.9632	 2.1270	 1.1637	60.8808	99.9402	
   185	-0.9497	 1.8025	 0.8529	-1.1664	 1.9987	 0.8323	-1.3759	 1.9615	 0.5856	60.7450	99.9436	
   186	-1.3609	 1.6113	 0.2505	-1.5701	 1.7500	 0.1799	-1.8290	 1.6298	-0.1993	61.1601	99.9499	
   187	-1.6343	 1.4120	-0.2222	-1.8201	 1.4755	-0.3446	-2.0091	 1.3760	-0.6332	61.7691	99.9405	
   188	-1.9024	 1.2935	-0.6089	-2.1266	 1.3134	-0.8132	-2.2747	 1.2208	-1.0540	61.8678	99.9317	
   189	-2.1568	 1.1369	-1.0198	-2.3697	 1.1503	-1.2194	-2.4601	 1.0809	-1.3793	61.9908	99.9255	
   190	-2.4471	 0.9272	-1.5198	-2.5640	 0.9771	-1.5870	-2.5772	 0.9604	-1.6169	62.1442	99.9238	
   191	-2.5149	 0.8854	-1.6294	-2.5713	 0.9725	-1.5988	-2.5518	 0.9763	-1.5756	62.1680	99.9261	
   192	-2.4663	 1.0084	-1.4578	-2.4720	 1.2078	-1.2642	-2.3983	 1.2956	-1.1028	61.4351	99.9262	
   193	-1.9462	 1.6230	-0.3231	-1.8406	 1.8242	-0.0164	-1.8818	 1.8664	-0.0155	61.3647	99.9452	
   194	-1.3805	 2.0643	 0.6840	-1.3617	 2.3736	 1.0119	-1.3841	 2.5309	 1.1467	60.0185	99.9370	
   195	-0.9047	 2.3727	 1.4682	-0.8060	 2.7962	 1.9902	-0.7470	 2.9782	 2.2310	59.9781	99.9413	
   196	-0.7638	 2.5370	 1.7732	-0.6126	 2.9555	 2.3430	-0.5546	 3.1343	 2.5796	60.1273	99.9442	
   197	-0.8752	 2.5769	 1.7018	-0.7688	 2.9396	 2.1708	-0.7967	 3.0642	 2.2674	60.0573	99.9480	
   198	-1.2886	 2.4774	 1.1889	-1.3567	 2.7916	 1.4349	-1.5083	 2.8985	 1.3901	59.0741	99.9452	
   199	-1.5537	 2.5312	 0.9775	-1.6070	 2.8516	 1.2445	-1.7128	 2.9459	 1.2330	59.0145	99.9444	
   200	-1.5983	 2.5967	 0.9985	-1.6799	 2.9271	 1.2472	-1.8196	 2.9961	 1.1764	58.7478	99.9475	
   201	-1.5899	 2.6020	 1.0122	-1.7490	 2.9515	 1.2025	-1.8730	 3.0211	 1.1481	58.4301	99.9433	
   202	-1.7732	 2.5356	 0.7624	-2.0261	 2.8075	 0.7814	-2.2964	 2.7785	 0.4821	58.3166	99.9502	
   203	-2.2364	 2.2970	 0.0607	-2.4682	 2.5084	 0.0402	-2.7096	 2.4016	-0.3080	59.0367	99.9513	
   204	-2.4535	 2.0858	-0.3677	-2.6695	 2.2238	-0.4457	-2.8419	 2.1309	-0.7111	59.7032	99.9425	
   205	-2.7227	 1.9511	-0.7716	-2.9851	 2.0294	-0.9557	-3.1335	 1.9476	-1.1861	59.7766	99.9333	
   206	-2.9897	 1.7247	-1.2649	-3.2161	 1.8335	-1.3826	-3.2767	 1.7990	-1.4779	59.8647	99.9270	
   207	-3.1741	 1.6422	-1.5318	-3.2593	 1.8203	-1.4390	-3.2372	 1.8472	-1.3901	59.9519	99.9295	
   208	-2.9157	 1.9872	-0.9284	-2.9004	 2.2556	-0.6448	-2.8547	 2.3222	-0.5326	59.5793	99.9370	
   209	-2.2906	 2.4651	 0.1746	-2.2605	 2.7836	 0.5231	-2.3412	 2.8442	 0.5029	58.9733	99.9498	
   210	-2.0142	 2.8367	 0.8226	-2.0453	 3.2910	 1.2457	-2.0573	 3.5034	 1.4460	57.4505	99.9391	
   211	-1.6445	 3.1419	 1.4975	-1.5777	 3.6594	 2.0817	-1.5471	 3.8709	 2.3238	57.6535	99.9455	
   212	-1.7157	 3.2996	 1.5840	-1.6268	 3.7763	 2.1495	-1.6214	 3.9532	 2.3317	57.7497	99.9485	
   213	-1.9744	 3.3263	 1.3520	-1.9855	 3.7963	 1.8109	-2.0561	 3.9263	 1.8700	57.1019	99.9509	
   214	-2.2491	 3.3587	 1.1097	-2.3614	 3.7655	 1.4041	-2.5584	 3.8921	 1.3336	56.2834	99.9505	
   215	-2.4824	 3.4011	 0.9188	-2.6704	 3.7893	 1.1189	-2.8812	 3.9003	 1.0190	55.8356	99.9475	
   216	-2.5757	 3.4676	 0.8920	-2.8361	 3.8479	 1.0118	-3.0943	 3.9071	 0.8127	55.4965	99.9498	
   217	-2.6500	 3.4529	 0.8031	-2.9941	 3.8041	 0.8100	-3.2338	 3.8194	 0.5855	55.5402	99.9454	
   218	-2.8565	 3.2792	 0.4228	-3.1845	 3.5797	 0.3951	-3.4780	 3.5135	 0.0354	56.0382	99.9524	
   219	-3.1277	 2.9883	-0.1393	-3.3716	 3.1833	-0.1883	-3.5960	 3.0759	-0.5202	57.4349	99.9495	
   220	-3.3141	 2.7496	-0.5644	-3.5941	 2.8991	-0.6950	-3.7578	 2.8218	-0.9361	57.7126	99.9384	
   221	-3.5153	 2.5327	-0.9826	-3.7919	 2.6701	-1.1217	-3.8681	 2.6117	-1.2565	58.0922	99.9297	
   222	-3.6900	 2.2236	-1.4663	-3.9094	 2.3702	-1.5392	-3.9638	 2.3405	-1.6234	58.4091	99.9298	
   223	-3.8584	 2.0115	-1.8468	-3.9915	 2.1857	-1.8058	-3.9965	 2.2027	-1.7940	58.6421	99.9295	
   224	-3.8700	 1.9578	-1.9121	-3.9868	 2.1485	-1.8383	-3.9861	 2.1741	-1.8121	58.6534	99.9305	
   225	-3.7979	 1.9402	-1.8576	-3.9104	 2.1286	-1.7818	-3.9144	 2.1488	-1.7657	58.7813	99.9314	
   226	-3.6706	 1.8946	-1.7759	-3.7999	 2.0896	-1.7103	-3.8188	 2.1150	-1.7039	58.7813	99.9314	
   227	-3.6536	 1.9050	-1.7485	-3.7853	 2.0986	-1.6866	-3.8118	 2.1312	-1.6807	58.7192	99.9312	
   228	-3.6844	 1.9325	-1.7518	-3.8120	 2.1223	-1.6897	-3.8405	 2.1600	-1.6806	58.6571	99.9309	
   229	-3.7152	 1.9601	-1.7550	-3.8314	 2.1505	-1.6809	-3.8510	 2.1886	-1.6625	58.6646	99.9310	
   230	-3.6897	 1.9758	-1.7139	-3.8020	 2.1686	-1.6334	-3.8137	 2.2003	-1.6135	58.7340	99.9314	
   231	-3.6654	 1.9753	-1.6900	-3.7818	 2.1543	-1.6274	-3.8025	 2.1839	-1.6187	58.7886	99.9310	
   232	-3.6590	 1.9482	-1.7107	-3.7835	 2.1265	-1.6570	-3.8159	 2.1638	-1.6522	58.7192	99.9306	
   233	-3.6834	 1.9487	-1.7346	-3.8249	 2.1411	-1.6838	-3.8454	 2.1804	-1.6651	58.5951	99.9295	
   234	-3.6908	 1.9596	-1.7311	-3.8314	 2.1505	-1.6809	-3.8510	 2.1886	-1.6625	58.5951	99.9295	
   235	-3.7057	 1.9815	-1.7241	-3.8305	 2.1644	-1.6661	-3.8439	 2.2048	-1.6392	58.6646	99.9293	
   236	-3.6728	 1.9862	-1.6865	-3.7874	 2.1777	-1.6097	-3.8122	 2.2247	-1.5876	58.6101	99.9308	
   237	-3.6474	 2.0019	-1.6454	-3.7653	 2.1912	-1.5741	-3.7988	 2.2449	-1.5540	58.5482	99.9306	
   238	-3.6463	 2.0180	-1.6282	-3.7709	 2.2145	-1.5564	-3.8037	 2.2653	-1.5385	58.4862	99.9308	
   239	-3.6612	 2.0398	-1.6212	-3.7839	 2.2333	-1.5505	-3.8149	 2.2817	-1.5333	58.4862	99.9308	
   240	-3.6760	 2.0617	-1.6142	-3.8033	 2.2615	-1.5418	-3.8134	 2.3060	-1.5074	58.4939	99.9298	
   241	-3.6347	 2.0717	-1.5630	-3.7601	 2.2747	-1.4854	-3.7753	 2.3300	-1.4455	58.4397	99.9296	
   242	-3.6093	 2.0873	-1.5219	-3.7243	 2.2834	-1.4409	-3.7444	 2.3377	-1.4068	58.5053	99.9302	
   243	-3.6082	 2.1035	-1.5047	-3.7234	 2.2974	-1.4261	-3.7492	 2.3581	-1.3912	58.4435	99.9299	
   244	-3.6231	 2.1253	-1.4977	-3.7290	 2.3207	-1.4084	-3.7597	 2.3867	-1.3731	58.3856	99.9306	
   245	-3.6220	 2.1414	-1.4805	-3.7484	 2.3489	-1.3996	-3.7765	 2.4113	-1.3653	58.2582	99.9302	
   246	-3.6210	 2.1576	-1.4633	-3.7402	 2.3673	-1.3729	-3.7512	 2.4272	-1.3240	58.3316	99.9298	
   247	-3.5797	 2.1675	-1.4120	-3.6971	 2.3805	-1.3165	-3.7194	 2.4472	-1.2724	58.2738	99.9304	
   248	-3.5786	 2.1837	-1.3948	-3.6962	 2.3944	-1.3017	-3.7307	 2.4636	-1.2672	58.2082	99.9310	
   249	-3.6020	 2.2003	-1.4015	-3.7238	 2.4042	-1.3196	-3.7482	 2.4760	-1.2723	58.2082	99.9293	
   250	-3.6179	 2.2060	-1.4117	-3.7441	 2.4185	-1.3256	-3.7658	 2.4884	-1.2774	58.1466	99.9295	
   251	-3.6412	 2.2227	-1.4185	-3.7570	 2.4373	-1.3197	-3.7650	 2.5006	-1.2645	58.2161	99.9299	
   252	-3.6083	 2.2274	-1.3809	-3.7147	 2.4366	-1.2782	-3.7340	 2.5083	-1.2258	58.2201	99.9303	
   253	-3.5924	 2.2217	-1.3707	-3.7074	 2.4411	-1.2663	-3.7396	 2.5166	-1.2232	58.0929	99.9311	
   254	-3.6158	 2.2383	-1.3774	-3.7277	 2.4554	-1.2723	-3.7509	 2.5330	-1.2180	58.0969	99.9303	
   255	-3.6381	 2.2711	-1.3669	-3.7333	 2.4787	-1.2546	-3.7677	 2.5576	-1.2102	58.0969	99.9314	
   256	-3.6296	 2.2763	-1.3532	-3.7462	 2.4975	-1.2487	-3.7613	 2.5616	-1.1999	58.0969	99.9308	
   257	-3.5851	 2.3347	-1.2503	-3.7004	 2.5525	-1.1480	-3.7386	 2.6345	-1.1042	57.9162	99.9309	
   258	-3.5809	 2.3993	-1.1816	-3.7025	 2.6315	-1.0711	-3.7532	 2.6957	-1.0577	57.7890	99.9340	
   259	-3.6053	 2.3997	-1.2055	-3.7319	 2.6134	-1.1185	-3.7969	 2.6799	-1.1170	57.7724	99.9333	
   260	-3.6636	 2.3794	-1.2842	-3.7962	 2.6005	-1.1957	-3.8644	 2.6727	-1.1918	57.6406	99.9332	
   261	-3.6955	 2.3908	-1.3046	-3.8506	 2.6340	-1.2166	-3.8995	 2.6975	-1.2021	57.5172	99.9326	
   262	-3.6944	 2.4069	-1.2874	-3.8359	 2.6430	-1.1929	-3.8868	 2.7055	-1.1814	57.5832	99.9332	
   263	-3.7029	 2.4017	-1.3011	-3.8368	 2.6291	-1.2077	-3.8995	 2.6975	-1.2021	57.5789	99.9335	
   264	-3.7273	 2.4022	-1.3250	-3.8579	 2.6294	-1.2285	-3.9305	 2.6898	-1.2408	57.5704	99.9350	
   265	-3.7357	 2.3970	-1.3387	-3.8993	 2.6441	-1.2552	-3.9719	 2.7107	-1.2613	57.3144	99.9338	
   266	-3.7655	 2.4407	-1.3247	-3.9243	 2.6956	-1.2287	-3.9809	 2.7636	-1.2174	57.2659	99.9334	
   267	-3.7402	 2.5803	-1.1598	-3.8643	 2.8665	-0.9978	-3.9206	 2.9540	-0.9667	57.0072	99.9361	
   268	-3.6311	 2.7559	-0.8751	-3.7912	 3.0185	-0.7727	-3.8654	 3.0590	-0.8065	57.0461	99.9374	
   269	-3.6607	 2.6757	-0.9850	-3.8470	 2.9173	-0.9297	-3.9467	 2.9259	-1.0209	57.1774	99.9388	
   270	-3.6712	 2.5142	-1.1569	-3.8988	 2.7649	-1.1340	-4.0455	 2.8051	-1.2405	56.8213	99.9377	
   271	-3.7200	 2.5152	-1.2047	-3.9377	 2.8213	-1.1164	-4.0769	 2.8909	-1.1861	56.4200	99.9391	
   272	-3.6194	 2.6856	-0.9337	-3.8344	 3.0053	-0.8291	-3.9696	 3.0522	-0.9174	56.3873	99.9415	
   273	-3.5346	 2.7378	-0.7967	-3.7537	 3.0551	-0.6986	-3.9125	 3.0881	-0.8245	56.3824	99.9438	
   274	-3.5654	 2.7654	-0.7999	-3.7731	 3.0833	-0.6898	-3.9342	 3.1331	-0.8012	56.2687	99.9435	
   275	-3.5761	 2.8518	-0.7242	-3.7808	 3.1856	-0.5952	-3.9219	 3.2346	-0.6874	56.1700	99.9433	
   276	-3.5316	 2.9102	-0.6213	-3.7423	 3.2360	-0.5063	-3.8958	 3.2627	-0.6332	56.2217	99.9449	
   277	-3.5930	 2.8413	-0.7516	-3.7899	 3.1532	-0.6366	-3.9241	 3.1980	-0.7262	56.3499	99.9423	
   278	-3.6736	 2.8537	-0.8198	-3.8028	 3.1720	-0.6308	-3.8790	 3.2381	-0.6410	56.6011	99.9410	
   279	-3.6769	 2.9292	-0.7476	-3.7764	 3.2552	-0.5212	-3.8190	 3.3227	-0.4963	56.7042	99.9408	
   280	-3.7628	 2.9848	-0.7779	-3.8170	 3.2838	-0.5332	-3.8358	 3.3474	-0.4885	56.9660	99.9405	
   281	-3.8116	 2.9858	-0.8257	-3.8463	 3.2657	-0.5807	-3.8507	 3.3028	-0.5480	57.2660	99.9414	
   282	-3.7881	 2.8452	-0.9428	-3.8495	 3.1031	-0.7463	-3.8603	 3.1443	-0.7160	57.4187	99.9386	
   283	-3.7361	 2.7688	-0.9672	-3.7848	 3.0091	-0.7756	-3.8113	 3.0461	-0.7653	57.6549	99.9396	
   284	-3.7009	 2.5579	-1.1429	-3.7775	 2.7860	-0.9915	-3.8182	 2.8307	-0.9877	57.8056	99.9374	
   285	-3.7316	 2.4615	-1.2699	-3.8113	 2.6983	-1.1129	-3.8648	 2.7662	-1.0987	57.6743	99.9368	
   286	-3.8079	 2.4146	-1.3932	-3.8764	 2.6716	-1.2049	-3.9141	 2.7587	-1.1555	57.5641	99.9362	
   287	-3.7698	 2.5000	-1.2697	-3.8078	 2.7540	-1.0537	-3.8182	 2.8307	-0.9877	57.7813	99.9367	
   288	-3.6765	 2.5574	-1.1190	-3.6912	 2.8124	-0.8788	-3.6802	 2.8940	-0.7863	57.9400	99.9363	
   289	-3.5653	 2.6414	-0.9238	-3.5738	 2.8848	-0.6890	-3.5549	 2.9493	-0.6057	58.1384	99.9367	
   290	-3.4975	 2.6832	-0.8142	-3.4801	 2.9157	-0.5644	-3.4795	 2.9849	-0.4947	58.2109	99.9384	
   291	-3.4476	 2.6983	-0.7492	-3.4305	 2.9195	-0.5109	-3.4366	 2.9884	-0.4483	58.2716	99.9382	
   292	-3.3830	 2.6917	-0.6912	-3.3532	 2.9136	-0.4396	-3.3276	 2.9748	-0.3529	58.5367	99.9373	
   293	-3.2621	 2.6731	-0.5889	-3.2207	 2.8881	-0.3326	-3.2194	 2.9490	-0.2704	58.6615	99.9392	
   294	-3.1995	 2.6341	-0.5652	-3.1875	 2.8550	-0.3325	-3.1914	 2.9080	-0.2834	58.6505	99.9388	
   295	-3.1952	 2.5748	-0.6203	-3.1854	 2.7760	-0.4094	-3.2029	 2.8187	-0.3843	58.8145	99.9391	
   296	-3.2364	 2.4409	-0.7954	-3.2511	 2.6285	-0.6226	-3.2729	 2.6691	-0.6039	58.9078	99.9372	
   297	-3.2500	 2.2310	-1.0189	-3.2870	 2.3922	-0.8949	-3.3250	 2.4136	-0.9114	59.2333	99.9366	
   298	-3.3101	 1.9305	-1.3795	-3.3834	 2.0919	-1.2916	-3.4572	 2.1429	-1.3145	59.1268	99.9345	
   299	-3.3725	 1.7216	-1.6508	-3.4647	 1.9213	-1.5433	-3.5329	 2.0015	-1.5315	58.9343	99.9330	
   300	-3.3586	 1.6836	-1.6750	-3.4297	 1.9161	-1.5136	-3.4758	 2.0374	-1.4385	58.7854	99.9315	
   301	-3.2051	 1.9176	-1.2874	-3.1944	 2.1816	-1.0128	-3.1775	 2.3304	-0.8472	58.8895	99.9319	
   302	-2.8438	 2.2175	-0.6262	-2.7769	 2.4254	-0.3515	-2.7712	 2.4919	-0.2794	59.7096	99.9391	
   303	-2.5204	 2.1841	-0.3362	-2.5736	 2.4034	-0.1703	-2.6462	 2.4415	-0.2048	59.4191	99.9403	
   304	-2.3667	 2.1702	-0.1963	-2.4817	 2.4064	-0.0752	-2.6103	 2.4288	-0.1816	59.1450	99.9428	
   305	-2.3137	 2.2338	-0.0798	-2.4113	 2.5167	 0.1055	-2.5712	 2.5706	-0.0007	58.6821	99.9464	
   306	-2.2894	 2.3573	 0.0680	-2.3970	 2.6326	 0.2357	-2.5463	 2.6801	 0.1337	58.6286	99.9452	
   307	-2.1931	 2.4631	 0.2702	-2.2704	 2.7373	 0.4669	-2.4061	 2.7800	 0.3738	58.7825	99.9462	
   308	-2.2026	 2.4418	 0.2393	-2.2869	 2.7005	 0.4136	-2.4217	 2.7232	 0.3014	58.9501	99.9463	
   309	-2.2524	 2.4266	 0.1743	-2.3292	 2.7012	 0.3720	-2.4624	 2.7563	 0.2938	58.7184	99.9452	
   310	-2.3425	 2.4176	 0.0752	-2.4082	 2.6793	 0.2711	-2.5561	 2.7209	 0.1647	58.7610	99.9471	
   311	-2.5269	 2.3351	-0.1917	-2.5476	 2.5934	 0.0458	-2.6161	 2.6363	 0.0201	59.1492	99.9440	
   312	-2.6000	 2.2126	-0.3872	-2.5775	 2.4545	-0.1229	-2.6178	 2.5062	-0.1118	59.5220	99.9429	
   313	-2.6211	 2.1376	-0.4834	-2.5827	 2.3710	-0.2117	-2.6111	 2.4166	-0.1945	59.7639	99.9428	
   314	-2.6571	 2.0844	-0.5726	-2.6017	 2.2923	-0.3094	-2.6338	 2.3437	-0.2902	59.9392	99.9420	
   315	-2.6507	 2.0574	-0.5932	-2.5888	 2.2735	-0.3152	-2.6226	 2.3273	-0.2954	59.9423	99.9428	
   316	-2.5945	 2.0455	-0.5489	-2.5262	 2.2585	-0.2677	-2.5382	 2.3100	-0.2284	60.1355	99.9417	
   317	-2.4577	 2.0212	-0.4364	-2.3799	 2.2282	-0.1517	-2.3997	 2.2797	-0.1201	60.3251	99.9423	
   318	-2.3707	 1.9817	-0.3889	-2.3117	 2.1899	-0.1219	-2.3415	 2.2342	-0.1074	60.3798	99.9424	
   319	-2.3484	 1.9490	-0.3994	-2.2997	 2.1572	-0.1425	-2.3310	 2.2056	-0.1255	60.3771	99.9416	
   320	-2.3336	 1.9271	-0.4063	-2.2803	 2.1290	-0.1513	-2.3142	 2.1810	-0.1333	60.4375	99.9414	
   321	-2.3028	 1.8996	-0.4031	-2.2600	 2.1147	-0.1453	-2.2847	 2.1644	-0.1205	60.4402	99.9411	
   322	-2.2063	 1.8815	-0.3247	-2.1348	 2.0847	-0.0501	-2.1645	 2.1343	-0.0303	60.6923	99.9423	
   323	-2.1193	 1.8420	-0.2772	-2.0667	 2.0464	-0.0203	-2.1175	 2.1053	-0.0123	60.6267	99.9420	
   324	-2.1044	 1.8202	-0.2842	-2.0611	 2.0231	-0.0380	-2.1070	 2.0767	-0.0304	60.6844	99.9414	
   325	-2.1055	 1.8040	-0.3014	-2.0619	 2.0091	-0.0528	-2.1141	 2.0605	-0.0537	60.6818	99.9422	
   326	-2.1065	 1.7879	-0.3185	-2.0702	 1.9907	-0.0795	-2.1395	 2.0446	-0.0950	60.6133	99.9426	
   327	-2.1319	 1.7722	-0.3596	-2.0857	 1.9677	-0.1180	-2.1585	 2.0326	-0.1260	60.6133	99.9421	
   328	-2.0842	 1.7551	-0.3290	-2.0369	 1.9576	-0.0793	-2.0805	 2.0113	-0.0693	60.8051	99.9414	
   329	-1.9962	 1.7318	-0.2643	-1.9476	 1.9189	-0.0287	-2.0215	 1.9780	-0.0436	60.8604	99.9421	
   330	-1.9919	 1.6724	-0.3194	-1.9861	 1.8685	-0.1176	-2.0681	 1.9135	-0.1547	60.7818	99.9418	
   331	-2.0523	 1.6197	-0.4324	-2.0539	 1.8000	-0.2539	-2.1576	 1.8455	-0.3122	60.7634	99.9419	
   332	-2.1296	 1.5566	-0.5729	-2.1557	 1.7506	-0.4052	-2.2591	 1.7818	-0.4774	60.6866	99.9424	
   333	-2.1815	 1.5092	-0.6722	-2.2356	 1.7148	-0.5208	-2.3646	 1.7506	-0.6141	60.4230	99.9429	
   334	-2.2388	 1.5049	-0.7337	-2.2926	 1.7064	-0.5861	-2.4258	 1.7473	-0.6786	60.3561	99.9426	
   335	-2.2716	 1.5002	-0.7713	-2.3275	 1.7117	-0.6159	-2.4561	 1.7518	-0.7044	60.2948	99.9429	
   336	-2.2388	 1.5049	-0.7337	-2.2714	 1.7061	-0.5653	-2.3893	 1.7469	-0.6425	60.4897	99.9427	
   337	-2.1826	 1.4930	-0.6894	-2.2153	 1.7005	-0.5148	-2.3471	 1.7382	-0.6090	60.4897	99.9443	
   338	-2.1677	 1.4712	-0.6964	-2.2235	 1.6820	-0.5415	-2.3542	 1.7220	-0.6323	60.4230	99.9429	
   339	-2.1921	 1.4717	-0.7203	-2.2438	 1.6963	-0.5475	-2.3654	 1.7384	-0.6271	60.3674	99.9432	
   340	-2.1995	 1.4826	-0.7168	-2.2576	 1.7012	-0.5564	-2.3893	 1.7469	-0.6425	60.3005	99.9429	
   341	-2.2239	 1.4831	-0.7407	-2.2788	 1.7016	-0.5772	-2.4195	 1.7513	-0.6683	60.2364	99.9434	
   342	-2.2568	 1.4783	-0.7783	-2.3211	 1.7023	-0.6188	-2.4680	 1.7560	-0.7121	60.1080	99.9434	
   343	-2.2812	 1.4788	-0.8022	-2.3487	 1.7120	-0.6366	-2.4617	 1.7600	-0.7018	60.1781	99.9419	
   344	-2.2313	 1.4940	-0.7372	-2.2706	 1.7200	-0.5506	-2.3878	 1.7712	-0.6167	60.3120	99.9431	
   345	-2.2069	 1.4935	-0.7133	-2.2567	 1.7151	-0.5416	-2.3941	 1.7673	-0.6270	60.2422	99.9435	
   346	-2.2313	 1.4940	-0.7372	-2.2917	 1.7204	-0.5713	-2.4244	 1.7717	-0.6528	60.1781	99.9429	
   347	-2.2472	 1.4997	-0.7474	-2.2990	 1.7158	-0.5832	-2.4363	 1.7759	-0.6605	60.1781	99.9425	
   348	-2.2716	 1.5002	-0.7713	-2.3405	 1.7305	-0.6100	-2.4785	 1.7846	-0.6940	60.0497	99.9429	
   349	-2.2960	 1.5007	-0.7952	-2.3754	 1.7357	-0.6397	-2.5087	 1.7891	-0.7198	59.9855	99.9423	
   350	-2.3353	 1.5230	-0.8122	-2.3957	 1.7500	-0.6457	-2.5494	 1.8221	-0.7274	59.8629	99.9429	
   351	-2.3014	 1.5439	-0.7574	-2.3655	 1.7820	-0.5835	-2.4811	 1.8416	-0.6397	60.0006	99.9417	
   352	-2.2441	 1.5481	-0.6959	-2.3158	 1.7858	-0.5300	-2.4382	 1.8451	-0.5932	60.0006	99.9417	
   353	-2.2441	 1.5481	-0.6959	-2.3158	 1.7858	-0.5300	-2.4565	 1.8453	-0.6113	59.9333	99.9430	
   354	-2.2685	 1.5486	-0.7198	-2.3370	 1.7862	-0.5508	-2.4748	 1.8456	-0.6293	59.9333	99.9430	
   355	-2.2929	 1.5491	-0.7437	-2.3793	 1.7869	-0.5924	-2.5177	 1.8420	-0.6758	59.8629	99.9423	
   356	-2.3417	 1.5501	-0.7915	-2.4289	 1.7831	-0.6458	-2.5726	 1.8428	-0.7299	59.7954	99.9420	
   357	-2.3904	 1.5511	-0.8393	-2.4712	 1.7838	-0.6874	-2.6155	 1.8392	-0.7764	59.7922	99.9428	
   358	-2.4233	 1.5463	-0.8769	-2.5062	 1.7890	-0.7172	-2.6457	 1.8437	-0.8021	59.7309	99.9430	
   359	-2.3820	 1.5563	-0.8256	-2.4639	 1.7883	-0.6756	-2.5909	 1.8430	-0.7480	59.8598	99.9415	
   360	-2.3661	 1.5506	-0.8154	-2.4363	 1.7785	-0.6577	-2.5789	 1.8388	-0.7402	59.8598	99.9426	
   361	-2.3735	 1.5615	-0.8119	-2.4427	 1.7879	-0.6548	-2.5845	 1.8470	-0.7376	59.8598	99.9426	
   362	-2.3735	 1.5615	-0.8119	-2.4630	 1.8022	-0.6608	-2.6021	 1.8594	-0.7428	59.7340	99.9423	
   363	-2.3979	 1.5620	-0.8358	-2.4842	 1.8026	-0.6816	-2.6260	 1.8678	-0.7582	59.6727	99.9420	
   364	-2.4297	 1.5734	-0.8562	-2.5118	 1.8123	-0.6994	-2.6498	 1.8763	-0.7737	59.6727	99.9420	
   365	-2.4530	 1.5900	-0.8629	-2.5459	 1.8315	-0.7144	-2.6793	 1.8929	-0.7865	59.6082	99.9415	
   366	-2.4605	 1.6010	-0.8594	-2.5312	 1.8405	-0.6906	-2.6540	 1.9089	-0.7452	59.6823	99.9414	
   367	-2.4032	 1.6052	-0.7979	-2.4815	 1.8443	-0.6372	-2.6111	 1.9124	-0.6988	59.6823	99.9414	
   368	-2.4032	 1.6052	-0.7979	-2.4815	 1.8443	-0.6372	-2.6111	 1.9124	-0.6988	59.6823	99.9414	
   369	-2.4371	 1.5843	-0.8527	-2.5109	 1.8263	-0.6846	-2.6484	 1.9007	-0.7478	59.6178	99.9419	
   370	-2.5272	 1.5754	-0.9518	-2.6102	 1.8186	-0.7915	-2.7342	 1.8936	-0.8407	59.5501	99.9405	
   371	-2.5994	 1.5930	-1.0063	-2.6857	 1.8524	-0.8332	-2.8171	 1.9354	-0.8818	59.3014	99.9413	
   372	-2.6376	 1.6314	-1.0060	-2.7456	 1.9092	-0.8364	-2.8690	 1.9848	-0.8843	59.1139	99.9412	
   373	-2.6673	 1.6751	-0.9921	-2.7568	 1.9558	-0.8010	-2.9019	 2.0462	-0.8557	58.9334	99.9429	
   374	-2.6228	 1.7335	-0.8892	-2.7102	 2.0247	-0.6855	-2.8377	 2.0983	-0.7395	59.0088	99.9437	
   375	-2.5242	 1.7477	-0.7764	-2.6109	 2.0323	-0.5786	-2.7463	 2.0971	-0.6493	59.1347	99.9445	
   376	-2.2943	 1.9048	-0.3894	-2.3890	 2.1958	-0.1932	-2.5292	 2.2570	-0.2723	59.1012	99.9450	
   377	-2.0824	 2.0352	-0.0470	-2.2267	 2.3092	 0.0826	-2.4319	 2.3533	-0.0787	58.8936	99.9468	
   378	-2.0464	 2.0884	 0.0421	-2.2085	 2.3740	 0.1655	-2.4219	 2.4182	-0.0037	58.7102	99.9470	
   379	-2.0178	 2.1525	 0.1348	-2.1903	 2.4387	 0.2484	-2.4062	 2.4750	 0.0687	58.6491	99.9472	
   380	-2.0316	 2.1905	 0.1590	-2.2024	 2.4714	 0.2690	-2.4350	 2.5038	 0.0687	58.5805	99.9484	
   381	-2.0624	 2.2180	 0.1558	-2.2485	 2.5233	 0.2747	-2.4805	 2.5573	 0.0766	58.3358	99.9488	
   382	-2.0836	 2.2670	 0.1834	-2.2524	 2.5744	 0.3220	-2.4713	 2.6100	 0.1387	58.3512	99.9490	
   383	-2.0561	 2.3149	 0.2589	-2.1928	 2.6245	 0.4317	-2.4310	 2.6705	 0.2394	58.3055	99.9513	
   384	-2.0466	 2.3363	 0.2898	-2.1911	 2.6524	 0.4613	-2.4239	 2.6867	 0.2626	58.3055	99.9517	
   385	-2.3072	 2.0828	-0.2243	-2.4796	 2.3274	-0.1521	-2.7189	 2.3489	-0.3701	58.6512	99.9475	
   386	-2.7935	 1.7369	-1.0565	-2.9334	 1.9542	-0.9792	-3.1131	 1.9839	-1.1292	59.0438	99.9431	
   387	-3.1178	 1.5063	-1.6113	-3.2710	 1.7462	-1.5248	-3.4294	 1.7969	-1.6326	58.8251	99.9406	
   388	-3.2598	 1.4499	-1.8098	-3.4005	 1.7066	-1.6939	-3.5413	 1.7617	-1.7797	58.7628	99.9409	
   389	-3.2492	 1.4874	-1.7617	-3.3905	 1.7529	-1.6377	-3.5186	 1.8346	-1.6841	58.5951	99.9385	
   390	-3.0893	 1.6943	-1.3949	-3.1625	 2.0138	-1.1487	-3.2434	 2.1482	-1.0953	58.3970	99.9386	
   391	-2.6538	 2.0089	-0.6448	-2.7040	 2.3498	-0.3542	-2.7917	 2.4555	-0.3363	58.5293	99.9439	
   392	-2.3794	 2.2244	-0.1550	-2.4380	 2.5404	 0.1024	-2.6056	 2.6077	 0.0020	58.5182	99.9500	
   393	-2.3180	 2.2932	-0.0247	-2.4410	 2.6055	 0.1645	-2.6336	 2.6487	 0.0150	58.3017	99.9496	
   394	-2.2365	 2.4209	 0.1845	-2.3973	 2.7395	 0.3422	-2.6143	 2.7664	 0.1520	58.0460	99.9506	
   395	-2.2228	 2.5068	 0.2842	-2.4068	 2.8140	 0.4072	-2.6591	 2.8320	 0.1728	57.8384	99.9516	
   396	-2.2864	 2.5297	 0.2433	-2.4970	 2.8387	 0.3417	-2.7681	 2.8456	 0.0774	57.6255	99.9523	
   397	-2.4210	 2.4623	 0.0414	-2.6420	 2.7761	 0.1341	-2.9054	 2.7945	-0.1110	57.4856	99.9508	
   398	-2.5864	 2.4225	-0.1638	-2.7422	 2.7546	 0.0124	-2.9715	 2.8116	-0.1599	57.4670	99.9505	
   399	-2.5663	 2.4814	-0.0848	-2.6891	 2.8141	 0.1250	-2.9073	 2.8637	-0.0437	57.6147	99.9521	
   400	-2.5398	 2.5132	-0.0266	-2.6856	 2.8698	 0.1842	-2.8980	 2.9164	 0.0183	57.4359	99.9520	
   401	-2.5208	 2.5559	 0.0352	-2.6553	 2.9018	 0.2464	-2.8727	 2.9324	 0.0596	57.5578	99.9534	
   402	-2.6395	 2.4828	-0.1565	-2.7875	 2.8204	 0.0330	-3.0058	 2.8487	-0.1573	57.5282	99.9525	
   403	-2.7497	 2.4150	-0.3346	-2.8764	 2.7522	-0.1242	-3.0827	 2.7887	-0.2941	57.5895	99.9523	
   404	-2.8301	 2.3034	-0.5266	-2.9835	 2.6193	-0.3642	-3.2020	 2.6316	-0.5705	57.7233	99.9521	
   405	-3.1946	 1.9551	-1.2394	-3.3709	 2.1799	-1.1910	-3.6252	 2.1898	-1.4356	58.0338	99.9482	
   406	-3.5537	 1.6875	-1.8662	-3.6938	 1.9810	-1.7129	-3.8479	 2.0381	-1.8099	57.9459	99.9442	
   407	-3.5463	 1.6765	-1.8697	-3.6395	 1.9475	-1.6919	-3.7770	 2.0006	-1.7765	58.3390	99.9447	
   408	-3.4816	 1.6699	-1.8117	-3.5972	 1.9468	-1.6503	-3.7404	 2.0001	-1.7404	58.2730	99.9441	
   409	-3.4562	 1.6855	-1.7706	-3.5687	 1.9510	-1.6177	-3.7214	 2.0121	-1.7094	58.2730	99.9436	
   410	-3.4148	 1.6955	-1.7193	-3.5467	 1.9645	-1.5821	-3.6960	 2.0280	-1.6681	58.2108	99.9423	
   411	-3.3894	 1.7111	-1.6782	-3.5246	 1.9781	-1.5465	-3.6650	 2.0357	-1.6294	58.2769	99.9418	
   412	-3.3799	 1.7325	-1.6473	-3.4961	 1.9823	-1.5139	-3.6523	 2.0437	-1.6087	58.3390	99.9427	
   413	-3.3470	 1.7372	-1.6097	-3.4741	 1.9958	-1.4783	-3.6087	 2.0594	-1.5494	58.3507	99.9409	
   414	-3.2569	 1.7462	-1.5106	-3.3749	 2.0034	-1.3714	-3.4990	 2.0580	-1.4411	58.5520	99.9413	
   415	-3.1837	 1.7447	-1.4389	-3.3049	 1.9930	-1.3120	-3.4441	 2.0573	-1.3869	58.5520	99.9408	
   416	-3.1594	 1.7442	-1.4150	-3.2838	 1.9926	-1.2912	-3.4258	 2.0571	-1.3689	58.5520	99.9408	
   417	-3.1434	 1.7385	-1.4048	-3.2626	 1.9923	-1.2704	-3.4019	 2.0486	-1.3534	58.6176	99.9419	
   418	-3.1350	 1.7438	-1.3911	-3.2488	 1.9874	-1.2615	-3.3900	 2.0444	-1.3457	58.6795	99.9416	
   419	-3.1350	 1.7438	-1.3911	-3.2424	 1.9780	-1.2644	-3.3844	 2.0362	-1.3483	58.7414	99.9414	
   420	-3.1032	 1.7323	-1.3707	-3.2212	 1.9776	-1.2436	-3.3534	 2.0439	-1.3096	58.6870	99.9401	
   421	-3.0300	 1.7309	-1.2990	-3.1164	 1.9619	-1.1544	-3.2508	 2.0263	-1.2245	58.9486	99.9413	
   422	-2.9738	 1.7190	-1.2547	-3.0676	 1.9518	-1.1158	-3.2086	 2.0177	-1.1910	58.9486	99.9413	
   423	-2.9504	 1.7024	-1.2480	-3.0473	 1.9375	-1.1098	-3.1911	 2.0052	-1.1859	58.9486	99.9413	
   424	-2.9345	 1.6966	-1.2378	-3.0408	 1.9281	-1.1127	-3.1735	 1.9928	-1.1808	59.0103	99.9400	
   425	-2.9197	 1.6748	-1.2448	-3.0279	 1.9093	-1.1186	-3.1686	 1.9724	-1.1963	59.0068	99.9408	
   426	-2.9292	 1.6534	-1.2757	-3.0435	 1.8864	-1.1571	-3.1884	 1.9483	-1.2402	58.9997	99.9407	
   427	-2.9461	 1.6430	-1.3030	-3.0379	 1.8630	-1.1748	-3.1716	 1.9237	-1.2480	59.1921	99.9405	
   428	-2.8846	 1.5879	-1.2966	-2.9844	 1.8157	-1.1687	-3.1197	 1.8742	-1.2456	59.2538	99.9407	
   429	-2.8623	 1.5551	-1.3071	-2.9585	 1.7781	-1.1804	-3.1036	 1.8374	-1.2663	59.3122	99.9412	
   430	-2.8633	 1.5390	-1.3243	-2.9529	 1.7548	-1.1981	-3.0987	 1.8170	-1.2818	59.3740	99.9410	
   431	-2.8569	 1.5119	-1.3449	-2.9749	 1.7412	-1.2337	-3.1066	 1.7886	-1.3180	59.3673	99.9403	
   432	-2.8739	 1.5015	-1.3723	-2.9905	 1.7182	-1.2722	-3.1319	 1.7727	-1.3593	59.3605	99.9397	
   433	-2.9068	 1.4967	-1.4099	-3.0189	 1.7141	-1.3049	-3.1566	 1.7689	-1.3877	59.3605	99.9397	
   434	-2.8972	 1.5181	-1.3791	-2.9896	 1.7322	-1.2574	-3.1002	 1.7926	-1.3077	59.5042	99.9383	
   435	-2.8230	 1.5328	-1.2902	-2.9244	 1.7589	-1.1655	-3.0319	 1.8121	-1.2200	59.5108	99.9389	
   436	-2.7891	 1.5536	-1.2354	-2.8748	 1.7627	-1.1120	-3.0066	 1.8280	-1.1787	59.5108	99.9395	
   437	-2.7552	 1.5745	-1.1806	-2.8583	 1.7996	-1.0587	-2.9566	 1.8477	-1.1090	59.5823	99.9385	
   438	-2.7446	 1.6120	-1.1325	-2.8355	 1.8271	-1.0084	-2.9424	 1.8800	-1.0625	59.5855	99.9388	
   439	-2.7436	 1.6282	-1.1153	-2.8355	 1.8271	-1.0084	-2.9551	 1.8721	-1.0831	59.6374	99.9392	
   440	-2.8760	 1.4692	-1.4067	-3.0086	 1.6535	-1.3551	-3.1554	 1.6876	-1.4679	59.5853	99.9386	
   441	-3.1092	 1.3876	-1.7215	-3.2227	 1.6153	-1.6074	-3.3636	 1.6740	-1.6897	59.2125	99.9403	
   442	-3.1251	 1.3933	-1.7317	-3.1934	 1.6334	-1.5600	-3.2397	 1.7050	-1.5349	59.5790	99.9360	
   443	-2.9078	 1.4806	-1.4271	-2.9132	 1.7123	-1.2009	-2.9334	 1.8271	-1.1065	59.8265	99.9338	
   444	-2.5201	 1.8123	-0.7077	-2.4538	 2.0622	-0.3916	-2.4612	 2.1707	-0.2906	60.0295	99.9390	
   445	-2.3579	 1.9276	-0.4302	-2.3299	 2.1252	-0.2047	-2.3986	 2.1984	-0.2003	60.1179	99.9404	
   446	-2.3251	 1.9323	-0.3926	-2.2941	 2.1338	-0.1602	-2.3739	 2.2021	-0.1719	60.1179	99.9420	
   447	-2.3166	 1.9375	-0.3789	-2.2729	 2.1335	-0.1394	-2.3318	 2.1934	-0.1384	60.3082	99.9416	
   448	-2.2593	 1.9418	-0.3174	-2.2168	 2.1279	-0.0889	-2.2776	 2.1805	-0.0972	60.4292	99.9415	
   449	-2.2360	 1.9252	-0.3107	-2.1965	 2.1136	-0.0829	-2.2545	 2.1599	-0.0947	60.4897	99.9418	
   450	-2.2201	 1.9195	-0.3005	-2.1827	 2.1087	-0.0740	-2.2425	 2.1557	-0.0870	60.4897	99.9418	
   451	-2.2042	 1.9137	-0.2903	-2.1763	 2.0993	-0.0769	-2.2369	 2.1475	-0.0896	60.4869	99.9410	
   452	-2.2042	 1.9137	-0.2903	-2.1560	 2.0851	-0.0709	-2.2377	 2.1353	-0.1025	60.5447	99.9425	
   453	-2.2052	 1.8976	-0.3075	-2.1569	 2.0711	-0.0857	-2.2089	 2.1065	-0.1026	60.7317	99.9417	
   454	-2.1501	 1.8696	-0.2804	-2.1025	 2.0377	-0.0648	-2.1619	 2.0774	-0.0846	60.7922	99.9415	
   455	-2.1193	 1.8420	-0.2772	-2.0896	 2.0189	-0.0707	-2.1514	 2.0488	-0.1027	60.7870	99.9419	
   456	-2.1278	 1.8368	-0.2909	-2.0904	 2.0050	-0.0855	-2.1402	 2.0324	-0.1079	60.9107	99.9412	
   457	-2.1119	 1.8311	-0.2807	-2.0766	 2.0001	-0.0765	-2.1282	 2.0282	-0.1002	60.9107	99.9412	
   458	-2.1119	 1.8311	-0.2807	-2.0702	 1.9907	-0.0795	-2.1170	 2.0117	-0.1054	61.0318	99.9411	
   459	-2.0885	 1.8144	-0.2740	-2.0563	 1.9858	-0.0705	-2.0931	 2.0033	-0.0899	61.0343	99.9409	
   460	-2.0323	 1.8025	-0.2296	-1.9800	 1.9659	-0.0140	-2.0271	 1.9862	-0.0410	61.1601	99.9420	
   461	-2.0090	 1.7859	-0.2229	-1.9606	 1.9377	-0.0228	-2.0110	 1.9494	-0.0617	61.2764	99.9419	
   462	-1.9951	 1.7479	-0.2471	-1.9696	 1.9054	-0.0643	-2.0196	 1.9088	-0.1108	61.2693	99.9415	
   463	-2.0206	 1.7323	-0.2882	-1.9861	 1.8685	-0.1176	-2.0401	 1.8725	-0.1677	61.3859	99.9409	
   464	-2.0386	 1.7057	-0.3328	-2.0089	 1.8410	-0.1679	-2.0598	 1.8483	-0.2116	61.3836	99.9401	
   465	-2.0386	 1.7057	-0.3328	-1.9951	 1.8361	-0.1590	-2.0423	 1.8359	-0.2065	61.5073	99.9409	
   466	-1.9993	 1.6833	-0.3159	-1.9472	 1.8121	-0.1351	-2.0008	 1.8151	-0.1859	61.5702	99.9415	
   467	-1.9675	 1.6719	-0.2955	-1.9123	 1.8069	-0.1054	-1.9643	 1.8146	-0.1498	61.5746	99.9416	
   468	-1.9092	 1.6923	-0.2168	-1.8342	 1.8148	-0.0193	-1.8848	 1.8176	-0.0672	61.7629	99.9422	
   469	-1.8530	 1.6804	-0.1725	-1.8204	 1.8099	-0.0104	-1.8799	 1.7972	-0.0828	61.6915	99.9420	
   470	-1.8699	 1.6700	-0.1999	-1.8286	 1.7915	-0.0371	-1.8926	 1.7893	-0.1034	61.6915	99.9415	
   471	-1.8286	 1.6799	-0.1486	-1.7643	 1.8044	 0.0401	-1.8060	 1.8085	 0.0024	61.8276	99.9409	
   472	-1.7554	 1.6785	-0.0769	-1.7008	 1.8033	 0.1025	-1.7400	 1.7914	 0.0513	61.9485	99.9414	
   473	-1.7226	 1.6832	-0.0393	-1.6585	 1.8026	 0.1441	-1.7097	 1.7869	 0.0771	62.0090	99.9427	
   474	-1.7151	 1.6723	-0.0428	-1.6741	 1.7796	 0.1055	-1.7422	 1.7548	 0.0125	61.9969	99.9425	
   475	-1.7565	 1.6623	-0.0940	-1.7375	 1.7807	 0.0432	-1.7970	 1.7555	-0.0416	61.8715	99.9414	
   476	-1.7798	 1.6790	-0.1008	-1.7375	 1.7807	 0.0432	-1.8082	 1.7719	-0.0364	61.8736	99.9412	
   477	-1.7300	 1.6941	-0.0358	-1.6935	 1.8078	 0.1143	-1.7407	 1.7792	 0.0384	62.0010	99.9415	
   478	-1.6643	 1.7036	 0.0394	-1.6309	 1.7928	 0.1619	-1.6993	 1.7583	 0.0589	62.1163	99.9417	
   479	-1.6738	 1.6822	 0.0085	-1.6603	 1.7747	 0.1145	-1.7310	 1.7384	 0.0073	62.0496	99.9410	
   480	-1.6982	 1.6827	-0.0154	-1.6676	 1.7702	 0.1026	-1.7492	 1.7386	-0.0107	62.0496	99.9421	
   481	-1.6727	 1.6984	 0.0257	-1.6732	 1.7935	 0.1203	-1.7366	 1.7466	 0.0099	62.0476	99.9407	
   482	-1.6812	 1.6932	 0.0120	-1.6814	 1.7751	 0.0937	-1.7739	 1.7349	-0.0391	61.9787	99.9414	
   483	-1.6802	 1.7093	 0.0292	-1.6723	 1.8074	 0.1351	-1.7175	 1.7585	 0.0409	62.1143	99.9403	
   484	-1.6145	 1.7188	 0.1044	-1.5886	 1.7921	 0.2035	-1.6571	 1.7496	 0.0924	62.2358	99.9408	
   485	-1.5985	 1.7131	 0.1146	-1.5748	 1.7872	 0.2124	-1.6515	 1.7414	 0.0898	62.2339	99.9416	
   486	-1.5901	 1.7183	 0.1283	-1.5748	 1.7872	 0.2124	-1.6634	 1.7456	 0.0821	62.1692	99.9413	
   487	-1.5816	 1.7235	 0.1420	-1.5813	 1.7966	 0.2154	-1.6698	 1.7417	 0.0718	62.1654	99.9417	
   488	-1.5975	 1.7292	 0.1318	-1.5951	 1.8015	 0.2064	-1.6698	 1.7417	 0.0718	62.2281	99.9412	
   489	-1.5731	 1.7287	 0.1557	-1.5813	 1.7966	 0.2154	-1.6642	 1.7335	 0.0692	62.2243	99.9411	
   490	-1.5498	 1.7121	 0.1624	-1.5545	 1.7729	 0.2184	-1.6593	 1.7131	 0.0537	62.2205	99.9421	
   491	-1.5423	 1.7012	 0.1589	-1.5757	 1.7733	 0.1976	-1.6895	 1.7175	 0.0279	62.0316	99.9415	
   492	-1.5572	 1.7230	 0.1659	-1.5739	 1.8011	 0.2272	-1.6698	 1.7417	 0.0718	62.1006	99.9419	
   493	-1.5318	 1.7387	 0.2070	-1.5454	 1.8053	 0.2599	-1.6451	 1.7454	 0.1002	62.1615	99.9416	
   494	-1.5402	 1.7334	 0.1933	-1.5592	 1.8102	 0.2509	-1.6634	 1.7456	 0.0821	62.0986	99.9426	
   495	-1.5477	 1.7444	 0.1968	-1.5519	 1.8147	 0.2628	-1.6444	 1.7576	 0.1131	62.1654	99.9417	
   496	-1.4979	 1.7595	 0.2618	-1.4949	 1.8230	 0.3281	-1.5951	 1.7651	 0.1699	62.2281	99.9423	
   497	-1.4491	 1.7586	 0.3096	-1.4673	 1.8133	 0.3460	-1.5895	 1.7569	 0.1673	62.1595	99.9419	
   498	-1.4650	 1.7643	 0.2994	-1.4949	 1.8230	 0.3281	-1.6078	 1.7571	 0.1492	62.1576	99.9415	
   499	-1.4724	 1.7752	 0.3029	-1.5014	 1.8324	 0.3310	-1.6015	 1.7611	 0.1595	62.2205	99.9410	
   500	-1.4639	 1.7804	 0.3166	-1.4876	 1.8276	 0.3400	-1.6134	 1.7653	 0.1518	62.1556	99.9418	
   501	-1.4724	 1.7752	 0.3029	-1.5161	 1.8234	 0.3073	-1.6261	 1.7574	 0.1312	62.1537	99.9399	
   502	-1.4555	 1.7856	 0.3303	-1.4941	 1.8370	 0.3429	-1.6071	 1.7693	 0.1621	62.1556	99.9407	
   503	-1.4226	 1.7904	 0.3679	-1.4802	 1.8321	 0.3518	-1.6015	 1.7611	 0.1595	62.1498	99.9398	
   504	-1.4385	 1.7961	 0.3577	-1.5014	 1.8324	 0.3310	-1.6381	 1.7616	 0.1234	62.0827	99.9402	
   505	-1.4459	 1.8070	 0.3612	-1.5217	 1.8467	 0.3250	-1.6556	 1.7740	 0.1183	62.0195	99.9397	
   506	-1.4619	 1.8127	 0.3509	-1.5419	 1.8610	 0.3190	-1.6851	 1.7907	 0.1055	61.8950	99.9404	
   507	-1.4767	 1.8346	 0.3579	-1.5558	 1.8659	 0.3101	-1.6970	 1.7949	 0.0977	61.9541	99.9393	
   508	-1.4598	 1.8450	 0.3853	-1.5475	 1.8843	 0.3368	-1.6717	 1.8108	 0.1390	61.9583	99.9383	
   509	-1.4259	 1.8659	 0.4401	-1.5108	 1.9069	 0.3961	-1.6575	 1.8432	 0.1855	61.8358	99.9394	
   510	-1.4079	 1.8925	 0.4847	-1.5100	 1.9208	 0.4109	-1.6695	 1.8474	 0.1778	61.8273	99.9393	
   511	-1.4322	 1.8929	 0.4608	-1.5523	 1.9216	 0.3693	-1.7116	 1.8561	 0.1443	61.7003	99.9376	
   512	-1.4566	 1.8934	 0.4369	-1.5864	 1.9407	 0.3544	-1.7355	 1.8645	 0.1289	61.6389	99.9384	
   513	-1.4885	 1.9048	 0.4165	-1.6140	 1.9505	 0.3365	-1.7650	 1.8811	 0.1160	61.5775	99.9381	
   514	-1.4630	 1.9205	 0.4576	-1.5773	 1.9731	 0.3958	-1.7150	 1.9008	 0.1857	61.6478	99.9385	
   515	-1.4376	 1.9362	 0.4987	-1.5488	 1.9772	 0.4284	-1.6841	 1.9086	 0.2244	61.7112	99.9375	
   516	-1.4206	 1.9466	 0.5261	-1.5406	 1.9957	 0.4551	-1.6889	 1.9290	 0.2399	61.5865	99.9383	
   517	-1.4206	 1.9466	 0.5261	-1.5406	 1.9957	 0.4551	-1.6953	 1.9250	 0.2296	61.5843	99.9391	
   518	-1.4376	 1.9362	 0.4987	-1.5699	 1.9776	 0.4077	-1.7326	 1.9133	 0.1806	61.5161	99.9379	
   519	-1.4705	 1.9314	 0.4611	-1.5984	 1.9734	 0.3750	-1.7516	 1.9013	 0.1496	61.5775	99.9381	
   520	-1.4705	 1.9314	 0.4611	-1.5984	 1.9734	 0.3750	-1.7509	 1.9135	 0.1625	61.5184	99.9371	
   521	-1.4461	 1.9309	 0.4850	-1.5773	 1.9731	 0.3958	-1.7206	 1.9090	 0.1883	61.5820	99.9366	
   522	-1.4376	 1.9362	 0.4987	-1.5691	 1.9915	 0.4224	-1.7072	 1.9292	 0.2219	61.5252	99.9369	
   523	-1.4122	 1.9518	 0.5397	-1.5397	 2.0096	 0.4699	-1.6819	 1.9451	 0.2632	61.5275	99.9378	
   524	-1.3952	 1.9622	 0.5671	-1.5250	 2.0186	 0.4936	-1.6692	 1.9531	 0.2838	61.5275	99.9378	
   525	-1.3942	 1.9784	 0.5843	-1.4965	 2.0228	 0.5263	-1.6438	 1.9690	 0.3251	61.5955	99.9379	
   526	-1.3602	 1.9993	 0.6391	-1.4672	 2.0409	 0.5737	-1.6009	 1.9726	 0.3716	61.7199	99.9377	
   527	-1.3200	 1.9931	 0.6732	-1.4396	 2.0311	 0.5916	-1.5833	 1.9601	 0.3767	61.7156	99.9376	
   528	-1.3136	 1.9660	 0.6525	-1.4404	 2.0172	 0.5768	-1.5897	 1.9561	 0.3664	61.5932	99.9376	
   529	-1.3051	 1.9712	 0.6662	-1.4193	 2.0169	 0.5976	-1.5651	 1.9599	 0.3947	61.6588	99.9374	
   530	-1.2966	 1.9764	 0.6799	-1.4184	 2.0308	 0.6124	-1.5524	 1.9679	 0.4154	61.6610	99.9372	
   531	-1.2966	 1.9764	 0.6799	-1.4046	 2.0259	 0.6213	-1.5524	 1.9679	 0.4154	61.6610	99.9383	
   532	-1.2881	 1.9817	 0.6936	-1.3973	 2.0304	 0.6332	-1.5397	 1.9758	 0.4360	61.6632	99.9375	
   533	-1.2553	 1.9864	 0.7312	-1.3623	 2.0252	 0.6629	-1.5095	 1.9714	 0.4618	61.7243	99.9372	
   534	-1.2553	 1.9864	 0.7312	-1.3761	 2.0301	 0.6539	-1.5277	 1.9716	 0.4438	61.6588	99.9374	
   535	-1.2881	 1.9817	 0.6936	-1.4055	 2.0120	 0.6065	-1.5651	 1.9599	 0.3947	61.6544	99.9368	
   536	-1.3040	 1.9874	 0.6834	-1.4258	 2.0263	 0.6005	-1.5707	 1.9681	 0.3973	61.6566	99.9366	
   537	-1.3030	 2.0035	 0.7006	-1.4314	 2.0496	 0.6182	-1.5811	 1.9967	 0.4155	61.5343	99.9366	
   538	-1.2776	 2.0192	 0.7417	-1.4020	 2.0677	 0.6657	-1.5438	 2.0084	 0.4645	61.5999	99.9369	
   539	-1.2617	 2.0135	 0.7519	-1.3882	 2.0628	 0.6746	-1.5438	 2.0084	 0.4645	61.5366	99.9374	
   540	-1.2701	 2.0082	 0.7382	-1.4029	 2.0537	 0.6509	-1.5621	 2.0087	 0.4465	61.4732	99.9363	
   541	-1.2860	 2.0139	 0.7280	-1.4167	 2.0586	 0.6419	-1.5741	 2.0129	 0.4387	61.4732	99.9363	
   542	-1.2935	 2.0249	 0.7315	-1.4296	 2.0774	 0.6478	-1.5797	 2.0211	 0.4413	61.4732	99.9369	
   543	-1.2935	 2.0249	 0.7315	-1.4361	 2.0868	 0.6507	-1.5845	 2.0415	 0.4569	61.3532	99.9361	
   544	-1.2680	 2.0405	 0.7726	-1.3929	 2.1000	 0.7071	-1.5472	 2.0532	 0.5059	61.4190	99.9375	
   545	-1.2755	 2.0515	 0.7761	-1.4067	 2.1049	 0.6982	-1.5536	 2.0492	 0.4956	61.4777	99.9369	
   546	-1.2755	 2.0515	 0.7761	-1.4141	 2.1004	 0.6863	-1.5774	 2.0577	 0.4801	61.3509	99.9363	
   547	-1.2755	 2.0515	 0.7761	-1.4279	 2.1053	 0.6774	-1.5894	 2.0619	 0.4724	61.2874	99.9357	
   548	-1.2840	 2.0462	 0.7624	-1.4352	 2.1007	 0.6655	-1.5957	 2.0579	 0.4621	61.2874	99.9357	
   549	-1.2914	 2.0572	 0.7659	-1.4279	 2.1053	 0.6774	-1.5894	 2.0619	 0.4724	61.3509	99.9363	
   550	-1.2755	 2.0515	 0.7761	-1.4067	 2.1049	 0.6982	-1.5655	 2.0534	 0.4878	61.4144	99.9375	
   551	-1.2670	 2.0567	 0.7898	-1.4205	 2.1098	 0.6893	-1.5774	 2.0577	 0.4801	61.3485	99.9360	
   552	-1.2670	 2.0567	 0.7898	-1.4132	 2.1143	 0.7011	-1.5767	 2.0698	 0.4930	61.2898	99.9366	
   553	-1.2585	 2.0619	 0.8035	-1.4067	 2.1049	 0.6982	-1.5830	 2.0659	 0.4827	61.2850	99.9360	
   554	-1.2670	 2.0567	 0.7898	-1.4343	 2.1147	 0.6803	-1.5894	 2.0619	 0.4724	61.2850	99.9354	
   555	-1.2511	 2.0510	 0.8000	-1.4067	 2.1049	 0.6982	-1.5774	 2.0577	 0.4801	61.2850	99.9365	
   556	-1.2596	 2.0457	 0.7863	-1.4149	 2.0865	 0.6715	-1.5726	 2.0373	 0.4646	61.4074	99.9349	
   557	-1.2437	 2.0400	 0.7965	-1.3938	 2.0861	 0.6923	-1.5655	 2.0534	 0.4878	61.2874	99.9352	
   558	-1.2511	 2.0510	 0.8000	-1.3938	 2.0861	 0.6923	-1.5718	 2.0494	 0.4775	61.3462	99.9357	
   559	-1.2521	 2.0348	 0.7828	-1.4158	 2.0725	 0.6567	-1.5916	 2.0253	 0.4336	61.3391	99.9353	
   560	-1.2701	 2.0082	 0.7382	-1.4314	 2.0496	 0.6182	-1.5987	 2.0091	 0.4103	61.3415	99.9345	
   561	-1.2383	 1.9968	 0.7586	-1.4176	 2.0447	 0.6272	-1.5811	 1.9967	 0.4155	61.3391	99.9342	
   562	-1.2383	 1.9968	 0.7586	-1.4111	 2.0353	 0.6242	-1.5811	 1.9967	 0.4155	61.3391	99.9336	
   563	-1.2383	 1.9968	 0.7586	-1.4111	 2.0353	 0.6242	-1.5867	 2.0049	 0.4181	61.2778	99.9334	
   564	-1.2203	 2.0234	 0.8032	-1.3873	 2.0767	 0.6894	-1.5536	 2.0492	 0.4956	61.2262	99.9338	
   565	-1.1779	 2.0495	 0.8717	-1.3506	 2.0993	 0.7487	-1.5162	 2.0609	 0.5446	61.2874	99.9341	
   566	-1.1610	 2.0599	 0.8991	-1.3075	 2.1125	 0.8051	-1.4719	 2.0888	 0.6169	61.2993	99.9346	
   567	-1.0857	 2.0908	 1.0052	-1.2505	 2.1209	 0.8704	-1.4360	 2.0762	 0.6400	61.4097	99.9352	
   568	-1.1228	 2.0215	 0.8988	-1.3183	 2.0523	 0.7340	-1.5319	 2.0042	 0.4722	61.2658	99.9357	
   569	-1.2001	 1.9583	 0.7583	-1.4072	 1.9841	 0.5769	-1.6150	 1.9402	 0.3251	61.2562	99.9338	
   570	-1.2287	 1.8943	 0.6657	-1.4465	 1.9198	 0.4732	-1.6575	 1.8432	 0.1855	61.4268	99.9360	
   571	-1.2763	 1.7874	 0.5113	-1.5105	 1.8001	 0.2896	-1.7492	 1.7386	-0.0107	61.3461	99.9349	
   572	-1.3048	 1.7234	 0.4186	-1.5433	 1.7263	 0.1830	-1.7783	 1.6617	-0.1167	61.4630	99.9339	
   573	-1.3514	 1.6327	 0.2814	-1.6120	 1.6438	 0.0319	-1.8447	 1.5731	-0.2716	61.4513	99.9334	
   574	-1.4213	 1.5586	 0.1374	-1.6660	 1.5704	-0.0955	-1.8976	 1.5047	-0.3930	61.5112	99.9339	
   575	-1.4488	 1.5107	 0.0620	-1.6824	 1.5335	-0.1489	-1.9118	 1.4723	-0.4395	61.5136	99.9348	
   576	-1.4668	 1.4841	 0.0174	-1.6841	 1.5057	-0.1784	-1.9252	 1.4522	-0.4731	61.5136	99.9359	
   577	-1.4520	 1.4623	 0.0104	-1.6712	 1.4869	-0.1843	-1.8964	 1.4233	-0.4732	61.6403	99.9357	
   578	-1.4615	 1.4409	-0.0205	-1.6665	 1.4497	-0.2168	-1.9042	 1.3950	-0.5094	61.7003	99.9356	
   579	-1.4795	 1.4143	-0.0651	-1.6958	 1.4316	-0.2643	-1.9303	 1.3668	-0.5636	61.6959	99.9361	
   580	-1.4890	 1.3930	-0.0960	-1.7040	 1.4131	-0.2909	-1.9438	 1.3467	-0.5972	61.6936	99.9369	
   581	-1.5060	 1.3825	-0.1233	-1.7261	 1.3996	-0.3265	-1.9628	 1.3347	-0.6282	61.6914	99.9360	
   582	-1.5070	 1.3664	-0.1405	-1.7196	 1.3902	-0.3294	-1.9572	 1.3265	-0.6308	61.6936	99.9369	
   583	-1.4911	 1.3607	-0.1303	-1.6993	 1.3759	-0.3234	-1.9452	 1.3223	-0.6230	61.6936	99.9363	
   584	-1.4996	 1.3555	-0.1440	-1.7131	 1.3808	-0.3324	-1.9579	 1.3143	-0.6437	61.6914	99.9377	
   585	-1.5240	 1.3559	-0.1679	-1.7278	 1.3717	-0.3561	-1.9762	 1.3146	-0.6617	61.6914	99.9371	
   586	-1.5324	 1.3507	-0.1816	-1.7628	 1.3770	-0.3858	-2.0008	 1.3108	-0.6901	61.6245	99.9362	
   587	-1.5812	 1.3517	-0.2294	-1.8189	 1.3825	-0.4363	-2.0732	 1.3239	-0.7494	61.4301	99.9367	
   588	-1.5707	 1.3892	-0.1814	-1.7200	 1.4970	-0.2229	-1.8528	 1.4390	-0.4138	61.7465	99.9383	
   589	-1.1446	 1.5585	 0.4140	-1.3353	 1.6670	 0.3317	-1.5977	 1.6228	 0.0251	61.2465	99.9438	
   590	-1.1351	 1.5799	 0.4449	-1.3327	 1.7088	 0.3761	-1.5779	 1.6469	 0.0690	61.2513	99.9449	
   591	-1.1371	 1.5476	 0.4105	-1.3288	 1.6576	 0.3288	-1.6062	 1.5822	-0.0241	61.3604	99.9472	
   592	-1.2346	 1.4256	 0.1911	-1.4066	 1.5428	 0.1362	-1.6804	 1.4653	-0.2152	61.4793	99.9486	
   593	-1.3977	 1.2941	-0.1035	-1.5284	 1.4009	-0.1275	-1.7736	 1.3363	-0.4373	61.7290	99.9474	
   594	-1.5450	 1.1570	-0.3879	-1.6575	 1.2544	-0.4031	-1.8843	 1.2198	-0.6646	61.7887	99.9444	
   595	-1.6467	 1.0944	-0.5522	-1.7594	 1.2050	-0.5544	-1.9421	 1.1718	-0.7704	61.8549	99.9421	
   596	-1.6552	 1.0891	-0.5659	-1.7667	 1.2005	-0.5662	-1.9668	 1.1680	-0.7988	61.7887	99.9433	
   597	-1.6213	 1.1100	-0.5112	-1.7162	 1.2182	-0.4980	-1.9295	 1.1798	-0.7498	61.8527	99.9454	
   598	-1.6192	 1.1423	-0.4768	-1.7136	 1.2600	-0.4536	-1.9026	 1.2201	-0.6826	61.8613	99.9445	
   599	-1.5344	 1.1945	-0.3398	-1.6937	 1.3526	-0.3411	-1.9621	 1.3469	-0.6152	60.9793	99.9462	
   600	-1.7540	 1.3228	-0.4311	-1.8184	 1.5033	-0.3150	-1.9827	 1.5098	-0.4730	61.1553	99.9451	
   601	-1.6947	 1.3594	-0.3352	-1.7825	 1.5120	-0.2705	-1.9651	 1.4974	-0.4678	61.2634	99.9449	
   602	-1.7530	 1.3390	-0.4139	-1.8853	 1.4487	-0.4366	-2.0912	 1.4299	-0.6614	61.2319	99.9416	
   603	-1.7954	 1.3129	-0.4824	-1.9440	 1.4125	-0.5315	-2.1300	 1.3938	-0.7363	61.2889	99.9385	
   604	-1.7858	 1.3342	-0.4515	-1.9237	 1.3983	-0.5255	-2.1188	 1.3774	-0.7415	61.4700	99.9376	
   605	-1.6713	 1.3427	-0.3285	-1.8042	 1.3916	-0.4126	-1.9501	 1.3427	-0.6075	61.9785	99.9356	
   606	-1.5579	 1.3351	-0.2227	-1.6717	 1.3661	-0.3056	-1.8531	 1.3333	-0.5199	62.0424	99.9368	
   607	-1.5250	 1.3398	-0.1851	-1.6367	 1.3609	-0.2758	-1.8109	 1.3246	-0.4864	62.1680	99.9359	
   608	-1.4921	 1.3445	-0.1475	-1.6009	 1.3696	-0.2313	-1.7680	 1.3281	-0.4399	62.2336	99.9363	
   609	-1.4434	 1.3436	-0.0997	-1.5724	 1.3737	-0.1987	-1.7370	 1.3359	-0.4012	62.1719	99.9349	
   610	-1.4349	 1.3488	-0.0860	-1.5448	 1.3640	-0.1808	-1.7251	 1.3317	-0.3935	62.2336	99.9357	
   611	-1.4020	 1.3535	-0.0484	-1.5228	 1.3775	-0.1452	-1.6702	 1.3310	-0.3394	62.3627	99.9345	
   612	-1.3617	 1.3473	-0.0143	-1.4740	 1.3674	-0.1066	-1.6344	 1.3183	-0.3162	62.4243	99.9358	
   613	-1.3458	 1.3416	-0.0041	-1.4611	 1.3486	-0.1125	-1.6295	 1.2979	-0.3317	62.4823	99.9355	
   614	-1.3469	 1.3255	-0.0213	-1.4758	 1.3396	-0.1362	-1.6239	 1.2897	-0.3343	62.4842	99.9335	
   615	-1.3289	 1.3520	 0.0233	-1.4455	 1.3716	-0.0739	-1.5915	 1.3218	-0.2698	62.4896	99.9345	
   616	-1.3193	 1.3734	 0.0542	-1.4373	 1.3900	-0.0473	-1.5780	 1.3420	-0.2362	62.4914	99.9337	
   617	-1.2929	 1.4052	 0.1124	-1.3859	 1.4217	 0.0357	-1.5210	 1.3778	-0.1432	62.5618	99.9345	
   618	-1.2166	 1.4522	 0.2357	-1.3043	 1.4853	 0.1810	-1.4307	 1.4580	 0.0272	62.4517	99.9340	
   619	-1.1202	 1.5580	 0.4379	-1.1916	 1.5949	 0.4033	-1.3024	 1.5621	 0.2596	62.5271	99.9346	
   620	-1.0333	 1.6425	 0.6093	-1.1018	 1.6770	 0.5752	-1.2241	 1.6465	 0.4222	62.4715	99.9353	
   621	-0.9369	 1.7483	 0.8115	-1.0029	 1.7915	 0.7886	-1.1316	 1.7632	 0.6314	62.3591	99.9363	
   622	-0.8639	 1.8708	 1.0070	-0.9170	 1.9248	 1.0078	-1.0504	 1.8963	 0.8459	62.2490	99.9382	
   623	-0.7803	 2.0308	 1.2506	-0.8275	 2.1137	 1.2862	-0.9781	 2.0825	 1.1042	61.9587	99.9419	
   624	-0.6606	 2.1200	 1.4595	-0.7010	 2.2184	 1.5174	-0.8562	 2.1826	 1.3263	61.9106	99.9439	
   625	-0.5938	 2.1456	 1.5519	-0.6358	 2.2452	 1.6094	-0.8062	 2.2022	 1.3960	61.9106	99.9454	
   626	-0.5948	 2.1295	 1.5347	-0.6220	 2.2403	 1.6183	-0.7942	 2.1980	 1.4037	61.9147	99.9470	
   627	-0.5768	 2.1560	 1.5793	-0.5900	 2.3002	 1.7101	-0.7532	 2.2707	 1.5174	61.7492	99.9482	
   628	-0.5239	 2.2196	 1.6959	-0.5223	 2.3687	 1.8464	-0.6883	 2.3349	 1.6465	61.7576	99.9498	
   629	-0.5048	 2.2624	 1.7576	-0.4912	 2.4146	 1.9235	-0.6369	 2.3790	 1.7420	61.8277	99.9494	
   630	-0.3925	 2.3625	 1.9701	-0.3288	 2.5280	 2.1992	-0.4657	 2.4866	 2.0208	61.9708	99.9526	
   631	-0.2304	 2.4778	 2.2475	-0.1142	 2.6870	 2.5727	-0.2422	 2.6504	 2.4081	61.9453	99.9566	
   632	-0.0588	 2.6145	 2.5558	 0.1004	 2.8459	 2.9463	-0.0315	 2.8063	 2.7747	61.9707	99.9601	
   633	 0.0525	 2.6985	 2.7510	 0.2195	 2.9461	 3.1657	 0.0975	 2.9226	 3.0200	61.8717	99.9597	
   634	 0.1871	 2.7658	 2.9530	 0.3599	 3.0460	 3.4058	 0.2195	 3.0227	 3.2420	61.7095	99.9624	
   635	 0.2877	 2.8123	 3.1002	 0.4277	 3.1145	 3.5421	 0.2746	 3.1277	 3.4022	61.3100	99.9606	
   636	 0.4383	 2.8740	 3.3123	 0.5744	 3.2049	 3.7794	 0.4332	 3.2273	 3.6604	61.2146	99.9605	
   637	 0.5369	 2.8881	 3.4251	 0.6543	 3.2407	 3.8950	 0.5029	 3.2711	 3.7739	61.0463	99.9608	
   638	 0.5548	 2.9147	 3.4697	 0.6772	 3.2682	 3.9454	 0.5227	 3.2953	 3.8179	61.0486	99.9614	
   639	 0.5389	 2.9204	 3.4595	 0.6496	 3.2780	 3.9276	 0.4812	 3.3161	 3.7973	60.8710	99.9612	
   640	 0.4986	 2.9266	 3.4254	 0.6090	 3.3065	 3.9156	 0.4525	 3.3450	 3.7974	60.7606	99.9615	
   641	 0.4923	 2.9537	 3.4461	 0.6254	 3.3434	 3.9689	 0.4801	 3.3975	 3.8774	60.7180	99.9615	
   642	 0.4859	 2.9808	 3.4667	 0.6419	 3.3803	 4.0222	 0.5125	 3.4296	 3.9420	60.7877	99.9624	
   643	 0.5028	 2.9912	 3.4941	 0.6630	 3.3799	 4.0430	 0.5062	 3.4256	 3.9317	60.7803	99.9638	
   644	 0.4784	 2.9917	 3.4702	 0.6060	 3.3716	 3.9777	 0.4435	 3.3980	 3.8413	60.7631	99.9633	
   645	 0.4297	 2.9927	 3.4224	 0.5353	 3.3682	 3.9034	 0.3760	 3.3907	 3.7665	60.6955	99.9622	
   646	 0.4297	 2.9927	 3.4224	 0.5435	 3.3866	 3.9301	 0.3965	 3.4270	 3.8234	60.5930	99.9618	
   647	 0.4148	 3.0145	 3.4294	 0.5802	 3.4092	 3.9894	 0.4479	 3.4711	 3.9189	60.6731	99.9621	
   648	 0.4381	 2.9979	 3.4361	 0.6251	 3.4503	 4.0753	 0.5535	 3.5023	 4.0557	60.7623	99.9629	
   649	 0.4127	 2.9822	 3.3950	 0.6527	 3.4405	 4.0932	 0.5598	 3.5062	 4.0660	60.7721	99.9657	
   650	 0.4021	 2.9447	 3.3470	 0.6583	 3.4172	 4.0755	 0.5942	 3.4692	 4.0633	60.9521	99.9662	
   651	 0.2930	 2.8930	 3.1861	 0.5124	 3.3407	 3.8530	 0.3760	 3.3907	 3.7665	60.6806	99.9675	
   652	 0.1731	 2.9277	 3.1010	 0.3423	 3.3296	 3.6719	 0.1909	 3.3565	 3.5473	60.6429	99.9655	
   653	 0.0756	 2.9297	 3.0054	 0.1649	 3.3140	 3.4790	-0.0005	 3.3183	 3.3176	60.4280	99.9633	
   654	-0.0294	 2.9426	 2.9133	 0.0501	 3.2835	 3.3336	-0.1378	 3.2672	 3.1292	60.5154	99.9634	
   655	-0.1894	 2.8596	 2.6702	-0.1066	 3.1467	 3.0401	-0.3388	 3.0705	 2.7316	60.8772	99.9667	
   656	-0.5739	 2.4523	 1.8785	-0.6240	 2.5469	 1.9229	-0.9455	 2.4196	 1.4739	61.4489	99.9599	
   657	-1.6218	 1.6058	-0.0159	-1.6711	 1.7145	 0.0434	-1.8010	 1.5888	-0.2123	62.1341	99.9489	
   658	-2.0391	 1.1938	-0.8452	-1.9768	 1.3388	-0.6381	-2.0755	 1.2874	-0.7882	62.2051	99.9498	
   659	-2.2065	 0.9978	-1.2086	-2.2079	 1.1429	-1.0649	-2.3608	 1.1081	-1.2529	61.7952	99.9487	
   660	-2.3962	 0.9585	-1.4377	-2.3982	 1.1461	-1.2521	-2.4907	 1.1789	-1.3120	61.3225	99.9423	
   661	-2.2355	 1.4294	-0.8060	-2.0129	 1.6645	-0.3484	-1.9533	 1.6924	-0.2610	61.9947	99.9480	
   662	-1.2902	 1.9494	 0.6593	-1.2842	 2.0332	 0.7490	-1.4356	 1.9826	 0.5470	61.8756	99.9466	
   663	-0.9552	 1.9696	 1.0145	-1.0598	 2.0108	 0.9510	-1.3086	 1.8631	 0.5544	62.1321	99.9512	
   664	-1.0314	 1.7987	 0.7675	-1.1669	 1.8779	 0.7110	-1.4011	 1.7463	 0.3452	61.9417	99.9496	
   665	-1.1913	 1.5918	 0.4006	-1.3142	 1.6667	 0.3525	-1.5480	 1.5368	-0.0113	62.1122	99.9499	
   666	-1.3512	 1.3848	 0.0338	-1.4615	 1.4555	-0.0060	-1.7012	 1.3232	-0.3781	62.2820	99.9508	
   667	-1.5619	 1.1466	-0.4153	-1.6869	 1.2363	-0.4506	-1.9029	 1.1144	-0.7887	62.2685	99.9489	
   668	-1.5979	 1.0934	-0.5044	-1.5958	 1.2255	-0.3703	-1.7988	 1.1212	-0.6778	62.4878	99.9558	
   669	-1.7538	 1.0750	-0.6787	-1.7589	 1.3258	-0.4331	-1.9494	 1.3549	-0.5946	61.1089	99.9524	
   670	-1.9575	 1.1976	-0.7598	-1.8659	 1.4205	-0.4454	-1.9759	 1.4203	-0.5557	61.6850	99.9529	
   671	-2.0636	 1.3182	-0.7453	-1.9297	 1.5284	-0.4013	-1.9446	 1.5337	-0.4110	61.9566	99.9481	
   672	-2.0733	 1.4208	-0.6524	-1.9383	 1.6168	-0.3214	-1.9746	 1.6439	-0.3308	61.7152	99.9472	
   673	-1.8253	 1.6044	-0.2208	-1.6961	 1.7660	 0.0700	-1.6642	 1.7335	 0.0692	62.3973	99.9446	
   674	-1.1903	 1.7318	 0.5416	-1.1906	 1.8365	 0.6458	-1.3596	 1.7255	 0.3657	62.3480	99.9527	
   675	-1.0091	 1.7659	 0.7570	-1.0667	 1.8994	 0.8327	-1.3011	 1.7857	 0.4845	61.9095	99.9554	
   676	-1.1913	 1.5918	 0.4006	-1.3060	 1.6851	 0.3792	-1.5465	 1.5611	 0.0146	61.9930	99.9514	
   677	-1.4361	 1.4566	 0.0206	-1.4700	 1.5439	 0.0738	-1.6889	 1.4247	-0.2643	62.3049	99.9536	
   678	-1.7327	 1.1500	-0.5826	-1.8155	 1.2106	-0.6049	-2.0570	 1.0879	-0.9692	62.3211	99.9512	
   679	-1.9859	 1.0095	-0.9763	-2.0305	 1.1585	-0.8720	-2.2153	 1.0940	-1.1214	61.8485	99.9507	
   680	-2.1069	 1.1521	-0.9548	-2.0929	 1.4011	-0.6918	-2.1890	 1.4271	-0.7620	61.1187	99.9476	
   681	-2.1114	 1.3353	-0.7759	-1.9426	 1.5472	-0.3954	-1.9764	 1.5138	-0.4626	62.1338	99.9538	
   682	-2.0754	 1.3885	-0.6868	-1.8645	 1.5552	-0.3093	-1.8644	 1.5490	-0.3155	62.4520	99.9495	
   683	-2.0818	 1.4156	-0.6661	-1.9418	 1.5611	-0.3806	-1.9861	 1.5546	-0.4316	62.1241	99.9474	
   684	-2.0182	 1.5167	-0.5014	-1.8493	 1.6850	-0.1643	-1.8324	 1.6746	-0.1579	62.2734	99.9466	
   685	-1.7257	 1.6348	-0.0908	-1.5791	 1.7176	 0.1385	-1.6215	 1.6312	 0.0096	62.9180	99.9496	
   686	-1.6959	 1.4671	-0.2286	-1.6466	 1.5422	-0.1043	-1.7065	 1.4371	-0.2694	62.8912	99.9463	
   687	-1.7531	 1.4629	-0.2901	-1.6301	 1.5791	-0.0510	-1.7077	 1.5185	-0.1893	62.6053	99.9507	
   688	-1.7033	 1.4781	-0.2251	-1.6357	 1.6024	-0.0333	-1.7308	 1.5391	-0.1918	62.3517	99.9495	
   689	-1.6874	 1.4724	-0.2149	-1.6081	 1.5927	-0.0155	-1.7069	 1.5307	-0.1763	62.4143	99.9500	
   690	-1.7541	 1.4468	-0.3073	-1.6733	 1.5659	-0.1074	-1.7633	 1.5070	-0.2564	62.4125	99.9493	
   691	-1.8019	 1.4639	-0.3379	-1.6789	 1.5892	-0.0897	-1.7484	 1.5515	-0.1969	62.4270	99.9491	
   692	-1.7669	 1.5009	-0.2659	-1.6340	 1.6303	-0.0037	-1.6969	 1.5956	-0.1014	62.4342	99.9492	
   693	-1.7065	 1.5536	-0.1529	-1.5900	 1.6574	 0.0674	-1.6596	 1.6073	-0.0524	62.5499	99.9484	
   694	-1.6896	 1.5640	-0.1255	-1.5615	 1.6616	 0.1001	-1.6413	 1.6071	-0.0343	62.6105	99.9496	
   695	-1.6398	 1.5792	-0.0605	-1.5118	 1.6654	 0.1535	-1.5682	 1.6062	 0.0379	62.7970	99.9477	
   696	-1.5327	 1.5986	 0.0660	-1.4052	 1.6775	 0.2723	-1.4760	 1.6172	 0.1411	62.8591	99.9482	
   697	-1.4829	 1.6138	 0.1310	-1.3694	 1.6862	 0.3168	-1.4394	 1.6167	 0.1772	62.9180	99.9477	
   698	-1.4500	 1.6185	 0.1686	-1.3344	 1.6810	 0.3465	-1.4155	 1.6083	 0.1926	62.9769	99.9482	
   699	-1.4087	 1.6284	 0.2199	-1.2986	 1.6896	 0.3910	-1.3782	 1.6200	 0.2417	62.9784	99.9475	
   700	-1.3673	 1.6384	 0.2712	-1.2628	 1.6983	 0.4355	-1.3353	 1.6235	 0.2881	63.0404	99.9470	
   701	-1.3408	 1.6702	 0.3294	-1.2188	 1.7255	 0.5067	-1.2846	 1.6554	 0.3707	63.1068	99.9469	
   702	-1.2402	 1.7167	 0.4766	-1.0884	 1.7790	 0.6906	-1.1585	 1.7229	 0.5643	63.1184	99.9482	
   703	-1.0737	 1.7726	 0.6990	-0.9287	 1.8506	 0.9220	-0.9902	 1.7817	 0.7914	63.1870	99.9490	
   704	-0.9582	 1.7973	 0.8392	-0.8212	 1.8767	 1.0555	-0.8973	 1.8049	 0.9075	63.1884	99.9498	
   705	-0.9338	 1.7968	 0.8631	-0.8009	 1.8624	 1.0615	-0.8805	 1.7803	 0.8997	63.3056	99.9497	
   706	-0.9423	 1.7915	 0.8494	-0.8082	 1.8579	 1.0496	-0.8868	 1.7763	 0.8894	63.3056	99.9497	
   707	-0.9094	 1.7963	 0.8870	-0.7724	 1.8666	 1.0942	-0.8551	 1.7962	 0.9410	63.2484	99.9496	
   708	-0.8575	 1.8437	 0.9863	-0.7202	 1.9121	 1.1920	-0.7981	 1.8321	 1.0339	63.3110	99.9499	
   709	-0.7833	 1.8584	 1.0752	-0.6338	 1.9386	 1.3047	-0.6988	 1.8593	 1.1604	63.3787	99.9503	
   710	-0.6667	 1.8992	 1.2326	-0.5035	 1.9921	 1.4886	-0.5679	 1.9064	 1.3384	63.4461	99.9521	
   711	-0.5257	 1.9395	 1.4139	-0.3519	 2.0453	 1.6933	-0.4418	 1.9739	 1.5320	63.3337	99.9539	
   712	-0.4250	 1.9860	 1.5610	-0.2509	 2.0807	 1.8298	-0.3560	 1.9809	 1.6249	63.5106	99.9560	
   713	-0.4451	 1.9271	 1.4821	-0.3114	 2.0167	 1.7053	-0.4320	 1.9331	 1.5010	63.3231	99.9536	
   714	-0.5543	 1.8754	 1.3212	-0.4077	 1.9440	 1.5363	-0.5279	 1.8611	 1.3331	63.4371	99.9531	
   715	-0.6391	 1.8232	 1.1842	-0.5234	 1.8995	 1.3762	-0.6040	 1.8133	 1.2092	63.4346	99.9497	
   716	-0.7069	 1.7815	 1.0747	-0.5838	 1.8355	 1.2517	-0.6745	 1.7573	 1.0827	63.4893	99.9489	
   717	-0.7662	 1.7449	 0.9788	-0.6287	 1.7945	 1.1657	-0.7077	 1.7130	 1.0052	63.6091	99.9488	
   718	-0.8022	 1.6918	 0.8896	-0.6892	 1.7304	 1.0413	-0.7789	 1.6448	 0.8658	63.6006	99.9479	
   719	-0.8721	 1.6177	 0.7457	-0.7928	 1.6532	 0.8604	-0.8874	 1.5649	 0.6773	63.5304	99.9464	
   720	-1.0003	 1.5233	 0.5231	-0.9267	 1.5440	 0.6173	-1.0284	 1.4528	 0.4243	63.5809	99.9458	
   721	-1.1455	 1.4184	 0.2730	-1.0963	 1.4261	 0.3297	-1.2123	 1.3373	 0.1248	63.5063	99.9445	
   722	-1.3500	 1.2770	-0.0729	-1.3174	 1.2765	-0.0409	-1.4469	 1.1898	-0.2572	63.4295	99.9438	
   723	-1.5514	 1.1841	-0.3672	-1.5324	 1.2244	-0.3080	-1.6193	 1.1636	-0.4559	63.1248	99.9407	
   724	-1.4465	 1.2951	-0.1513	-1.3968	 1.3615	-0.0353	-1.4657	 1.2836	-0.1822	63.2019	99.9442	
   725	-1.1031	 1.4445	 0.3415	-1.0708	 1.4953	 0.4245	-1.2101	 1.3738	 0.1636	63.3209	99.9500	
   726	-0.9282	 1.5057	 0.5776	-0.9185	 1.5624	 0.6440	-1.0616	 1.4085	 0.3468	63.4441	99.9516	
   727	-0.8731	 1.4776	 0.6047	-0.8852	 1.5294	 0.6441	-1.0511	 1.3799	 0.3287	63.3778	99.9512	
   728	-0.8751	 1.4454	 0.5703	-0.8732	 1.4966	 0.6235	-1.0351	 1.3431	 0.3079	63.5012	99.9520	
   729	-0.9048	 1.3651	 0.4605	-0.9060	 1.4229	 0.5169	-1.0824	 1.2664	 0.1840	63.4960	99.9532	
   730	-1.0074	 1.1624	 0.1551	-1.0598	 1.2211	 0.1613	-1.2483	 1.0449	-0.2035	63.5380	99.9527	
   731	-1.5159	 0.7253	-0.7905	-1.5637	 0.7232	-0.8405	-1.8040	 0.5316	-1.2725	63.8704	99.9539	
   732	-2.2377	 0.3895	-1.8481	-2.2440	 0.4514	-1.7927	-2.4002	 0.3563	-2.0440	63.2444	99.9477	
   733	-2.4264	 0.3664	-2.0599	-2.3580	 0.4347	-1.9233	-2.4480	 0.3732	-2.0749	63.3876	99.9454	
   734	-2.2833	 0.4389	-1.8443	-2.1698	 0.5105	-1.6593	-2.1909	 0.4878	-1.7033	63.6008	99.9405	
   735	-1.8935	 0.8029	-1.0904	-1.6223	 0.9147	-0.7076	-1.5314	 0.9022	-0.6294	64.1434	99.9436	
   736	-1.4430	 0.9718	-0.4712	-1.3072	 0.9883	-0.3189	-1.3627	 0.8675	-0.4954	64.4181	99.9480	
   737	-1.4567	 0.8858	-0.5708	-1.3741	 0.9337	-0.4404	-1.4493	 0.8483	-0.6011	63.9250	99.9456	
   738	-1.2119	 1.0210	-0.1908	-1.1181	 1.0780	-0.0401	-1.2247	 0.9308	-0.2940	64.1723	99.9531	
   739	-1.2616	 0.8819	-0.3796	-1.2408	 0.9222	-0.3186	-1.4052	 0.7704	-0.6349	63.9680	99.9523	
   740	-1.4566	 0.7619	-0.6946	-1.4022	 0.8227	-0.5795	-1.5686	 0.6912	-0.8775	63.8436	99.9539	
   741	-1.4036	 0.8255	-0.5781	-1.2602	 0.9504	-0.3098	-1.3776	 0.8229	-0.5548	63.9304	99.9585	
   742	-1.2881	 0.8501	-0.4379	-1.2446	 0.9733	-0.2713	-1.5146	 0.8776	-0.6372	62.9823	99.9606	
   743	-1.8075	 0.7473	-1.0601	-1.7224	 0.8932	-0.8293	-1.8538	 0.8169	-1.0370	63.0545	99.9545	
   744	-2.0354	 0.6226	-1.4127	-1.9362	 0.7481	-1.1880	-2.0265	 0.6849	-1.3417	63.2344	99.9506	
   745	-2.1997	 0.5989	-1.6007	-2.1006	 0.7137	-1.3869	-2.1489	 0.6783	-1.4706	63.1744	99.9453	
   746	-2.1192	 0.7105	-1.4087	-1.9659	 0.8369	-1.1290	-1.9818	 0.8185	-1.1634	63.2586	99.9456	
   747	-1.5639	 0.9903	-0.5735	-1.3551	 1.0124	-0.3427	-1.3415	 0.9160	-0.4256	64.6122	99.9460	
   748	-1.3740	 0.9057	-0.4682	-1.2839	 0.9090	-0.3750	-1.2981	 0.8260	-0.4723	64.4198	99.9388	
   749	-1.4884	 0.7733	-0.7150	-1.3919	 0.7621	-0.6298	-1.4682	 0.6370	-0.8312	64.5905	99.9458	
   750	-1.6611	 0.6205	-1.0405	-1.5992	 0.6077	-0.9915	-1.6845	 0.4894	-1.1952	64.4578	99.9438	
   751	-1.7999	 0.4885	-1.3112	-1.7641	 0.4525	-1.3116	-1.8714	 0.3251	-1.5464	64.5082	99.9430	
   752	-1.9545	 0.3623	-1.5921	-1.9036	 0.3666	-1.5369	-1.9792	 0.2573	-1.7219	64.3865	99.9429	
   753	-1.6822	 0.5455	-1.1367	-1.5146	 0.6063	-0.9083	-1.5718	 0.5367	-1.0352	64.3537	99.9487	
   754	-1.5890	 0.6029	-0.9860	-1.5516	 0.6905	-0.8611	-1.7432	 0.6284	-1.1149	63.2832	99.9514	
   755	-1.8434	 0.5702	-1.2731	-1.7372	 0.6565	-1.0808	-1.8193	 0.5806	-1.2388	63.7901	99.9490	
   756	-1.9844	 0.5300	-1.4543	-1.9017	 0.6221	-1.2796	-1.9783	 0.5745	-1.4039	63.4777	99.9457	
   757	-2.0227	 0.6924	-1.3303	-1.8572	 0.7700	-1.0872	-1.8343	 0.7353	-1.0992	63.8717	99.9418	
   758	-1.3380	 0.9589	-0.3790	-1.1177	 0.9712	-0.1465	-1.1165	 0.9050	-0.2116	64.7380	99.9445	
   759	-1.0931	 0.9702	-0.1229	-0.9386	 1.0146	 0.0760	-0.9948	 0.8993	-0.0956	64.6115	99.9501	
   760	-0.8461	 1.0137	 0.1677	-0.7824	 1.0306	 0.2482	-0.9548	 0.8541	-0.1008	64.5338	99.9552	
   761	-1.0728	 0.7812	-0.2915	-1.0591	 0.7797	-0.2794	-1.2439	 0.6138	-0.6301	64.4578	99.9517	
   762	-1.3769	 0.6094	-0.7674	-1.3160	 0.6215	-0.6945	-1.4722	 0.4704	-1.0019	64.5187	99.9522	
   763	-1.4606	 0.5734	-0.8872	-1.3630	 0.6595	-0.7036	-1.4304	 0.5552	-0.8753	64.2899	99.9494	
   764	-1.1321	 0.7446	-0.3874	-1.0530	 0.8772	-0.1758	-1.2302	 0.7397	-0.4905	63.8605	99.9597	
   765	-1.4661	 0.7405	-0.7255	-1.3086	 0.8536	-0.4549	-1.4250	 0.7463	-0.6788	63.9903	99.9573	
   766	-1.7204	 0.5840	-1.1364	-1.5857	 0.7097	-0.8761	-1.6369	 0.6718	-0.9652	63.6866	99.9481	
   767	-1.7927	 0.7255	-1.0671	-1.5926	 0.8259	-0.7666	-1.6049	 0.7974	-0.8076	63.8816	99.9470	
   768	-1.5659	 0.8341	-0.7317	-1.4117	 0.8972	-0.5145	-1.4452	 0.8157	-0.6296	64.1790	99.9475	
   769	-1.3729	 0.7979	-0.5748	-1.1757	 0.7213	-0.4544	-1.3275	 0.6434	-0.6842	64.8393	99.9487	
   770	-1.3527	 0.7329	-0.6197	-1.1640	 0.7955	-0.3686	-1.1417	 0.6898	-0.4520	64.9161	99.9472	
   771	-1.0473	 0.7968	-0.2504	-0.9655	 0.8107	-0.1548	-1.0763	 0.6605	-0.4160	64.7794	99.9504	
   772	-1.2539	 0.6231	-0.6307	-1.1753	 0.6145	-0.5609	-1.2893	 0.4680	-0.8214	64.8951	99.9488	
   773	-1.5432	 0.4295	-1.1136	-1.4706	 0.4058	-1.0649	-1.5810	 0.2847	-1.2964	64.8264	99.9455	
   774	-1.6619	 0.3565	-1.3053	-1.5807	 0.3380	-1.2428	-1.6895	 0.2048	-1.4848	64.8858	99.9471	
   775	-1.5422	 0.4457	-1.0964	-1.4002	 0.5161	-0.8842	-1.4673	 0.4500	-1.0174	64.4139	99.9481	
   776	-1.4575	 0.6218	-0.8356	-1.3863	 0.7388	-0.6475	-1.5279	 0.6581	-0.8699	63.6096	99.9529	
   777	-1.6155	 0.5711	-1.0443	-1.4412	 0.6515	-0.7897	-1.5267	 0.5768	-0.9500	64.2324	99.9523	
   778	-1.8168	 0.4781	-1.3386	-1.6734	 0.5486	-1.1249	-1.7379	 0.5145	-1.2235	63.9819	99.9458	
   779	-1.8519	 0.5650	-1.2868	-1.6893	 0.6324	-1.0569	-1.7271	 0.5916	-1.1356	64.0482	99.9454	
   780	-1.6654	 0.6798	-0.9855	-1.5102	 0.6759	-0.8343	-1.5457	 0.5649	-0.9810	64.7787	99.9457	
   781	-1.4575	 0.6218	-0.8356	-1.3139	 0.5425	-0.7714	-1.4132	 0.4371	-0.9762	65.1417	99.9441	
   782	-1.4034	 0.5776	-0.8257	-1.2901	 0.5839	-0.7063	-1.3124	 0.4886	-0.8239	64.9036	99.9417	
   783	-1.2306	 0.6065	-0.6240	-1.1495	 0.5769	-0.5726	-1.2669	 0.4352	-0.8318	65.0176	99.9476	
   784	-1.3450	 0.4741	-0.8708	-1.2924	 0.4353	-0.8571	-1.4291	 0.2746	-1.1546	65.0723	99.9481	
   785	-1.5664	 0.3222	-1.2441	-1.5208	 0.2812	-1.2396	-1.6574	 0.1312	-1.5263	65.0053	99.9468	
   786	-1.6576	 0.2971	-1.3604	-1.5475	 0.3049	-1.2427	-1.6361	 0.1797	-1.4565	64.9520	99.9483	
   787	-1.4107	 0.4646	-0.9460	-1.2660	 0.5185	-0.7476	-1.3732	 0.3918	-0.9815	64.7767	99.9540	
   788	-1.5475	 0.4889	-1.0585	-1.4593	 0.5868	-0.8726	-1.5980	 0.5086	-1.0895	63.8504	99.9523	
   789	-1.7214	 0.4439	-1.2774	-1.5703	 0.5050	-1.0653	-1.6587	 0.4118	-1.2470	64.4063	99.9514	
   790	-1.9609	 0.3894	-1.5714	-1.8552	 0.4634	-1.3918	-1.8901	 0.4188	-1.4714	63.9744	99.9427	
   791	-1.8858	 0.5441	-1.3416	-1.7178	 0.6283	-1.0895	-1.6898	 0.6033	-1.0866	64.1182	99.9411	
   792	-1.5085	 0.7144	-0.7940	-1.3613	 0.6873	-0.6740	-1.3446	 0.5623	-0.7824	65.2105	99.9413	
   793	-1.3207	 0.5975	-0.7231	-1.2561	 0.5647	-0.6913	-1.2766	 0.4760	-0.8007	64.9618	99.9356	
   794	-1.2752	 0.6720	-0.6030	-1.1067	 0.6969	-0.4097	-1.1308	 0.5676	-0.5632	65.1528	99.9486	
   795	-1.0261	 0.7479	-0.2781	-0.9267	 0.7543	-0.1724	-1.0062	 0.6108	-0.3955	65.0269	99.9483	
   796	-0.9868	 0.7256	-0.2612	-0.8917	 0.7490	-0.1427	-0.9759	 0.6063	-0.3697	64.9664	99.9493	
   797	-1.0313	 0.6672	-0.3640	-0.9457	 0.6756	-0.2701	-1.0733	 0.5100	-0.5634	65.0215	99.9523	
   798	-1.1733	 0.6107	-0.5625	-1.0825	 0.6315	-0.4510	-1.2456	 0.4837	-0.7620	64.7105	99.9543	
   799	-1.3610	 0.6037	-0.7572	-1.3428	 0.6452	-0.6976	-1.5677	 0.5041	-1.0637	63.9529	99.9552	
   800	-1.7977	 0.3969	-1.4007	-1.7374	 0.4289	-1.3085	-1.8560	 0.2761	-1.5801	64.4486	99.9511	
   801	-2.0139	 0.3258	-1.6880	-1.8660	 0.4032	-1.4628	-1.9247	 0.3501	-1.5747	64.0963	99.9475	
   802	-1.8519	 0.5650	-1.2868	-1.6324	 0.6408	-0.9916	-1.5991	 0.5899	-1.0093	64.4872	99.9451	
   803	-1.3018	 0.7642	-0.5375	-1.1317	 0.7485	-0.3832	-1.1637	 0.6291	-0.5347	65.1519	99.9461	
   804	-1.2625	 0.7418	-0.5206	-1.0941	 0.7850	-0.3091	-1.1010	 0.6567	-0.4444	65.0339	99.9485	
   805	-1.0792	 0.8082	-0.2708	-0.9646	 0.8246	-0.1400	-1.0615	 0.7050	-0.3565	64.7230	99.9492	
   806	-1.0527	 0.8400	-0.2126	-0.9262	 0.8751	-0.0511	-1.0163	 0.7451	-0.2713	64.7258	99.9512	
   807	-1.0347	 0.8666	-0.1680	-0.8877	 0.9255	 0.0378	-0.9880	 0.8098	-0.1783	64.5471	99.9533	
   808	-0.9044	 0.9933	 0.0890	-0.7292	 1.0901	 0.3608	-0.8082	 0.9579	 0.1496	64.5570	99.9565	
   809	-1.0463	 0.8130	-0.2332	-1.0363	 0.8072	-0.2290	-1.2741	 0.6183	-0.6559	64.3899	99.9561	
   810	-1.6980	 0.4272	-1.2707	-1.6942	 0.4421	-1.2521	-1.8777	 0.3211	-1.5567	64.0043	99.9490	
   811	-1.7481	 0.6599	-1.0880	-1.4463	 0.7956	-0.6507	-1.3918	 0.7906	-0.6013	64.2662	99.9485	
   812	-1.0210	 0.9525	-0.0683	-0.8549	 0.9993	 0.1444	-0.9519	 0.9028	-0.0491	64.4904	99.9521	
   813	-0.9436	 1.0157	 0.0721	-0.7668	 1.0535	 0.2867	-0.8582	 0.9382	 0.0799	64.6742	99.9531	
   814	-0.9532	 0.9943	 0.0412	-0.7888	 1.0400	 0.2511	-0.8653	 0.9221	 0.0566	64.6742	99.9521	
   815	-0.8864	 1.0199	 0.1336	-0.7025	 1.0664	 0.3639	-0.7661	 0.9493	 0.1831	64.7990	99.9523	
   816	-0.6542	 1.0853	 0.4312	-0.5078	 1.1328	 0.6250	-0.6310	 0.9638	 0.3327	64.8550	99.9574	
   817	-0.5228	 1.1042	 0.5816	-0.4288	 1.1547	 0.7259	-0.5881	 0.9673	 0.3791	64.7292	99.9582	
   818	-0.5228	 1.1042	 0.5816	-0.4362	 1.1501	 0.7140	-0.6120	 0.9757	 0.3637	64.6063	99.9578	
   819	-0.5556	 1.0995	 0.5440	-0.4491	 1.1689	 0.7199	-0.6105	 1.0001	 0.3895	64.5494	99.9588	
   820	-0.5281	 1.1475	 0.6194	-0.3878	 1.2469	 0.8591	-0.5251	 1.1007	 0.5755	64.4380	99.9591	
   821	-0.4657	 1.2324	 0.7669	-0.2742	 1.3704	 1.0962	-0.4073	 1.2334	 0.8260	64.3288	99.9625	
   822	-0.3184	 1.3696	 1.0513	-0.0311	 1.5335	 1.5024	-0.1592	 1.4009	 1.2416	64.4644	99.9673	
   823	-0.1817	 1.4692	 1.2876	 0.1559	 1.7022	 1.8581	 0.0440	 1.6342	 1.6781	64.0130	99.9681	
   824	-0.0450	 1.5689	 1.5239	 0.3393	 1.8153	 2.1546	 0.2454	 1.7373	 1.9826	64.2006	99.9700	
   825	 0.0896	 1.6362	 1.7259	 0.5055	 1.8775	 2.3830	 0.4200	 1.8001	 2.2201	64.3828	99.9706	
   826	 0.1479	 1.6566	 1.8046	 0.5202	 1.8865	 2.4068	 0.4137	 1.7961	 2.2097	64.3189	99.9701	
   827	 0.0980	 1.6414	 1.7396	 0.4477	 1.8552	 2.3029	 0.3178	 1.7242	 2.0419	64.4268	99.9716	
   828	-0.3511	 1.2409	 0.8899	-0.3023	 1.2594	 0.9571	-0.6195	 1.0531	 0.4335	64.2872	99.9646	
   829	-1.4989	 0.6119	-0.8869	-1.4330	 0.6699	-0.7630	-1.6028	 0.5290	-1.0739	64.0862	99.9552	
   830	-1.8254	 0.5968	-1.2285	-1.5667	 0.7883	-0.7784	-1.5403	 0.7559	-0.7845	63.8968	99.9531	
   831	-1.3612	 0.8516	-0.5096	-1.1389	 0.9716	-0.1673	-1.2142	 0.9022	-0.3122	64.0715	99.9559	
   832	-1.3644	 0.8031	-0.5611	-1.2067	 0.9030	-0.3037	-1.3186	 0.7896	-0.5291	64.1153	99.9567	
   833	-1.4502	 0.7348	-0.7153	-1.3388	 0.8216	-0.5172	-1.4581	 0.7020	-0.7563	64.0431	99.9546	
   834	-1.5000	 0.7196	-0.7803	-1.3828	 0.7945	-0.5883	-1.5040	 0.6497	-0.8544	64.2231	99.9560	
   835	-1.3442	 0.7381	-0.6060	-1.2853	 0.7743	-0.5110	-1.4346	 0.5878	-0.8468	64.4594	99.9553	
   836	-1.2816	 0.6991	-0.5824	-1.2465	 0.7179	-0.5286	-1.4200	 0.5266	-0.8934	64.5163	99.9550	
   837	-1.2921	 0.6616	-0.6304	-1.2556	 0.6855	-0.5701	-1.4214	 0.5023	-0.9193	64.5171	99.9543	
   838	-1.3101	 0.6350	-0.6750	-1.2711	 0.6625	-0.6086	-1.4524	 0.4945	-0.9580	64.3926	99.9546	
   839	-1.4373	 0.5567	-0.8805	-1.3950	 0.5996	-0.7954	-1.5419	 0.4265	-1.1155	64.4544	99.9538	
   840	-1.6058	 0.4685	-1.1372	-1.5509	 0.4768	-1.0741	-1.7680	 0.3197	-1.4484	64.3180	99.9559	
   841	-1.9652	 0.4487	-1.5164	-1.8970	 0.5849	-1.3121	-1.9805	 0.5379	-1.4427	63.2931	99.9479	
   842	-1.7576	 0.6386	-1.1189	-1.5188	 0.7643	-0.7545	-1.5798	 0.7076	-0.8723	64.0007	99.9554	
   843	-1.3856	 0.8521	-0.5335	-1.0957	 0.9848	-0.1110	-1.1284	 0.9092	-0.2193	64.3836	99.9578	
   844	-1.0168	 1.0171	 0.0004	-0.7763	 1.1280	 0.3518	-0.8523	 1.0358	 0.1833	64.3836	99.9578	
   845	-1.0518	 0.9801	-0.0716	-0.8743	 1.0275	 0.1532	-1.0172	 0.9322	-0.0852	64.3051	99.9555	
   846	-1.5054	 0.7629	-0.7424	-1.3737	 0.8269	-0.5469	-1.5179	 0.7231	-0.7949	63.9798	99.9549	
   847	-1.7597	 0.6063	-1.1533	-1.5892	 0.6540	-0.9352	-1.6450	 0.5377	-1.1074	64.5331	99.9513	
   848	-1.3516	 0.7490	-0.6025	-1.1990	 0.8007	-0.3983	-1.2987	 0.6145	-0.6843	64.8406	99.9578	
   849	-1.1618	 0.7883	-0.3734	-1.1044	 0.8455	-0.2589	-1.2663	 0.6466	-0.6197	64.4636	99.9578	
   850	-1.2138	 0.7409	-0.4728	-1.1787	 0.7864	-0.3923	-1.3663	 0.6073	-0.7591	64.2725	99.9564	
   851	-1.2985	 0.6887	-0.6098	-1.2391	 0.7224	-0.5167	-1.4368	 0.5512	-0.8856	64.3325	99.9571	
   852	-1.5030	 0.5473	-0.9557	-1.4520	 0.5913	-0.8607	-1.6151	 0.4275	-1.1877	64.3289	99.9547	
   853	-1.8241	 0.3651	-1.4589	-1.7400	 0.3871	-1.3529	-1.8343	 0.2311	-1.6034	64.6991	99.9504	
   854	-2.1304	 0.1611	-1.9692	-2.0664	 0.1325	-1.9339	-2.2070	 0.0203	-2.1868	64.4967	99.9462	
   855	-2.2809	 0.0994	-2.1813	-2.1968	 0.0789	-2.1178	-2.2965	-0.0476	-2.3443	64.6854	99.9462	
   856	-2.3476	 0.0738	-2.2737	-2.2831	 0.0525	-2.2306	-2.3838	-0.0791	-2.4630	64.6189	99.9455	
   857	-2.3561	 0.0686	-2.2874	-2.2978	 0.0435	-2.2543	-2.4085	-0.0828	-2.4914	64.5545	99.9451	
   858	-2.3646	 0.0634	-2.3011	-2.3125	 0.0344	-2.2780	-2.4275	-0.0948	-2.5223	64.5529	99.9451	
   859	-2.3720	 0.0743	-2.2976	-2.3189	 0.0438	-2.2751	-2.4387	-0.0783	-2.5171	64.4900	99.9448	
   860	-2.3551	 0.0847	-2.2702	-2.3181	 0.0578	-2.2603	-2.4260	-0.0704	-2.4965	64.4900	99.9438	
   861	-2.3551	 0.0847	-2.2702	-2.3254	 0.0532	-2.2722	-2.4443	-0.0701	-2.5145	64.4254	99.9435	
   862	-2.3795	 0.0852	-2.2941	-2.3465	 0.0536	-2.2930	-2.4626	-0.0699	-2.5326	64.4254	99.9435	
   863	-2.3954	 0.0909	-2.3043	-2.3539	 0.0491	-2.3048	-2.4809	-0.0697	-2.5506	64.4245	99.9437	
   864	-2.3795	 0.0852	-2.2941	-2.3327	 0.0487	-2.2840	-2.4499	-0.0619	-2.5119	64.4272	99.9430	
   865	-2.3625	 0.0957	-2.2667	-2.3181	 0.0578	-2.2603	-2.4372	-0.0540	-2.4913	64.4272	99.9430	
   866	-2.3540	 0.1009	-2.2530	-2.3107	 0.0623	-2.2484	-2.4309	-0.0500	-2.4809	64.4272	99.9430	
   867	-2.3540	 0.1009	-2.2530	-2.3172	 0.0717	-2.2455	-2.4189	-0.0542	-2.4732	64.4909	99.9430	
   868	-2.3699	 0.1066	-2.2633	-2.3245	 0.0672	-2.2574	-2.4372	-0.0540	-2.4913	64.4900	99.9433	
   869	-2.3784	 0.1014	-2.2769	-2.3245	 0.0672	-2.2574	-2.4428	-0.0458	-2.4887	64.4280	99.9438	
   870	-2.3784	 0.1014	-2.2769	-2.3245	 0.0672	-2.2574	-2.4428	-0.0458	-2.4887	64.4280	99.9438	
   871	-2.3540	 0.1009	-2.2530	-2.2969	 0.0574	-2.2395	-2.4126	-0.0502	-2.4629	64.4917	99.9428	
   872	-2.3466	 0.0900	-2.2565	-2.2969	 0.0574	-2.2395	-2.4070	-0.0584	-2.4655	64.4917	99.9433	
   873	-2.3710	 0.0904	-2.2804	-2.3116	 0.0484	-2.2632	-2.4197	-0.0664	-2.4862	64.5545	99.9431	
   874	-2.3795	 0.0852	-2.2941	-2.3327	 0.0487	-2.2840	-2.4379	-0.0662	-2.5042	64.4909	99.9425	
   875	-2.3954	 0.0909	-2.3043	-2.3401	 0.0442	-2.2959	-2.4443	-0.0701	-2.5145	64.5537	99.9422	
   876	-2.3964	 0.0748	-2.3215	-2.3474	 0.0397	-2.3077	-2.4506	-0.0741	-2.5249	64.4909	99.9425	
   877	-2.3720	 0.0743	-2.2976	-2.3125	 0.0344	-2.2780	-2.4260	-0.0704	-2.4965	64.4917	99.9428	
   878	-2.3636	 0.0795	-2.2839	-2.2986	 0.0296	-2.2691	-2.4021	-0.0788	-2.4810	64.6181	99.9420	
   879	-2.3561	 0.0686	-2.2874	-2.3060	 0.0250	-2.2810	-2.4085	-0.0828	-2.4914	64.5545	99.9415	
   880	-2.3561	 0.0686	-2.2874	-2.3060	 0.0250	-2.2810	-2.4148	-0.0868	-2.5017	64.5537	99.9422	
   881	-2.3805	 0.0691	-2.3113	-2.3271	 0.0254	-2.3017	-2.4267	-0.0826	-2.5094	64.5545	99.9415	
   882	-2.3720	 0.0743	-2.2976	-2.3207	 0.0160	-2.3047	-2.4331	-0.0866	-2.5197	64.5529	99.9408	
   883	-2.3636	 0.0795	-2.2839	-2.3060	 0.0250	-2.2810	-2.4021	-0.0788	-2.4810	64.6181	99.9404	
   884	-2.3392	 0.0790	-2.2600	-2.2848	 0.0247	-2.2602	-2.3782	-0.0873	-2.4656	64.6809	99.9407	
   885	-2.3317	 0.0681	-2.2635	-2.2784	 0.0153	-2.2631	-2.3902	-0.0830	-2.4733	64.5545	99.9409	
   886	-2.3476	 0.0738	-2.2737	-2.2857	 0.0108	-2.2750	-2.3909	-0.0952	-2.4862	64.6802	99.9409	
   887	-2.3402	 0.0629	-2.2772	-2.2995	 0.0156	-2.2839	-2.4028	-0.0910	-2.4940	64.5537	99.9406	
   888	-2.3487	 0.0577	-2.2909	-2.3069	 0.0111	-2.2957	-2.4092	-0.0950	-2.5043	64.5537	99.9406	
   889	-2.3476	 0.0738	-2.2737	-2.2922	 0.0202	-2.2720	-2.3902	-0.0830	-2.4733	64.6181	99.9404	
   890	-2.3233	 0.0733	-2.2498	-2.2646	 0.0104	-2.2542	-2.3663	-0.0915	-2.4579	64.6809	99.9401	
   891	-2.3233	 0.0733	-2.2498	-2.2646	 0.0104	-2.2542	-2.3726	-0.0955	-2.4682	64.6802	99.9409	
   892	-2.3317	 0.0681	-2.2635	-2.2719	 0.0059	-2.2660	-2.3790	-0.0994	-2.4785	64.6802	99.9409	
   893	-2.3317	 0.0681	-2.2635	-2.2857	 0.0108	-2.2750	-2.3909	-0.0952	-2.4862	64.6166	99.9403	
   894	-2.3402	 0.0629	-2.2772	-2.2930	 0.0062	-2.2868	-2.3972	-0.0992	-2.4966	64.6166	99.9403	
   895	-2.3317	 0.0681	-2.2635	-2.2719	 0.0059	-2.2660	-2.3846	-0.0912	-2.4759	64.6174	99.9406	
   896	-2.3233	 0.0733	-2.2498	-2.2646	 0.0104	-2.2542	-2.3726	-0.0955	-2.4682	64.6802	99.9409	
   897	-2.3233	 0.0733	-2.2498	-2.2581	 0.0010	-2.2571	-2.3790	-0.0994	-2.4785	64.6795	99.9411	
   898	-2.3233	 0.0733	-2.2498	-2.2719	 0.0059	-2.2660	-2.3790	-0.0994	-2.4785	64.6795	99.9401	
   899	-2.3233	 0.0733	-2.2498	-2.2784	 0.0153	-2.2631	-2.3846	-0.0912	-2.4759	64.6166	99.9403	
   900	-2.3148	 0.0785	-2.2361	-2.2646	 0.0104	-2.2542	-2.3902	-0.0830	-2.4733	64.5529	99.9403	
   901	-2.2978	 0.0890	-2.2087	-2.2499	 0.0194	-2.2304	-2.3655	-0.0793	-2.4449	64.6166	99.9398	
   902	-2.2819	 0.0833	-2.1985	-2.2361	 0.0146	-2.2215	-2.3536	-0.0835	-2.4372	64.6166	99.9398	
   903	-2.2978	 0.0890	-2.2087	-2.2564	 0.0288	-2.2275	-2.3592	-0.0753	-2.4346	64.6174	99.9396	
   904	-2.2798	 0.1156	-2.1642	-2.2335	 0.0563	-2.1771	-2.3387	-0.0390	-2.3778	64.5561	99.9394	
   905	-2.2438	 0.1687	-2.0750	-2.1950	 0.1068	-2.0883	-2.3040	 0.0297	-2.2744	64.4332	99.9381	
   906	-2.1898	 0.2485	-1.9413	-2.1328	 0.1986	-1.9342	-2.2369	 0.1305	-2.1065	64.3134	99.9384	
   907	-1.9938	 0.3847	-1.6090	-1.8953	 0.3851	-1.5103	-1.9367	 0.3544	-1.5824	64.2136	99.9367	
   908	-1.5339	 0.6988	-0.8351	-1.3552	 0.7847	-0.5705	-1.3694	 0.7578	-0.6117	64.1270	99.9448	
   909	-0.8759	 1.1813	 0.3055	-0.6178	 1.2926	 0.6748	-0.6767	 1.2165	 0.5397	64.3339	99.9566	
   910	-0.3545	 1.4403	 1.0859	-0.1066	 1.5673	 1.4607	-0.2597	 1.4551	 1.1953	64.2200	99.9642	
   911	-0.0334	 1.6225	 1.5892	 0.2098	 1.7756	 1.9855	 0.0167	 1.6874	 1.7040	63.8746	99.9659	
   912	 0.2039	 1.7686	 1.9727	 0.4089	 1.9116	 2.3205	 0.1894	 1.8194	 2.0087	63.7572	99.9654	
   913	 0.2474	 1.8109	 2.0584	 0.4456	 1.9343	 2.3798	 0.1965	 1.8355	 2.0319	63.7528	99.9661	
   914	 0.2283	 1.7682	 1.9966	 0.3860	 1.8842	 2.2702	 0.1301	 1.7469	 1.8769	63.8606	99.9665	
   915	 0.1256	 1.6894	 1.8150	 0.2668	 1.7840	 2.0508	-0.0172	 1.6309	 1.6136	63.9075	99.9672	
   916	-0.1203	 1.5380	 1.4179	-0.0129	 1.5982	 1.5853	-0.2492	 1.4265	 1.1772	64.1960	99.9628	
   917	-0.4594	 1.3293	 0.8700	-0.3752	 1.3349	 0.9597	-0.5811	 1.1827	 0.6015	64.3641	99.9561	
   918	-0.7741	 1.1200	 0.3460	-0.7266	 1.1318	 0.4052	-0.8982	 0.9835	 0.0852	64.2926	99.9522	
   919	-0.9945	 0.9843	-0.0101	-0.9257	 0.9958	 0.0702	-1.0814	 0.8801	-0.2013	64.2296	99.9501	
   920	-1.0803	 0.9160	-0.1642	-1.0146	 0.9276	-0.0870	-1.1772	 0.8082	-0.3692	64.2250	99.9506	
   921	-1.2361	 0.7736	-0.4623	-1.2007	 0.7728	-0.4279	-1.3704	 0.6399	-0.7306	64.2743	99.9497	
   922	-1.5624	 0.5107	-1.0515	-1.5509	 0.4768	-1.0741	-1.7490	 0.3316	-1.4174	64.3777	99.9492	
   923	-2.0445	 0.2294	-1.8150	-1.9839	 0.2101	-1.7739	-2.1224	 0.1087	-2.0138	64.3759	99.9456	
   924	-2.2226	 0.1198	-2.1027	-2.1519	 0.1200	-2.0319	-2.2667	 0.0414	-2.2254	64.2509	99.9441	
   925	-2.3137	 0.0947	-2.2189	-2.2244	 0.0887	-2.1357	-2.3238	 0.0056	-2.3183	64.3759	99.9440	
   926	-2.3551	 0.0847	-2.2702	-2.2675	 0.0755	-2.1921	-2.3731	-0.0019	-2.3751	64.3116	99.9437	
   927	-2.3710	 0.0904	-2.2804	-2.2896	 0.0619	-2.2277	-2.4118	-0.0380	-2.4500	64.4315	99.9450	
   928	-2.4632	 0.0492	-2.4139	-2.4053	 0.0174	-2.3878	-2.5294	-0.0650	-2.5945	64.2385	99.9422	
   929	-2.4961	 0.0445	-2.4515	-2.4467	 0.0321	-2.4146	-2.5652	-0.0523	-2.6176	64.1127	99.9428	
   930	-2.5109	 0.0663	-2.4445	-2.4532	 0.0415	-2.4117	-2.5589	-0.0483	-2.6073	64.2395	99.9420	
   931	-2.5024	 0.0715	-2.4308	-2.4523	 0.0554	-2.3969	-2.5701	-0.0319	-2.6021	64.1127	99.9428	
   932	-2.5024	 0.0715	-2.4308	-2.4596	 0.0509	-2.4088	-2.5820	-0.0277	-2.6098	64.0488	99.9417	
   933	-2.5109	 0.0663	-2.4445	-2.4808	 0.0512	-2.4296	-2.6010	-0.0397	-2.6408	64.0467	99.9421	
   934	-2.5353	 0.0668	-2.4684	-2.4954	 0.0422	-2.4533	-2.6313	-0.0352	-2.6666	63.9826	99.9421	
   935	-2.5353	 0.0668	-2.4684	-2.5028	 0.0376	-2.4651	-2.6320	-0.0474	-2.6795	64.0445	99.9415	
   936	-2.5438	 0.0616	-2.4821	-2.4963	 0.0282	-2.4681	-2.6320	-0.0474	-2.6795	64.0456	99.9418	
   937	-2.5364	 0.0506	-2.4856	-2.5101	 0.0331	-2.4770	-2.6503	-0.0472	-2.6976	63.9173	99.9423	
   938	-2.5533	 0.0402	-2.5130	-2.5183	 0.0147	-2.5037	-2.6693	-0.0591	-2.7285	63.9162	99.9425	
   939	-2.5703	 0.0298	-2.5404	-2.5468	 0.0105	-2.5363	-2.6827	-0.0793	-2.7621	63.9782	99.9425	
   940	-2.6031	 0.0250	-2.5780	-2.5624	-0.0124	-2.5748	-2.7137	-0.0870	-2.8008	63.9771	99.9422	
   941	-2.6201	 0.0146	-2.6054	-2.5909	-0.0166	-2.6075	-2.7327	-0.0990	-2.8318	63.9760	99.9419	
   942	-2.6286	 0.0094	-2.6191	-2.6047	-0.0117	-2.6164	-2.7327	-0.0990	-2.8318	63.9771	99.9417	
   943	-2.6127	 0.0037	-2.6089	-2.5835	-0.0121	-2.5956	-2.7025	-0.1034	-2.8060	64.0424	99.9420	
   944	-2.6127	 0.0037	-2.6089	-2.5771	-0.0215	-2.5985	-2.7088	-0.1074	-2.8163	64.0413	99.9422	
   945	-2.6211	-0.0015	-2.6226	-2.5844	-0.0260	-2.6104	-2.7032	-0.1156	-2.8189	64.1055	99.9417	
   946	-2.6211	-0.0015	-2.6226	-2.5844	-0.0260	-2.6104	-2.7152	-0.1114	-2.8267	64.0413	99.9422	
   947	-2.6370	 0.0042	-2.6328	-2.5779	-0.0354	-2.6133	-2.7215	-0.1154	-2.8370	64.1045	99.9430	
   948	-2.6296	-0.0068	-2.6363	-2.5917	-0.0305	-2.6223	-2.7335	-0.1111	-2.8447	63.9771	99.9427	
   949	-2.6381	-0.0120	-2.6500	-2.6064	-0.0396	-2.6460	-2.7406	-0.1273	-2.8680	64.0392	99.9421	
   950	-2.6466	-0.0172	-2.6637	-2.5999	-0.0490	-2.6489	-2.7286	-0.1315	-2.8603	64.1045	99.9419	
   951	-2.6296	-0.0068	-2.6363	-2.5779	-0.0354	-2.6133	-2.7096	-0.1196	-2.8293	64.1055	99.9428	
   952	-2.6127	 0.0037	-2.6089	-2.5771	-0.0215	-2.5985	-2.6913	-0.1198	-2.8112	64.1686	99.9420	
   953	-2.6042	 0.0089	-2.5952	-2.5632	-0.0264	-2.5896	-2.6969	-0.1116	-2.8086	64.1045	99.9419	
   954	-2.6042	 0.0089	-2.5952	-2.5697	-0.0170	-2.5867	-2.6906	-0.1076	-2.7983	64.1055	99.9417	
   955	-2.6116	 0.0198	-2.5917	-2.5697	-0.0170	-2.5867	-2.6969	-0.1116	-2.8086	64.1676	99.9422	
   956	-2.6201	 0.0146	-2.6054	-2.5771	-0.0215	-2.5985	-2.7088	-0.1074	-2.8163	64.1045	99.9419	
   957	-2.6201	 0.0146	-2.6054	-2.5909	-0.0166	-2.6075	-2.7088	-0.1074	-2.8163	64.1045	99.9409	
   958	-2.6116	 0.0198	-2.5917	-2.5624	-0.0124	-2.5748	-2.6842	-0.1036	-2.7880	64.1696	99.9423	
   959	-2.5947	 0.0303	-2.5643	-2.5550	-0.0079	-2.5630	-2.6898	-0.0954	-2.7854	64.1045	99.9419	
   960	-2.6031	 0.0250	-2.5780	-2.5624	-0.0124	-2.5748	-2.6962	-0.0994	-2.7957	64.1045	99.9419	
   961	-2.6190	 0.0307	-2.5882	-2.5762	-0.0076	-2.5837	-2.7081	-0.0952	-2.8034	64.1045	99.9419	
   962	-2.6190	 0.0307	-2.5882	-2.5762	-0.0076	-2.5837	-2.7025	-0.1034	-2.8060	64.1676	99.9422	
   963	-2.6275	 0.0255	-2.6019	-2.5973	-0.0072	-2.6045	-2.7264	-0.0950	-2.8215	64.0403	99.9414	
   964	-2.6434	 0.0312	-2.6121	-2.6111	-0.0023	-2.6135	-2.7327	-0.0990	-2.8318	64.1034	99.9416	
   965	-2.6350	 0.0365	-2.5984	-2.5900	-0.0027	-2.5927	-2.7081	-0.0952	-2.8034	64.1686	99.9414	
   966	-2.6190	 0.0307	-2.5882	-2.5624	-0.0124	-2.5748	-2.7018	-0.0912	-2.7931	64.1055	99.9422	
   967	-2.6265	 0.0417	-2.5847	-2.5762	-0.0076	-2.5837	-2.7081	-0.0952	-2.8034	64.1676	99.9417	
   968	-2.6265	 0.0417	-2.5847	-2.5965	 0.0067	-2.5897	-2.7137	-0.0870	-2.8008	64.1045	99.9409	
   969	-2.6180	 0.0469	-2.5710	-2.5818	 0.0158	-2.5660	-2.7066	-0.0708	-2.7776	64.0424	99.9415	
   970	-2.5915	 0.0787	-2.5127	-2.5589	 0.0432	-2.5157	-2.6917	-0.0263	-2.7181	63.9173	99.9401	
   971	-2.5725	 0.1214	-2.4510	-2.5489	 0.0895	-2.4594	-2.6768	 0.0182	-2.6587	63.8554	99.9397	
   972	-2.5100	 0.2064	-2.3035	-2.4647	 0.1949	-2.2698	-2.5717	 0.1430	-2.4288	63.7428	99.9393	
   973	-2.3204	 0.3696	-1.9506	-2.2484	 0.3818	-1.8666	-2.3032	 0.3469	-1.9564	63.7667	99.9374	
   974	-1.9591	 0.6695	-1.2894	-1.7661	 0.7592	-1.0069	-1.7724	 0.7508	-1.0217	63.7545	99.9441	
   975	-1.3381	 1.0828	-0.2552	-1.1241	 1.2082	 0.0841	-1.1980	 1.1703	-0.0278	63.5969	99.9537	
   976	-0.7871	 1.4220	 0.6350	-0.5305	 1.5605	 1.0301	-0.6963	 1.4973	 0.8009	63.5553	99.9632	
   977	-0.3854	 1.5918	 1.2065	-0.1726	 1.7542	 1.5817	-0.3871	 1.6682	 1.2810	63.3814	99.9662	
   978	-0.2837	 1.6545	 1.3709	-0.1048	 1.8228	 1.7180	-0.3341	 1.7367	 1.4024	63.2011	99.9658	
   979	-0.2000	 1.6905	 1.4906	-0.0258	 1.8447	 1.8189	-0.2849	 1.7441	 1.4592	63.2566	99.9672	
   980	-0.2180	 1.6639	 1.4461	-0.0633	 1.8081	 1.7448	-0.3307	 1.6919	 1.3610	63.3083	99.9673	
   981	-0.2783	 1.6112	 1.3330	-0.1449	 1.7445	 1.5995	-0.4210	 1.6117	 1.1906	63.3575	99.9672	
   982	-0.4299	 1.5334	 1.1037	-0.3081	 1.6172	 1.3090	-0.5754	 1.4795	 0.9040	63.5858	99.9644	
   983	-0.6609	 1.3602	 0.6995	-0.5897	 1.4036	 0.8139	-0.8327	 1.2592	 0.4263	63.7487	99.9592	
   984	-0.9841	 1.1458	 0.1618	-0.9226	 1.1584	 0.2358	-1.1210	 1.0311	-0.0900	63.9207	99.9533	
   985	-1.2839	 0.9147	-0.3691	-1.2123	 0.9263	-0.2859	-1.3910	 0.8028	-0.5884	64.0338	99.9523	
   986	-1.6061	 0.7164	-0.8896	-1.5214	 0.7225	-0.7989	-1.6835	 0.6073	-1.0763	64.0862	99.9511	
   987	-1.8794	 0.5171	-1.3622	-1.8176	 0.4999	-1.3177	-1.9837	 0.3834	-1.6004	64.1320	99.9489	
   988	-2.1687	 0.3235	-1.8451	-2.1121	 0.3051	-1.8069	-2.2571	 0.1999	-2.0573	64.1229	99.9463	
   989	-2.3562	 0.1925	-2.1636	-2.2964	 0.1782	-2.1182	-2.4418	 0.0722	-2.3697	64.1158	99.9468	
   990	-2.4919	 0.1090	-2.3828	-2.4359	 0.0923	-2.3436	-2.5749	-0.0115	-2.5866	64.1107	99.9458	
   991	-2.5851	 0.0516	-2.5334	-2.5239	 0.0380	-2.4859	-2.6574	-0.0633	-2.7208	64.1086	99.9458	
   992	-2.6519	 0.0260	-2.6258	-2.5680	 0.0109	-2.5571	-2.6954	-0.0872	-2.7828	64.1726	99.9463	
   993	-2.6614	 0.0046	-2.6567	-2.5900	-0.0027	-2.5927	-2.7145	-0.0992	-2.8137	64.1086	99.9458	
   994	-2.6540	-0.0063	-2.6602	-2.5973	-0.0072	-2.6045	-2.7208	-0.1032	-2.8241	64.0445	99.9452	
   995	-2.6784	-0.0058	-2.6841	-2.6120	-0.0163	-2.6283	-2.7454	-0.1069	-2.8524	64.0435	99.9455	
   996	-2.6784	-0.0058	-2.6841	-2.6258	-0.0114	-2.6372	-2.7454	-0.1069	-2.8524	64.0435	99.9444	
   997	-2.6699	-0.0006	-2.6704	-2.6185	-0.0069	-2.6253	-2.7510	-0.0987	-2.8498	63.9793	99.9449	
   998	-2.6689	 0.0156	-2.6532	-2.6176	 0.0071	-2.6105	-2.7503	-0.0865	-2.8369	63.9793	99.9449	
   999	-2.6604	 0.0208	-2.6395	-2.6103	 0.0116	-2.5987	-2.7439	-0.0825	-2.8266	63.9793	99.9449	
  1000	-2.6434	 0.0312	-2.6121	-2.5882	 0.0252	-2.5631	-2.7249	-0.0706	-2.7956	63.9804	99.9457	
  1001	-2.6021	 0.0412	-2.5608	-2.5460	 0.0244	-2.5215	-2.6940	-0.0629	-2.7569	63.9804	99.9452	
  1002	-2.5936	 0.0464	-2.5471	-2.5524	 0.0338	-2.5186	-2.6820	-0.0671	-2.7492	64.0435	99.9444	
  1003	-2.6095	 0.0521	-2.5573	-2.5589	 0.0432	-2.5157	-2.6996	-0.0547	-2.7543	63.9804	99.9457	
  1004	-2.6095	 0.0521	-2.5573	-2.5662	 0.0387	-2.5275	-2.6996	-0.0547	-2.7543	63.9804	99.9442	
  1005	-2.6254	 0.0578	-2.5675	-2.5800	 0.0436	-2.5364	-2.7178	-0.0544	-2.7724	63.9793	99.9449	
  1006	-2.6413	 0.0635	-2.5777	-2.5874	 0.0391	-2.5483	-2.7242	-0.0584	-2.7827	64.0424	99.9446	
  1007	-2.6498	 0.0583	-2.5914	-2.6012	 0.0440	-2.5572	-2.7361	-0.0542	-2.7904	63.9793	99.9449	
  1008	-2.6413	 0.0635	-2.5777	-2.5938	 0.0485	-2.5454	-2.7234	-0.0462	-2.7698	63.9804	99.9442	
  1009	-2.6329	 0.0687	-2.5640	-2.5865	 0.0530	-2.5335	-2.7234	-0.0462	-2.7698	63.9793	99.9449	
  1010	-2.6329	 0.0687	-2.5640	-2.5938	 0.0485	-2.5454	-2.7234	-0.0462	-2.7698	63.9793	99.9433	
  1011	-2.6488	 0.0744	-2.5742	-2.6077	 0.0534	-2.5543	-2.7298	-0.0502	-2.7801	64.0424	99.9436	
  1012	-2.6488	 0.0744	-2.5742	-2.6215	 0.0582	-2.5632	-2.7417	-0.0460	-2.7878	63.9782	99.9430	
  1013	-2.6573	 0.0692	-2.5879	-2.6150	 0.0488	-2.5662	-2.7656	-0.0375	-2.8033	63.8508	99.9443	
  1014	-2.6732	 0.0749	-2.5981	-2.6426	 0.0586	-2.5840	-2.7720	-0.0415	-2.8136	63.9139	99.9435	
  1015	-2.6891	 0.0806	-2.6083	-2.6426	 0.0586	-2.5840	-2.7776	-0.0333	-2.8110	63.9151	99.9438	
  1016	-2.6562	 0.0854	-2.5707	-2.6141	 0.0628	-2.5514	-2.7529	-0.0296	-2.7826	63.9151	99.9438	
  1017	-2.6477	 0.0906	-2.5570	-2.6068	 0.0673	-2.5395	-2.7466	-0.0256	-2.7723	63.9151	99.9438	
  1018	-2.6636	 0.0963	-2.5672	-2.6206	 0.0722	-2.5484	-2.7649	-0.0253	-2.7903	63.9139	99.9446	
  1019	-2.6721	 0.0911	-2.5809	-2.6279	 0.0676	-2.5603	-2.7649	-0.0253	-2.7903	63.9151	99.9438	
  1020	-2.6721	 0.0911	-2.5809	-2.6417	 0.0725	-2.5692	-2.7712	-0.0293	-2.8007	63.9139	99.9435	
  1021	-2.6880	 0.0968	-2.5911	-2.6556	 0.0774	-2.5782	-2.7832	-0.0251	-2.8084	63.9139	99.9435	
  1022	-2.7039	 0.1025	-2.6014	-2.6629	 0.0729	-2.5900	-2.8015	-0.0249	-2.8264	63.9128	99.9438	
  1023	-2.7039	 0.1025	-2.6014	-2.6694	 0.0823	-2.5871	-2.8071	-0.0167	-2.8238	63.8496	99.9440	
  1024	-2.6796	 0.1020	-2.5775	-2.6482	 0.0819	-2.5663	-2.7824	-0.0129	-2.7955	63.8508	99.9433	
  1025	-2.6711	 0.1072	-2.5638	-2.6409	 0.0864	-2.5544	-2.7761	-0.0089	-2.7851	63.8508	99.9433	
  1026	-2.6785	 0.1181	-2.5603	-2.6473	 0.0958	-2.5515	-2.7761	-0.0089	-2.7851	63.9139	99.9435	
  1027	-2.6785	 0.1181	-2.5603	-2.6473	 0.0958	-2.5515	-2.7936	 0.0035	-2.7903	63.7864	99.9438	
  1028	-2.6785	 0.1181	-2.5603	-2.6473	 0.0958	-2.5515	-2.7936	 0.0035	-2.7903	63.7864	99.9438	
  1029	-2.6944	 0.1239	-2.5705	-2.6611	 0.1007	-2.5604	-2.8056	 0.0077	-2.7980	63.7864	99.9438	
  1030	-2.7103	 0.1296	-2.5807	-2.6750	 0.1056	-2.5694	-2.8119	 0.0037	-2.8083	63.8496	99.9440	
  1031	-2.7103	 0.1296	-2.5807	-2.6814	 0.1150	-2.5664	-2.8112	 0.0159	-2.7954	63.7876	99.9435	
  1032	-2.6934	 0.1400	-2.5533	-2.6529	 0.1192	-2.5338	-2.7866	 0.0197	-2.7670	63.8519	99.9441	
  1033	-2.6849	 0.1452	-2.5396	-2.6391	 0.1143	-2.5249	-2.7866	 0.0197	-2.7670	63.8508	99.9443	
  1034	-2.6849	 0.1452	-2.5396	-2.6529	 0.1192	-2.5338	-2.7985	 0.0239	-2.7747	63.7864	99.9438	
  1035	-2.7008	 0.1509	-2.5498	-2.6667	 0.1240	-2.5427	-2.7985	 0.0239	-2.7747	63.8508	99.9433	
  1036	-2.7008	 0.1509	-2.5498	-2.6667	 0.1240	-2.5427	-2.8048	 0.0199	-2.7851	63.8496	99.9440	
  1037	-2.7167	 0.1566	-2.5600	-2.6806	 0.1289	-2.5516	-2.8168	 0.0241	-2.7928	63.8496	99.9440	
  1038	-2.7326	 0.1623	-2.5702	-2.6879	 0.1244	-2.5635	-2.8287	 0.0283	-2.8005	63.8496	99.9435	
  1039	-2.7167	 0.1566	-2.5600	-2.6870	 0.1383	-2.5487	-2.8161	 0.0363	-2.7798	63.7876	99.9435	
  1040	-2.6839	 0.1614	-2.5224	-2.6659	 0.1380	-2.5279	-2.7978	 0.0361	-2.7618	63.7864	99.9427	
  1041	-2.6998	 0.1671	-2.5326	-2.6659	 0.1380	-2.5279	-2.8097	 0.0403	-2.7695	63.7864	99.9438	
  1042	-2.6998	 0.1671	-2.5326	-2.6659	 0.1380	-2.5279	-2.8097	 0.0403	-2.7695	63.7864	99.9438	
  1043	-2.7072	 0.1780	-2.5291	-2.6659	 0.1380	-2.5279	-2.8097	 0.0403	-2.7695	63.8496	99.9435	
  1044	-2.7072	 0.1780	-2.5291	-2.6862	 0.1522	-2.5339	-2.8153	 0.0485	-2.7669	63.7864	99.9427	
  1045	-2.7146	 0.1889	-2.5256	-2.6862	 0.1522	-2.5339	-2.8273	 0.0527	-2.7746	63.7852	99.9429	
  1046	-2.7146	 0.1889	-2.5256	-2.6926	 0.1616	-2.5310	-2.8209	 0.0567	-2.7643	63.7864	99.9427	
  1047	-2.6977	 0.1994	-2.4982	-2.6568	 0.1703	-2.4865	-2.8019	 0.0687	-2.7333	63.7876	99.9446	
  1048	-2.6733	 0.1989	-2.4743	-2.6495	 0.1748	-2.4746	-2.7956	 0.0726	-2.7230	63.7232	99.9440	
  1049	-2.6807	 0.2098	-2.4708	-2.6421	 0.1794	-2.4628	-2.7892	 0.0766	-2.7127	63.7876	99.9446	
  1050	-2.6722	 0.2150	-2.4571	-2.6486	 0.1888	-2.4598	-2.7948	 0.0848	-2.7101	63.7232	99.9440	
  1051	-2.6797	 0.2259	-2.4536	-2.6551	 0.1982	-2.4569	-2.8004	 0.0930	-2.7075	63.7232	99.9440	
  1052	-2.6797	 0.2259	-2.4536	-2.6551	 0.1982	-2.4569	-2.8004	 0.0930	-2.7075	63.7232	99.9440	
  1053	-2.6956	 0.2316	-2.4638	-2.6689	 0.2030	-2.4658	-2.8068	 0.0891	-2.7178	63.7864	99.9443	
  1054	-2.6797	 0.2259	-2.4536	-2.6551	 0.1982	-2.4569	-2.7941	 0.0970	-2.6972	63.7245	99.9433	
  1055	-2.6712	 0.2312	-2.4399	-2.6477	 0.2027	-2.4450	-2.7941	 0.0970	-2.6972	63.7232	99.9440	
  1056	-2.6871	 0.2369	-2.4501	-2.6551	 0.1982	-2.4569	-2.8004	 0.0930	-2.7075	63.7864	99.9438	
  1057	-2.6797	 0.2259	-2.4536	-2.6689	 0.2030	-2.4658	-2.8124	 0.0973	-2.7152	63.6588	99.9435	
  1058	-2.6956	 0.2316	-2.4638	-2.6689	 0.2030	-2.4658	-2.8187	 0.0933	-2.7255	63.7220	99.9448	
  1059	-2.6956	 0.2316	-2.4638	-2.6827	 0.2079	-2.4748	-2.8187	 0.0933	-2.7255	63.7220	99.9437	
  1060	-2.7115	 0.2373	-2.4740	-2.6900	 0.2034	-2.4866	-2.8307	 0.0975	-2.7333	63.7220	99.9432	
  1061	-2.7115	 0.2373	-2.4740	-2.6827	 0.2079	-2.4748	-2.8243	 0.1015	-2.7229	63.7232	99.9440	
  1062	-2.6786	 0.2421	-2.4364	-2.6542	 0.2121	-2.4421	-2.8053	 0.1134	-2.6920	63.6600	99.9438	
  1063	-2.6702	 0.2473	-2.4228	-2.6468	 0.2166	-2.4302	-2.7933	 0.1092	-2.6842	63.7232	99.9440	
  1064	-2.6776	 0.2582	-2.4193	-2.6533	 0.2260	-2.4273	-2.7989	 0.1174	-2.6816	63.7232	99.9440	
  1065	-2.6776	 0.2582	-2.4193	-2.6533	 0.2260	-2.4273	-2.7989	 0.1174	-2.6816	63.7232	99.9440	
  1066	-2.6850	 0.2691	-2.4158	-2.6598	 0.2354	-2.4244	-2.8046	 0.1256	-2.6790	63.7232	99.9440	
  1067	-2.6850	 0.2691	-2.4158	-2.6598	 0.2354	-2.4244	-2.8102	 0.1338	-2.6764	63.6600	99.9438	
  1068	-2.6840	 0.2853	-2.3986	-2.6589	 0.2493	-2.4096	-2.8094	 0.1460	-2.6635	63.6600	99.9438	
  1069	-2.6511	 0.2900	-2.3610	-2.6434	 0.2723	-2.3711	-2.8023	 0.1622	-2.6402	63.5324	99.9451	
  1070	-2.6172	 0.3109	-2.3062	-2.6205	 0.2998	-2.3207	-2.7882	 0.1945	-2.5937	63.4059	99.9451	
  1071	-2.5822	 0.3479	-2.2342	-2.5820	 0.3502	-2.2318	-2.7296	 0.2548	-2.4750	63.3513	99.9440	
  1072	-2.3227	 0.5852	-1.7374	-2.2392	 0.6417	-1.5975	-2.3701	 0.5511	-1.8191	63.3268	99.9505	
  1073	-1.8829	 0.8404	-1.0424	-1.8118	 0.9318	-0.8799	-1.9889	 0.8023	-1.1866	63.2171	99.9572	
  1074	-1.5512	 1.0601	-0.4910	-1.4651	 1.1722	-0.2929	-1.6823	 1.0302	-0.6522	63.1100	99.9619	
  1075	-1.3308	 1.1958	-0.1349	-1.2522	 1.3033	 0.0511	-1.5104	 1.1500	-0.3605	63.0515	99.9642	
  1076	-1.3224	 1.2010	-0.1212	-1.2440	 1.3217	 0.0777	-1.4723	 1.1739	-0.2985	63.0591	99.9629	
  1077	-1.6158	 0.9429	-0.6728	-1.5865	 0.9234	-0.6631	-1.8556	 0.6868	-1.1689	63.9978	99.9615	
  1078	-2.5430	 0.3256	-2.2173	-2.6416	 0.3001	-2.3415	-2.9479	 0.1763	-2.7717	62.7927	99.9496	
  1079	-3.1027	 0.2290	-2.8736	-3.1177	 0.2478	-2.8699	-3.2841	 0.1643	-3.1199	62.7532	99.9447	
  1080	-2.9894	 0.3453	-2.6440	-2.9049	 0.3789	-2.5259	-2.9700	 0.3148	-2.6553	63.2429	99.9429	
  1081	-2.5464	 0.5250	-2.0212	-2.4412	 0.5708	-1.8704	-2.5145	 0.4838	-2.0308	63.5146	99.9470	
  1082	-2.1807	 0.6416	-1.5389	-2.1317	 0.6678	-1.4639	-2.2921	 0.5297	-1.7625	63.5652	99.9521	
  1083	-2.1753	 0.5984	-1.5768	-2.1279	 0.6166	-1.5112	-2.2999	 0.5014	-1.7986	63.5014	99.9507	
  1084	-2.1679	 0.5875	-1.5803	-2.1067	 0.6163	-1.4904	-2.2689	 0.5091	-1.7599	63.5067	99.9508	
  1085	-2.1499	 0.6141	-1.5357	-2.0627	 0.6434	-1.4193	-2.2063	 0.5368	-1.6696	63.6389	99.9510	
  1086	-2.1160	 0.6350	-1.4809	-2.0398	 0.6709	-1.3689	-2.1921	 0.5691	-1.6231	63.5146	99.9510	
  1087	-2.0906	 0.6506	-1.4398	-2.0104	 0.6890	-1.3214	-2.1667	 0.5851	-1.5818	63.5159	99.9517	
  1088	-2.0821	 0.6558	-1.4261	-2.0104	 0.6890	-1.3214	-2.1675	 0.5729	-1.5947	63.5755	99.9519	
  1089	-2.0906	 0.6506	-1.4398	-2.0104	 0.6890	-1.3214	-2.1731	 0.5811	-1.5921	63.5146	99.9524	
  1090	-2.0630	 0.6986	-1.3644	-1.9785	 0.7488	-1.2296	-2.1328	 0.6415	-1.4914	63.4578	99.9528	
  1091	-1.9348	 0.7930	-1.1417	-1.8446	 0.8581	-0.9865	-2.0053	 0.7334	-1.2719	63.4645	99.9554	
  1092	-1.8860	 0.7920	-1.0939	-1.8032	 0.8434	-0.9598	-1.9814	 0.7250	-1.2565	63.4618	99.9550	
  1093	-1.9539	 0.7503	-1.2035	-1.8554	 0.7978	-1.0576	-2.0272	 0.6727	-1.3546	63.5844	99.9556	
  1094	-2.2528	 0.6592	-1.5934	-2.2081	 0.6877	-1.5204	-2.4489	 0.5602	-1.8887	63.1131	99.9563	
  1095	-2.5687	 0.5578	-2.0108	-2.5241	 0.6001	-1.9240	-2.7332	 0.4988	-2.2345	62.8556	99.9535	
  1096	-2.6259	 0.5535	-2.0723	-2.5655	 0.6147	-1.9508	-2.7142	 0.5108	-2.2035	62.9940	99.9517	
  1097	-2.5316	 0.6271	-1.9044	-2.4571	 0.6547	-1.8024	-2.5974	 0.5255	-2.0719	63.3723	99.9517	
  1098	-2.4097	 0.6247	-1.7849	-2.3164	 0.6477	-1.6688	-2.4503	 0.5358	-1.9146	63.5067	99.9508	
  1099	-2.2051	 0.6421	-1.5628	-2.1252	 0.6584	-1.4668	-2.2928	 0.5175	-1.7754	63.6912	99.9538	
  1100	-2.1011	 0.6131	-1.4879	-2.0415	 0.6430	-1.3985	-2.2324	 0.5086	-1.7238	63.5652	99.9545	
  1101	-2.0683	 0.6178	-1.4503	-2.0040	 0.6796	-1.3244	-2.1816	 0.5405	-1.6412	63.5093	99.9559	
  1102	-2.0662	 0.6501	-1.4159	-1.9737	 0.7116	-1.2621	-2.1548	 0.5808	-1.5741	63.5146	99.9570	
  1103	-2.0736	 0.6611	-1.4124	-1.9655	 0.7300	-1.2355	-2.1533	 0.6052	-1.5482	63.4551	99.9582	
  1104	-2.0821	 0.6558	-1.4261	-1.9867	 0.7304	-1.2563	-2.1723	 0.5933	-1.5792	63.4525	99.9585	
  1105	-2.1149	 0.6511	-1.4637	-2.0290	 0.7311	-1.2979	-2.2018	 0.6099	-1.5920	63.3296	99.9566	
  1106	-2.1128	 0.6834	-1.4294	-2.0052	 0.7725	-1.2327	-2.1623	 0.6582	-1.5042	63.3380	99.9567	
  1107	-2.0450	 0.7251	-1.3198	-1.9318	 0.8177	-1.1141	-2.0806	 0.6978	-1.3829	63.4054	99.9570	
  1108	-1.9613	 0.7612	-1.2000	-1.8666	 0.8445	-1.0221	-2.0426	 0.7217	-1.3210	63.3394	99.9574	
  1109	-1.9528	 0.7664	-1.1863	-1.8601	 0.8351	-1.0251	-2.0616	 0.7098	-1.3519	63.3338	99.9582	
  1110	-2.0122	 0.7299	-1.2822	-1.9115	 0.8034	-1.1081	-2.0996	 0.6858	-1.4139	63.3352	99.9576	
  1111	-2.1192	 0.7105	-1.4087	-2.0173	 0.8052	-1.2120	-2.1530	 0.7109	-1.4422	63.2200	99.9541	
  1112	-2.1934	 0.6958	-1.4976	-2.0842	 0.7506	-1.3336	-2.2313	 0.6265	-1.6049	63.5185	99.9550	
  1113	-2.4605	 0.5933	-1.8671	-2.3614	 0.6066	-1.7547	-2.5223	 0.4554	-2.0670	63.6838	99.9550	
  1114	-2.6459	 0.3707	-2.2750	-2.5665	 0.3732	-2.1933	-2.7065	 0.2342	-2.4724	63.7984	99.9512	
  1115	-2.6172	 0.3109	-2.3062	-2.5268	 0.3307	-2.1961	-2.6658	 0.2011	-2.4648	63.8019	99.9520	
  1116	-2.5589	 0.3313	-2.2275	-2.4974	 0.3488	-2.1486	-2.6707	 0.2215	-2.4493	63.6072	99.9523	
  1117	-2.5504	 0.3365	-2.2138	-2.5039	 0.3582	-2.1457	-2.6580	 0.2295	-2.4286	63.6085	99.9506	
  1118	-2.5494	 0.3527	-2.1966	-2.4966	 0.3627	-2.1339	-2.6516	 0.2334	-2.4183	63.6714	99.9504	
  1119	-2.5419	 0.3417	-2.2001	-2.4966	 0.3627	-2.1339	-2.6572	 0.2417	-2.4157	63.5456	99.9504	
  1120	-2.5335	 0.3469	-2.1864	-2.4828	 0.3578	-2.1249	-2.6509	 0.2456	-2.4054	63.5456	99.9500	
  1121	-2.5409	 0.3579	-2.1829	-2.4819	 0.3718	-2.1101	-2.6263	 0.2494	-2.3770	63.6751	99.9498	
  1122	-2.5080	 0.3626	-2.1453	-2.4469	 0.3665	-2.0804	-2.6016	 0.2531	-2.3486	63.6751	99.9493	
  1123	-2.4996	 0.3678	-2.1316	-2.4396	 0.3710	-2.0685	-2.5897	 0.2489	-2.3409	63.7379	99.9495	
  1124	-2.4996	 0.3678	-2.1316	-2.4396	 0.3710	-2.0685	-2.5897	 0.2489	-2.3409	63.7379	99.9495	
  1125	-2.4911	 0.3730	-2.1179	-2.4396	 0.3710	-2.0685	-2.6072	 0.2613	-2.3460	63.6098	99.9490	
  1126	-2.4911	 0.3730	-2.1179	-2.4461	 0.3804	-2.0656	-2.6072	 0.2613	-2.3460	63.6098	99.9495	
  1127	-2.4985	 0.3840	-2.1144	-2.4461	 0.3804	-2.0656	-2.6009	 0.2653	-2.3357	63.6739	99.9485	
  1128	-2.4900	 0.3892	-2.1008	-2.4452	 0.3944	-2.0508	-2.5763	 0.2691	-2.3073	63.7391	99.9478	
  1129	-2.4487	 0.3991	-2.0495	-2.3956	 0.3982	-1.9974	-2.5453	 0.2768	-2.2686	63.7391	99.9488	
  1130	-2.4317	 0.4096	-2.0221	-2.3744	 0.3978	-1.9766	-2.5270	 0.2766	-2.2505	63.8019	99.9486	
  1131	-2.4233	 0.4148	-2.0084	-2.3809	 0.4072	-1.9737	-2.5326	 0.2848	-2.2479	63.7379	99.9481	
  1132	-2.4148	 0.4200	-1.9947	-2.3809	 0.4072	-1.9737	-2.5263	 0.2888	-2.2376	63.7379	99.9465	
  1133	-2.4148	 0.4200	-1.9947	-2.3735	 0.4117	-1.9618	-2.5263	 0.2888	-2.2376	63.7379	99.9481	
  1134	-2.4148	 0.4200	-1.9947	-2.3873	 0.4166	-1.9707	-2.5382	 0.2930	-2.2453	63.6739	99.9475	
  1135	-2.4222	 0.4309	-1.9912	-2.3800	 0.4211	-1.9589	-2.5319	 0.2970	-2.2350	63.7379	99.9481	
  1136	-2.3734	 0.4300	-1.9434	-2.3377	 0.4204	-1.9173	-2.4890	 0.3005	-2.1886	63.7391	99.9473	
  1137	-2.3565	 0.4404	-1.9160	-2.3230	 0.4295	-1.8936	-2.4826	 0.3045	-2.1783	63.7379	99.9481	
  1138	-2.3639	 0.4513	-1.9125	-2.3230	 0.4295	-1.8936	-2.4763	 0.3085	-2.1679	63.8019	99.9471	
  1139	-2.3480	 0.4456	-1.9023	-2.3157	 0.4340	-1.8817	-2.4763	 0.3085	-2.1679	63.7379	99.9481	
  1140	-2.3470	 0.4618	-1.8851	-2.3084	 0.4385	-1.8698	-2.4699	 0.3124	-2.1576	63.8007	99.9478	
  1141	-2.3470	 0.4618	-1.8851	-2.3084	 0.4385	-1.8698	-2.4699	 0.3124	-2.1576	63.8007	99.9478	
  1142	-2.3470	 0.4618	-1.8851	-2.3084	 0.4385	-1.8698	-2.4699	 0.3124	-2.1576	63.8007	99.9478	
  1143	-2.3141	 0.4665	-1.8475	-2.2799	 0.4427	-1.8372	-2.4270	 0.3159	-2.1112	63.8658	99.9466	
  1144	-2.2897	 0.4660	-1.8236	-2.2587	 0.4423	-1.8164	-2.4151	 0.3117	-2.1035	63.8647	99.9473	
  1145	-2.2897	 0.4660	-1.8236	-2.2652	 0.4517	-1.8135	-2.4270	 0.3159	-2.1112	63.8007	99.9483	
  1146	-2.2971	 0.4769	-1.8201	-2.2652	 0.4517	-1.8135	-2.4326	 0.3242	-2.1086	63.8007	99.9478	
  1147	-2.2812	 0.4712	-1.8099	-2.2652	 0.4517	-1.8135	-2.4326	 0.3242	-2.1086	63.7367	99.9473	
  1148	-2.2971	 0.4769	-1.8201	-2.2652	 0.4517	-1.8135	-2.4270	 0.3159	-2.1112	63.8635	99.9480	
  1149	-2.2897	 0.4660	-1.8236	-2.2725	 0.4472	-1.8253	-2.4453	 0.3162	-2.1292	63.7355	99.9480	
  1150	-2.2971	 0.4769	-1.8201	-2.2652	 0.4517	-1.8135	-2.4151	 0.3117	-2.1035	63.9275	99.9475	
  1151	-2.2643	 0.4817	-1.7825	-2.2302	 0.4465	-1.7838	-2.4024	 0.3197	-2.0828	63.8635	99.9476	
  1152	-2.2484	 0.4760	-1.7723	-2.2367	 0.4559	-1.7808	-2.4024	 0.3197	-2.0828	63.7995	99.9475	
  1153	-2.2484	 0.4760	-1.7723	-2.2302	 0.4465	-1.7838	-2.4024	 0.3197	-2.0828	63.7995	99.9470	
  1154	-2.2484	 0.4760	-1.7723	-2.2302	 0.4465	-1.7838	-2.3968	 0.3115	-2.0854	63.8624	99.9472	
  1155	-2.2484	 0.4760	-1.7723	-2.2440	 0.4514	-1.7927	-2.4087	 0.3157	-2.0931	63.7984	99.9467	
  1156	-2.2484	 0.4760	-1.7723	-2.2440	 0.4514	-1.7927	-2.4087	 0.3157	-2.0931	63.7984	99.9467	
  1157	-2.2643	 0.4817	-1.7825	-2.2578	 0.4562	-1.8016	-2.4207	 0.3199	-2.1009	63.7984	99.9467	
  1158	-2.2558	 0.4869	-1.7688	-2.2367	 0.4559	-1.7808	-2.3961	 0.3237	-2.0725	63.8635	99.9465	
  1159	-2.2145	 0.4968	-1.7175	-2.2009	 0.4646	-1.7363	-2.3714	 0.3274	-2.0441	63.8624	99.9472	
  1160	-2.2060	 0.5021	-1.7038	-2.2073	 0.4740	-1.7334	-2.3651	 0.3314	-2.0338	63.8624	99.9462	
  1161	-2.2134	 0.5130	-1.7003	-2.1935	 0.4691	-1.7244	-2.3651	 0.3314	-2.0338	63.9252	99.9470	
  1162	-2.2134	 0.5130	-1.7003	-2.1935	 0.4691	-1.7244	-2.3651	 0.3314	-2.0338	63.9252	99.9470	
  1163	-2.2134	 0.5130	-1.7003	-2.2073	 0.4740	-1.7334	-2.3770	 0.3356	-2.0415	63.8612	99.9464	
  1164	-2.2134	 0.5130	-1.7003	-2.2073	 0.4740	-1.7334	-2.3834	 0.3317	-2.0518	63.8601	99.9472	
  1165	-2.2219	 0.5078	-1.7140	-2.2147	 0.4694	-1.7452	-2.3897	 0.3277	-2.0622	63.8601	99.9472	
  1166	-2.2219	 0.5078	-1.7140	-2.2147	 0.4694	-1.7452	-2.3953	 0.3359	-2.0595	63.7972	99.9469	
  1167	-2.2049	 0.5182	-1.6866	-2.1862	 0.4736	-1.7126	-2.3707	 0.3396	-2.0312	63.8612	99.9475	
  1168	-2.1890	 0.5125	-1.6764	-2.1862	 0.4736	-1.7126	-2.3588	 0.3354	-2.0234	63.8612	99.9464	
  1169	-2.1890	 0.5125	-1.6764	-2.2000	 0.4785	-1.7215	-2.3707	 0.3396	-2.0312	63.7972	99.9459	
  1170	-2.1890	 0.5125	-1.6764	-2.2065	 0.4879	-1.7186	-2.3707	 0.3396	-2.0312	63.7972	99.9464	
  1171	-2.2124	 0.5291	-1.6831	-2.2065	 0.4879	-1.7186	-2.3826	 0.3438	-2.0389	63.8601	99.9472	
  1172	-2.2124	 0.5291	-1.6831	-2.2138	 0.4834	-1.7304	-2.3890	 0.3399	-2.0492	63.8589	99.9464	
  1173	-2.2208	 0.5239	-1.6968	-2.2276	 0.4882	-1.7394	-2.4009	 0.3441	-2.0569	63.7960	99.9466	
  1174	-2.2208	 0.5239	-1.6968	-2.2276	 0.4882	-1.7394	-2.4009	 0.3441	-2.0569	63.7960	99.9466	
  1175	-2.2039	 0.5343	-1.6695	-2.1991	 0.4924	-1.7067	-2.3700	 0.3518	-2.0182	63.8612	99.9464	
  1176	-2.1795	 0.5339	-1.6456	-2.1780	 0.4921	-1.6859	-2.3636	 0.3558	-2.0079	63.7972	99.9469	
  1177	-2.1869	 0.5448	-1.6421	-2.1780	 0.4921	-1.6859	-2.3636	 0.3558	-2.0079	63.8601	99.9467	
  1178	-2.1869	 0.5448	-1.6421	-2.1845	 0.5015	-1.6830	-2.3636	 0.3558	-2.0079	63.8601	99.9472	
  1179	-2.1869	 0.5448	-1.6421	-2.1845	 0.5015	-1.6830	-2.3692	 0.3640	-2.0053	63.7972	99.9469	
  1180	-2.1869	 0.5448	-1.6421	-2.1983	 0.5063	-1.6919	-2.3756	 0.3600	-2.0156	63.7960	99.9466	
  1181	-2.2028	 0.5505	-1.6523	-2.2121	 0.5112	-1.7009	-2.3875	 0.3642	-2.0234	63.7960	99.9466	
  1182	-2.2028	 0.5505	-1.6523	-2.2121	 0.5112	-1.7009	-2.3875	 0.3642	-2.0234	63.7960	99.9466	
  1183	-2.2103	 0.5614	-1.6488	-2.2047	 0.5157	-1.6890	-2.3748	 0.3722	-2.0027	63.8612	99.9464	
  1184	-2.1774	 0.5661	-1.6112	-2.1762	 0.5199	-1.6563	-2.3502	 0.3760	-1.9743	63.8612	99.9464	
  1185	-2.1615	 0.5604	-1.6010	-2.1762	 0.5199	-1.6563	-2.3621	 0.3802	-1.9821	63.7331	99.9464	
  1186	-2.1774	 0.5661	-1.6112	-2.1762	 0.5199	-1.6563	-2.3621	 0.3802	-1.9821	63.7972	99.9469	
  1187	-2.1774	 0.5661	-1.6112	-2.1901	 0.5248	-1.6653	-2.3621	 0.3802	-1.9821	63.7972	99.9459	
  1188	-2.1774	 0.5661	-1.6112	-2.1965	 0.5342	-1.6623	-2.3741	 0.3844	-1.9898	63.7331	99.9469	
  1189	-2.1933	 0.5718	-1.6214	-2.2039	 0.5297	-1.6742	-2.3804	 0.3804	-2.0001	63.7960	99.9466	
  1190	-2.2018	 0.5666	-1.6351	-2.2112	 0.5251	-1.6861	-2.3868	 0.3764	-2.0104	63.7960	99.9466	
  1191	-2.2018	 0.5666	-1.6351	-2.2039	 0.5297	-1.6742	-2.3741	 0.3844	-1.9898	63.7984	99.9467	
  1192	-2.1848	 0.5771	-1.6077	-2.1827	 0.5293	-1.6534	-2.3677	 0.3884	-1.9795	63.7972	99.9469	
  1193	-2.1848	 0.5771	-1.6077	-2.1901	 0.5248	-1.6653	-2.3741	 0.3844	-1.9898	63.7960	99.9461	
  1194	-2.1933	 0.5718	-1.6214	-2.2039	 0.5297	-1.6742	-2.3804	 0.3804	-2.0001	63.7960	99.9466	
  1195	-2.2008	 0.5828	-1.6179	-2.2103	 0.5391	-1.6713	-2.3741	 0.3844	-1.9898	63.8601	99.9461	
  1196	-2.2008	 0.5828	-1.6179	-2.2039	 0.5297	-1.6742	-2.3860	 0.3886	-1.9975	63.7960	99.9461	
  1197	-2.2092	 0.5776	-1.6316	-2.2177	 0.5345	-1.6831	-2.3987	 0.3806	-2.0182	63.7948	99.9473	
  1198	-2.2092	 0.5776	-1.6316	-2.2103	 0.5391	-1.6713	-2.3860	 0.3886	-1.9975	63.7972	99.9474	
  1199	-2.1764	 0.5823	-1.5940	-2.1754	 0.5338	-1.6416	-2.3558	 0.3842	-1.9717	63.8601	99.9472	
  1200	-2.1764	 0.5823	-1.5940	-2.1957	 0.5481	-1.6476	-2.3677	 0.3884	-1.9795	63.7960	99.9471	
  1201	-2.1923	 0.5880	-1.6042	-2.1957	 0.5481	-1.6476	-2.3733	 0.3966	-1.9769	63.7972	99.9474	
  1202	-2.1838	 0.5932	-1.5905	-2.1883	 0.5526	-1.6357	-2.3670	 0.4006	-1.9665	63.7972	99.9474	
  1203	-2.1828	 0.6094	-1.5733	-2.1874	 0.5665	-1.6209	-2.3599	 0.4167	-1.9433	63.7984	99.9467	
  1204	-2.1658	 0.6198	-1.5459	-2.1654	 0.5801	-1.5853	-2.3409	 0.4287	-1.9123	63.7995	99.9475	
  1205	-2.1563	 0.6412	-1.5150	-2.1434	 0.5937	-1.5497	-2.3219	 0.4407	-1.8813	63.8635	99.9480	
  1206	-2.1160	 0.6350	-1.4809	-2.1223	 0.5933	-1.5289	-2.2980	 0.4322	-1.8659	63.8624	99.9477	
  1207	-2.1160	 0.6350	-1.4809	-2.1223	 0.5933	-1.5289	-2.3155	 0.4446	-1.8710	63.7355	99.9480	
  1208	-2.1234	 0.6459	-1.4774	-2.1287	 0.6027	-1.5260	-2.3092	 0.4486	-1.8607	63.7995	99.9475	
  1209	-2.1224	 0.6620	-1.4602	-2.1140	 0.6118	-1.5023	-2.3021	 0.4648	-1.8374	63.8007	99.9478	
  1210	-2.1054	 0.6725	-1.4329	-2.1196	 0.6351	-1.4846	-2.2950	 0.4810	-1.8142	63.7379	99.9470	
  1211	-2.1203	 0.6943	-1.4259	-2.1123	 0.6396	-1.4727	-2.2824	 0.4889	-1.7935	63.8658	99.9466	
  1212	-2.1033	 0.7048	-1.3985	-2.0829	 0.6577	-1.4253	-2.2507	 0.5089	-1.7419	63.8693	99.9475	
  1213	-2.0535	 0.7199	-1.3335	-2.0398	 0.6709	-1.3689	-2.2070	 0.5246	-1.6825	63.8704	99.9467	
  1214	-2.0206	 0.7247	-1.2959	-2.0316	 0.6893	-1.3422	-2.1943	 0.5325	-1.6619	63.8066	99.9467	
  1215	-2.0366	 0.7304	-1.3061	-2.0316	 0.6893	-1.3422	-2.2119	 0.5450	-1.6670	63.7440	99.9475	
  1216	-2.0440	 0.7413	-1.3026	-2.0380	 0.6987	-1.3393	-2.2119	 0.5450	-1.6670	63.8066	99.9477	
  1217	-2.0514	 0.7522	-1.2991	-2.0372	 0.7127	-1.3245	-2.2104	 0.5693	-1.6411	63.7464	99.9475	
  1218	-2.0249	 0.7840	-1.2408	-2.0069	 0.7447	-1.2623	-2.1780	 0.6015	-1.5766	63.7488	99.9476	
  1219	-2.0080	 0.7945	-1.2134	-1.9987	 0.7631	-1.2356	-2.1653	 0.6094	-1.5559	63.7488	99.9481	
  1220	-1.9995	 0.7997	-1.1997	-1.9776	 0.7627	-1.2148	-2.1406	 0.6132	-1.5276	63.8137	99.9479	
  1221	-1.9995	 0.7997	-1.1997	-1.9849	 0.7582	-1.2267	-2.1470	 0.6092	-1.5379	63.8125	99.9471	
  1222	-2.0249	 0.7840	-1.2408	-2.0143	 0.7401	-1.2741	-2.1970	 0.5895	-1.6076	63.7452	99.9483	
  1223	-2.0917	 0.7584	-1.3332	-2.0795	 0.7134	-1.3661	-2.2414	 0.5616	-1.6799	63.8078	99.9470	
  1224	-2.1171	 0.7427	-1.3743	-2.0941	 0.7043	-1.3898	-2.2660	 0.5579	-1.7082	63.7452	99.9483	
