OxySoft export of:	C:\Users\TO3 TechSupport\Documents\Train2Adapt\T2A_10
Export date:	2022/09/09 17:47:48
Start of measurement:	2022-09-09 16:07:50.486

Datafile sample rate:	10.00	Hz
Datafile duration:	4145.200	s
Datafile total number of samples:	41452

Description:	

Optode-template:	PortaMon TSI Fit Factor
Optode distance (mm):	 35.00
Optode gradients (mm):	 5.00
DPF:	6.58

Device id:	291
# Receivers:	1
# Light sources:	6
# ADC:	2

Light source wavelengths:
device	index	wavelength
1	1	847	nm
1	2	761	nm
1	3	848	nm
1	4	761	nm
1	5	848	nm
1	6	762	nm

Export sample rate:	10.00	Hz
Selected time span:	0	4145.200
Selected time span (sample numbers):	0	41452


Legend:
Column	Trace (Measurement)
1	(Sample number)
2	Rx1-Tx1 O2Hb (T2A_10)
3	Rx1-Tx1 HHb (T2A_10)
4	Rx1-Tx1 tHb (T2A_10)
5	Rx1-Tx2 O2Hb (T2A_10)
6	Rx1-Tx2 HHb (T2A_10)
7	Rx1-Tx2 tHb (T2A_10)
8	Rx1-Tx3 O2Hb (T2A_10)
9	Rx1-Tx3 HHb (T2A_10)
10	Rx1-Tx3 tHb (T2A_10)
11	Rx1-Tx1,Tx2,Tx3 TSI% (T2A_10)
12	Rx1-Tx1,Tx2,Tx3 TSI Fit Factor (T2A_10)
13	(Event)


1	2	3	4	5	6	7	8	9	10	11	12	13
     0	132.4617	69.7663	202.2280	107.9338	56.2639	164.1977	92.3225	51.4390	143.7615	43.7250	98.5201	
     1	 0.0898	-0.0180	 0.0718	 0.1085	-0.0205	 0.0880	 0.1287	-0.0311	 0.0976	64.5255	99.8430	
     2	 0.1351	-0.0195	 0.1156	 0.1159	-0.0037	 0.1122	 0.1345	-0.0275	 0.1070	64.4229	99.8413	
     3	 0.1125	-0.0188	 0.0937	 0.0899	-0.0071	 0.0828	 0.1117	-0.0304	 0.0813	64.4221	99.8424	
     4	 0.1046	-0.0235	 0.0811	 0.0773	-0.0025	 0.0748	 0.1059	-0.0340	 0.0719	64.4221	99.8410	
     5	 0.0898	-0.0180	 0.0718	 0.0832	-0.0112	 0.0720	 0.0947	-0.0298	 0.0649	64.4221	99.8414	
     6	 0.0819	-0.0227	 0.0593	 0.0513	-0.0059	 0.0454	 0.0778	-0.0292	 0.0486	64.3711	99.8428	
     7	 0.0445	-0.0164	 0.0280	 0.0379	-0.0140	 0.0239	 0.0550	-0.0321	 0.0229	64.4213	99.8425	
     8	 0.0288	-0.0258	 0.0029	 0.0186	-0.0134	 0.0052	 0.0269	-0.0273	-0.0004	64.3200	99.8414	
     9	 0.0209	-0.0305	-0.0096	-0.0134	-0.0081	-0.0214	 0.0152	-0.0343	-0.0191	64.3192	99.8420	
    10	 0.0052	-0.0399	-0.0347	-0.0267	-0.0162	-0.0429	-0.0129	-0.0295	-0.0424	64.2177	99.8423	
    11	-0.0244	-0.0290	-0.0534	-0.0527	-0.0196	-0.0723	-0.0298	-0.0289	-0.0587	64.2680	99.8452	
    12	-0.0166	-0.0243	-0.0409	-0.0193	 0.0006	-0.0187	 0.0216	-0.0196	 0.0021	64.3734	99.8419	
    13	 0.0680	-0.0023	 0.0656	 0.0780	 0.0103	 0.0883	 0.1234	-0.0234	 0.1000	64.5764	99.8407	
    14	 0.0907	-0.0031	 0.0875	 0.0906	 0.0056	 0.0962	 0.1123	-0.0192	 0.0931	64.4739	99.8408	
    15	 0.0828	-0.0078	 0.0750	 0.0713	 0.0062	 0.0775	 0.0789	-0.0067	 0.0723	64.3216	99.8415	
    16	 0.0680	-0.0023	 0.0656	 0.0587	 0.0109	 0.0696	 0.0901	-0.0108	 0.0792	64.4237	99.8425	
    17	 0.0680	-0.0023	 0.0656	 0.0587	 0.0109	 0.0696	 0.0842	-0.0144	 0.0698	64.4229	99.8413	
    18	 0.0453	-0.0016	 0.0438	 0.0394	 0.0115	 0.0509	 0.0561	-0.0096	 0.0466	64.3719	99.8408	
    19	 0.0227	-0.0008	 0.0219	 0.0134	 0.0081	 0.0215	 0.0281	-0.0048	 0.0233	64.3208	99.8426	
    20	-0.0000	-0.0000	-0.0000	 0.0000	 0.0000	 0.0000	-0.0000	 0.0000	 0.0000	64.2697	99.8435	
    21	-0.0227	 0.0008	-0.0219	-0.0193	 0.0006	-0.0187	-0.0059	-0.0035	-0.0094	64.3208	99.8440	
    22	-0.0453	 0.0015	-0.0438	-0.0446	 0.0100	-0.0346	-0.0176	-0.0106	-0.0281	64.3711	99.8419	
    23	-0.0532	-0.0032	-0.0564	-0.0698	 0.0193	-0.0505	-0.0228	-0.0029	-0.0257	64.3216	99.8434	
    24	 0.0009	 0.0148	 0.0157	 0.0275	 0.0289	 0.0564	 0.0743	 0.0123	 0.0865	64.4776	99.8424	
    25	 0.0846	 0.0219	 0.1065	 0.0988	 0.0351	 0.1339	 0.1474	 0.0020	 0.1494	64.5779	99.8409	
    26	 0.0994	 0.0164	 0.1158	 0.0921	 0.0311	 0.1232	 0.1304	 0.0027	 0.1331	64.4754	99.8419	
    27	 0.0846	 0.0219	 0.1065	 0.0735	 0.0445	 0.1180	 0.1193	 0.0068	 0.1261	64.4754	99.8405	
    28	 0.0776	 0.0321	 0.1097	 0.0862	 0.0398	 0.1260	 0.1088	 0.0223	 0.1310	64.4252	99.8418	
    29	 0.0846	 0.0219	 0.1065	 0.0735	 0.0445	 0.1180	 0.1029	 0.0187	 0.1216	64.3742	99.8408	
    30	 0.0549	 0.0329	 0.0878	 0.0475	 0.0410	 0.0886	 0.0801	 0.0158	 0.0959	64.4237	99.8425	
    31	 0.0244	 0.0289	 0.0533	 0.0156	 0.0463	 0.0619	 0.0573	 0.0129	 0.0702	64.4237	99.8411	
    32	 0.0166	 0.0242	 0.0408	 0.0149	 0.0336	 0.0484	 0.0403	 0.0136	 0.0539	64.3726	99.8420	
    33	-0.0061	 0.0250	 0.0189	-0.0230	 0.0476	 0.0245	 0.0181	 0.0219	 0.0400	64.3224	99.8423	
    34	-0.0288	 0.0258	-0.0030	-0.0364	 0.0395	 0.0031	-0.0047	 0.0190	 0.0143	64.3216	99.8425	
    35	-0.0514	 0.0266	-0.0249	-0.0683	 0.0448	-0.0236	-0.0217	 0.0196	-0.0020	64.3216	99.8434	
    36	-0.0279	 0.0407	 0.0128	-0.0097	 0.0557	 0.0460	 0.0526	 0.0319	 0.0845	64.4776	99.8433	
    37	 0.0706	 0.0423	 0.1129	 0.0876	 0.0653	 0.1529	 0.1433	 0.0323	 0.1755	64.5292	99.8404	
    38	 0.0933	 0.0415	 0.1348	 0.1003	 0.0606	 0.1609	 0.1321	 0.0364	 0.1686	64.4267	99.8405	
    39	 0.0636	 0.0524	 0.1161	 0.0683	 0.0659	 0.1343	 0.1093	 0.0335	 0.1429	64.4761	99.8409	
    40	 0.0636	 0.0524	 0.1161	 0.0683	 0.0659	 0.1343	 0.1041	 0.0412	 0.1453	64.4259	99.8416	
    41	 0.0558	 0.0477	 0.1035	 0.0557	 0.0706	 0.1263	 0.0982	 0.0377	 0.1359	64.4259	99.8402	
    42	 0.0331	 0.0485	 0.0816	 0.0423	 0.0625	 0.1048	 0.0702	 0.0425	 0.1126	64.3750	99.8411	
    43	 0.0105	 0.0493	 0.0597	 0.0104	 0.0678	 0.0782	 0.0473	 0.0396	 0.0869	64.3742	99.8408	
    44	-0.0044	 0.0548	 0.0504	-0.0089	 0.0684	 0.0595	 0.0304	 0.0402	 0.0706	64.3734	99.8419	
    45	-0.0270	 0.0555	 0.0285	-0.0156	 0.0644	 0.0488	 0.0023	 0.0450	 0.0473	64.3224	99.8405	
    46	-0.0349	 0.0508	 0.0160	-0.0476	 0.0697	 0.0221	-0.0146	 0.0457	 0.0310	64.2713	99.8418	
    47	-0.0506	 0.0414	-0.0091	-0.0609	 0.0616	 0.0006	-0.0316	 0.0463	 0.0147	64.2211	99.8426	
    48	-0.0497	 0.0563	 0.0066	-0.0409	 0.0737	 0.0328	 0.0199	 0.0556	 0.0755	64.3766	99.8445	
    49	 0.0488	 0.0579	 0.1067	 0.0631	 0.0874	 0.1505	 0.1216	 0.0518	 0.1735	64.4791	99.8398	
    50	 0.0645	 0.0673	 0.1318	 0.0757	 0.0827	 0.1585	 0.1105	 0.0560	 0.1665	64.4267	99.8405	
    51	 0.0419	 0.0681	 0.1099	 0.0438	 0.0880	 0.1318	 0.0824	 0.0608	 0.1433	64.3758	99.8410	
    52	 0.0270	 0.0735	 0.1006	 0.0312	 0.0927	 0.1238	 0.0713	 0.0650	 0.1363	64.3758	99.8410	
    53	 0.0340	 0.0634	 0.0974	 0.0312	 0.0927	 0.1238	 0.0713	 0.0650	 0.1363	64.3256	99.8403	
    54	 0.0044	 0.0743	 0.0787	-0.0008	 0.0979	 0.0972	 0.0374	 0.0663	 0.1037	64.3240	99.8402	
    55	-0.0183	 0.0751	 0.0568	-0.0141	 0.0899	 0.0757	 0.0204	 0.0669	 0.0873	64.3240	99.8416	
    56	-0.0410	 0.0759	 0.0349	-0.0275	 0.0818	 0.0543	-0.0024	 0.0640	 0.0616	64.3232	99.8417	
    57	-0.0636	 0.0766	 0.0130	-0.0468	 0.0824	 0.0356	-0.0193	 0.0646	 0.0453	64.3232	99.8417	
    58	-0.0793	 0.0672	-0.0121	-0.0788	 0.0877	 0.0089	-0.0421	 0.0617	 0.0196	64.2722	99.8408	
    59	-0.1020	 0.0680	-0.0340	-0.0981	 0.0883	-0.0098	-0.0591	 0.0624	 0.0032	64.2722	99.8408	
    60	-0.1090	 0.0782	-0.0308	-0.0847	 0.0964	 0.0117	-0.0246	 0.0723	 0.0477	64.3766	99.8422	
    61	-0.0026	 0.0845	 0.0819	 0.0260	 0.1141	 0.1401	 0.0836	 0.0833	 0.1669	64.4298	99.8394	
    62	 0.0358	 0.0931	 0.1289	 0.0520	 0.1175	 0.1695	 0.1006	 0.0827	 0.1832	64.4282	99.8393	
    63	 0.0209	 0.0986	 0.1195	 0.0386	 0.1095	 0.1481	 0.0836	 0.0833	 0.1669	64.4275	99.8418	
    64	 0.0358	 0.0931	 0.1289	 0.0393	 0.1222	 0.1615	 0.0900	 0.0981	 0.1881	64.3280	99.8417	
    65	 0.0532	 0.1322	 0.1854	 0.0668	 0.1511	 0.2179	 0.1257	 0.1306	 0.2563	64.3805	99.8437	
    66	 0.0924	 0.1557	 0.2482	 0.0809	 0.1720	 0.2529	 0.1432	 0.1412	 0.2844	64.3789	99.8445	
    67	 0.0916	 0.1409	 0.2324	 0.0794	 0.1465	 0.2259	 0.1239	 0.0968	 0.2208	64.4754	99.8405	
    68	-0.0140	 0.0203	 0.0064	-0.0386	 0.0012	-0.0374	-0.0602	-0.0691	-0.1293	64.5116	99.8328	
    69	-0.1631	-0.1981	-0.3611	-0.2725	-0.1402	-0.4128	-0.2590	-0.1894	-0.4484	64.0502	99.8370	
    70	-0.2023	-0.2215	-0.4239	-0.3171	-0.1303	-0.4474	-0.2795	-0.1473	-0.4268	63.8029	99.8417	
    71	-0.1639	-0.0838	-0.2477	-0.2132	-0.0059	-0.2191	-0.1883	-0.0268	-0.2151	63.9128	99.8370	
    72	 0.0105	 0.1784	 0.1889	 0.0519	 0.2282	 0.2802	 0.1485	 0.2425	 0.3909	64.1914	99.8484	
    73	 0.4343	 0.4321	 0.8663	 0.5042	 0.4649	 0.9691	 0.6016	 0.4622	 1.0638	64.4545	99.8468	
    74	 0.7752	 0.5644	 1.3396	 0.8258	 0.5610	 1.3867	 0.8870	 0.5042	 1.3912	64.7999	99.8400	
    75	 0.9853	 0.6615	 1.6468	 1.0218	 0.7164	 1.7383	 1.1606	 0.6480	 1.8086	64.8119	99.8415	
    76	 1.4327	 0.9293	 2.3619	 1.5431	 1.0317	 2.5749	 1.6945	 1.0038	 2.6982	64.6883	99.8409	
    77	 1.8495	 1.3222	 3.1717	 1.9820	 1.3710	 3.3530	 2.1751	 1.3164	 3.4915	65.0859	99.8466	
    78	 2.0779	 1.4733	 3.5513	 2.0294	 1.6334	 3.6629	 2.2464	 1.4903	 3.7367	64.5533	99.8350	
    79	 1.8870	 1.4451	 3.3321	 1.8528	 1.3666	 3.2194	 1.9213	 1.2282	 3.1495	65.1111	99.8447	
    80	 1.6167	 1.3550	 2.9717	 1.6121	 1.2211	 2.8333	 1.5067	 1.0972	 2.6039	64.7993	99.8316	
    81	 1.4475	 1.3111	 2.7587	 1.4955	 1.2121	 2.7076	 1.3593	 1.0952	 2.4545	64.6014	99.8211	
    82	 1.3298	 1.1116	 2.4414	 1.3285	 1.0003	 2.3288	 1.1478	 0.7274	 1.8751	65.2301	99.7906	
    83	 0.9113	 0.8180	 1.7292	 0.9683	 0.7948	 1.7631	 0.8384	 0.5511	 1.3895	65.0317	99.7854	
    84	 0.8842	 0.8735	 1.7578	 0.9490	 0.9061	 1.8551	 0.8963	 0.6842	 1.5804	64.8417	99.7921	
    85	 0.6950	 0.7459	 1.4409	 0.7218	 0.6580	 1.3797	 0.5572	 0.4789	 1.0361	64.7715	99.8033	
    86	 0.1230	 0.2888	 0.4117	 0.0958	 0.2055	 0.3013	 0.0117	 0.0071	 0.0188	65.0098	99.8106	
    87	-0.1875	 0.0312	-0.1562	-0.1700	-0.1520	-0.3221	-0.2408	-0.3855	-0.6263	65.8708	99.8128	
    88	-0.3793	-0.2701	-0.6494	-0.2925	-0.3738	-0.6663	-0.3285	-0.5475	-0.8760	65.7201	99.8123	
    89	-0.2886	-0.2732	-0.5619	-0.1789	-0.3050	-0.4839	-0.1993	-0.4584	-0.6577	65.4705	99.8079	
    90	-0.2747	-0.2936	-0.5683	-0.1863	-0.3218	-0.5081	-0.1876	-0.4513	-0.6389	65.3698	99.8159	
    91	-0.3584	-0.3006	-0.6590	-0.2264	-0.3461	-0.5725	-0.1923	-0.4324	-0.6246	65.4239	99.8266	
    92	-0.3619	-0.2310	-0.5929	-0.1997	-0.2192	-0.4189	-0.0888	-0.2935	-0.3823	65.3312	99.8289	
    93	-0.1674	-0.1433	-0.3107	 0.0157	-0.1751	-0.1594	 0.0744	-0.3146	-0.2402	65.7809	99.8150	
    94	-0.4474	-0.3969	-0.8443	-0.4247	-0.5398	-0.9644	-0.5530	-0.7270	-1.2800	65.6094	99.8076	
    95	-1.0254	-0.5708	-1.5962	-0.9751	-0.5774	-1.5525	-1.0560	-0.7044	-1.7604	64.6836	99.8045	
    96	-0.9688	-0.5082	-1.4769	-0.8131	-0.5656	-1.3787	-0.8753	-0.7149	-1.5902	65.3581	99.8008	
    97	-0.7333	-0.4964	-1.2297	-0.5197	-0.6219	-1.1416	-0.5717	-0.7601	-1.3318	65.9751	99.8086	
    98	-0.4352	-0.4470	-0.8821	-0.2167	-0.5124	-0.7291	-0.1290	-0.6338	-0.7629	66.1820	99.8218	
    99	-0.2111	-0.3702	-0.5813	-0.0763	-0.4275	-0.5039	-0.0718	-0.5120	-0.5838	65.5751	99.8248	
   100	-0.0995	-0.2747	-0.3742	 0.0298	-0.2649	-0.2351	 0.0253	-0.3879	-0.3626	65.3754	99.8095	
   101	-0.1108	-0.2098	-0.3205	 0.0387	-0.2226	-0.1839	 0.0381	-0.3583	-0.3202	65.5269	99.8089	
   102	-0.1334	-0.2090	-0.3424	 0.0209	-0.1965	-0.1756	 0.0404	-0.3133	-0.2729	65.3781	99.8115	
   103	-0.1439	-0.1292	-0.2731	 0.0194	-0.1113	-0.0919	 0.0059	-0.2143	-0.2084	65.1269	99.8090	
   104	-0.1639	 0.3035	 0.1397	 0.1053	 0.4820	 0.5873	 0.2712	 0.5347	 0.8058	64.0349	99.8327	
   105	 0.6610	 0.9408	 1.6018	 1.0165	 1.0700	 2.0865	 1.1295	 1.0324	 2.1619	64.6418	99.8132	
   106	 0.9592	 0.9902	 1.9494	 1.1502	 1.1508	 2.3010	 1.2482	 1.1369	 2.3851	64.0560	99.8248	
   107	 1.2138	 1.0708	 2.2847	 1.4153	 1.1636	 2.5789	 1.4155	 1.0856	 2.5010	64.4835	99.8096	
   108	 1.0534	 1.0465	 2.0999	 1.3307	 1.1493	 2.4799	 1.3517	 1.0579	 2.4096	64.6820	99.8024	
   109	 1.0421	 0.9824	 2.0244	 1.1970	 1.0684	 2.2654	 1.2097	 0.9392	 2.1489	64.6189	99.8052	
   110	 0.9095	 0.9174	 1.8269	 0.9846	 0.9646	 1.9491	 0.9735	 0.7527	 1.7261	64.8476	99.7968	
   111	 0.8014	 0.8813	 1.6827	 0.7930	 0.8856	 1.6785	 0.6893	 0.6243	 1.3135	64.7276	99.7869	
   112	 0.6323	 0.8375	 1.4697	 0.5873	 0.7858	 1.3730	 0.4203	 0.5704	 0.9907	64.4121	99.7973	
   113	 0.3628	 0.6331	 0.9960	 0.3296	 0.5684	 0.8980	 0.1297	 0.4272	 0.5569	64.1000	99.8070	
   114	 0.0210	 0.4859	 0.5069	-0.0128	 0.4474	 0.4346	-0.2457	 0.2872	 0.0415	63.8803	99.7948	
   115	-0.2476	 0.2965	 0.0489	-0.2303	 0.1436	-0.0867	-0.3684	-0.1140	-0.4824	65.3051	99.7965	
   116	-0.2886	-0.0150	-0.3036	-0.3408	-0.2062	-0.5470	-0.3747	-0.4556	-0.8303	65.8687	99.8200	
   117	-0.4700	-0.2670	-0.7370	-0.3950	-0.3619	-0.7570	-0.3841	-0.5266	-0.9107	65.6700	99.8193	
   118	-0.2930	-0.2184	-0.5114	-0.1863	-0.2111	-0.3975	-0.1783	-0.3803	-0.5585	65.3714	99.8039	
   119	-0.1849	-0.1824	-0.3673	-0.0541	-0.1558	-0.2099	-0.0923	-0.3610	-0.4532	65.4220	99.7871	
   120	-0.2259	-0.2356	-0.4615	-0.1485	-0.2251	-0.3736	-0.1794	-0.4028	-0.5822	65.2672	99.7995	
   121	-0.3148	-0.2028	-0.5176	-0.1856	-0.1984	-0.3840	-0.1005	-0.3005	-0.4010	65.3279	99.8243	
   122	-0.1700	 0.0703	-0.0997	 0.0676	 0.0532	 0.1208	 0.1714	-0.0815	 0.0899	65.7352	99.8160	
   123	 0.1230	 0.4179	 0.5409	 0.2613	 0.5025	 0.7638	 0.3484	 0.4942	 0.8426	64.2082	99.8338	
   124	 0.5067	 0.8914	 1.3981	 0.7491	 1.0190	 1.7681	 0.8816	 0.9477	 1.8293	64.4828	99.8173	
   125	 1.0342	 1.1068	 2.1410	 1.2757	 1.2021	 2.4778	 1.3347	 1.1675	 2.5022	64.3943	99.8208	
   126	 1.1493	 1.1326	 2.2820	 1.3923	 1.2112	 2.6034	 1.4523	 1.1405	 2.5928	64.6851	99.8166	
   127	 1.1694	 1.0873	 2.2566	 1.3893	 1.1602	 2.5495	 1.4137	 1.0518	 2.4655	64.7755	99.8078	
   128	 1.0421	 0.9824	 2.0244	 1.2029	 1.0597	 2.2626	 1.2477	 0.9077	 2.1554	64.8649	99.8054	
   129	 0.8616	 0.8743	 1.7359	 0.9467	 0.8679	 1.8146	 0.9215	 0.6231	 1.5446	65.2394	99.7942	
   130	 0.5442	 0.7561	 1.3002	 0.5999	 0.6704	 1.2703	 0.4501	 0.4904	 0.9406	64.7721	99.8021	
   131	 0.3846	 0.7466	 1.1312	 0.4788	 0.6956	 1.1744	 0.3969	 0.5563	 0.9532	64.6307	99.8107	
   132	 0.2966	 0.6652	 0.9618	 0.4187	 0.6592	 1.0779	 0.3057	 0.5447	 0.8503	64.3312	99.8036	
   133	 0.0611	 0.5243	 0.5854	 0.0800	 0.4913	 0.5713	-0.1428	 0.3059	 0.1631	64.1427	99.7864	
   134	-0.3662	 0.2111	-0.1550	-0.3759	 0.0802	-0.2957	-0.4637	-0.2043	-0.6680	65.4066	99.7964	
   135	-0.4569	-0.1731	-0.6300	-0.3735	-0.3243	-0.6978	-0.3133	-0.4729	-0.7862	65.9259	99.8340	
   136	-0.5162	-0.2803	-0.7965	-0.3103	-0.3476	-0.6580	-0.2338	-0.4684	-0.7022	65.8794	99.8220	
   137	-0.2616	-0.1996	-0.4613	-0.0854	-0.1377	-0.2231	-0.0099	-0.3002	-0.3100	65.4808	99.8017	
   138	-0.0654	-0.0822	-0.1476	 0.1857	-0.0230	 0.1627	 0.3007	-0.2103	 0.0903	65.9354	99.7970	
   139	 0.0427	-0.0462	-0.0035	 0.2778	 0.0081	 0.2859	 0.4439	-0.1781	 0.2658	66.0856	99.8056	
   140	 0.0497	-0.0563	-0.0067	 0.2645	 0.0000	 0.2645	 0.4153	-0.1845	 0.2307	65.9858	99.8054	
   141	 0.0035	-0.0697	-0.0662	 0.2184	-0.0155	 0.2029	 0.3527	-0.1897	 0.1630	65.8858	99.8055	
   142	-0.0427	-0.0830	-0.1257	 0.1783	-0.0398	 0.1385	 0.2779	-0.2132	 0.0646	65.8349	99.8021	
   143	-0.0776	-0.1612	-0.2389	 0.0773	-0.1132	-0.0359	 0.1270	-0.2827	-0.1557	65.5306	99.8010	
   144	-0.2259	-0.2356	-0.4615	-0.1485	-0.2251	-0.3736	-0.0981	-0.3645	-0.4626	65.3233	99.8166	
   145	-0.3654	-0.1613	-0.5267	-0.2258	-0.1119	-0.3377	-0.0391	-0.2089	-0.2480	65.3348	99.8308	
   146	-0.2563	 0.2769	 0.0206	-0.0454	 0.3293	 0.2839	 0.0894	 0.3048	 0.3941	64.6502	99.8336	
   147	 0.2957	 0.7794	 1.0752	 0.5233	 0.9070	 1.4303	 0.7296	 0.8557	 1.5852	64.5314	99.8295	
   148	 0.7761	 0.9666	 1.7428	 0.9637	 1.0504	 2.0141	 1.0974	 0.9584	 2.0558	64.7250	99.8234	
   149	 0.7386	 0.8438	 1.5824	 0.8628	 0.8663	 1.7291	 0.9080	 0.6912	 1.5992	65.0492	99.8093	
   150	 0.4614	 0.7639	 1.2252	 0.6326	 0.7886	 1.4211	 0.6331	 0.6339	 1.2670	64.8470	99.8031	
   151	 0.3218	 0.7090	 1.0309	 0.3749	 0.6819	 1.0568	 0.2899	 0.5678	 0.8577	64.2771	99.8151	
   152	 0.2033	 0.8819	 1.0852	 0.3948	 1.0261	 1.4209	 0.5710	 0.9668	 1.5378	64.1352	99.8255	
   153	 0.8223	 0.9799	 1.8023	 0.8717	 0.9086	 1.7803	 0.7449	 0.6034	 1.3482	65.2781	99.7803	
   154	 0.0262	 0.4460	 0.4722	 0.0236	 0.4080	 0.4316	 0.1122	 0.3077	 0.4198	64.6781	99.8412	
   155	-0.0139	 0.4077	 0.3938	 0.0400	 0.3563	 0.3963	 0.0847	 0.3237	 0.4084	64.4806	99.8455	
   156	 0.1597	 0.6550	 0.8147	 0.2887	 0.6421	 0.9308	 0.3864	 0.5717	 0.9581	64.6978	99.8362	
   157	 0.3585	 0.9461	 1.3047	 0.6302	 1.0824	 1.7126	 0.8874	 1.0602	 1.9476	64.4969	99.8365	
   158	 1.1798	 1.1366	 2.3164	 1.2200	 1.1315	 2.3515	 1.3237	 1.0627	 2.3864	64.6202	99.8452	
   159	 0.9767	 1.0293	 2.0060	 1.1175	 1.0327	 2.1502	 1.3752	 0.9631	 2.3382	65.2661	99.8528	
   160	 0.8267	 0.7961	 1.6227	 0.7931	 0.6642	 1.4573	 0.9940	 0.4927	 1.4867	65.8373	99.8553	
   161	 0.2678	 0.5619	 0.8297	 0.1187	 0.3793	 0.4981	 0.2069	 0.2778	 0.4848	64.9679	99.8667	
   162	-0.1630	 0.4475	 0.2846	-0.4175	 0.2518	-0.1657	-0.3194	 0.0683	-0.2510	64.9480	99.8617	
   163	-0.5510	 0.1579	-0.3931	-0.7606	 0.0074	-0.7532	-0.7913	-0.0756	-0.8669	64.0622	99.8561	
   164	-0.5702	 0.2181	-0.3521	-0.6752	 0.0345	-0.6407	-0.5684	-0.1478	-0.7162	65.3081	99.8505	
   165	-0.4421	-0.1786	-0.6207	-0.4760	-0.4232	-0.8991	-0.2221	-0.4613	-0.6834	66.0797	99.8887	
   166	-0.2764	-0.1942	-0.4706	-0.1826	-0.2581	-0.4407	 0.1323	-0.2904	-0.1582	65.8855	99.8700	
   167	-0.0262	-0.0587	-0.0849	 0.0959	-0.1265	-0.0307	 0.3556	-0.2424	 0.1132	66.2339	99.8504	
   168	 0.0104	-0.0798	-0.0694	 0.1219	-0.1231	-0.0012	 0.4077	-0.2218	 0.1859	66.1349	99.8540	
   169	-0.0070	-0.1190	-0.1260	 0.0617	-0.1595	-0.0978	 0.2978	-0.2666	 0.0312	65.9341	99.8499	
   170	-0.1483	-0.2035	-0.3518	-0.1521	-0.2889	-0.4410	 0.0498	-0.3512	-0.3014	65.6291	99.8629	
   171	-0.2991	-0.1934	-0.4925	-0.2606	-0.2683	-0.5289	 0.1007	-0.2442	-0.1435	65.6372	99.8871	
   172	-0.0950	 0.0579	-0.0372	-0.0416	-0.0497	-0.0913	 0.2176	-0.0644	 0.1531	65.5859	99.8750	
   173	 0.0402	 0.6839	 0.7241	 0.2708	 0.7789	 1.0497	 0.7524	 0.8586	 1.6110	64.7939	99.8802	
   174	 0.9078	 1.0167	 1.9246	 0.8977	 1.0227	 1.9204	 1.1219	 0.9951	 2.1170	64.5238	99.8654	
   175	 0.8790	 1.0426	 1.9216	 0.9645	 1.0631	 2.0276	 1.3927	 1.0826	 2.4753	65.0334	99.8839	
   176	 0.9104	 1.0614	 1.9718	 1.0039	 1.0746	 2.0785	 1.3927	 1.0826	 2.4753	65.0315	99.8791	
   177	 0.8851	 1.0175	 1.9027	 0.9296	 1.0174	 1.9470	 1.3138	 0.9804	 2.2942	65.1704	99.8761	
   178	 0.7299	 0.9533	 1.6832	 0.6882	 0.8591	 1.5474	 0.9565	 0.7533	 1.7098	65.2982	99.8690	
   179	 0.3951	 0.9250	 1.3202	 0.3503	 0.8147	 1.1650	 0.6214	 0.7357	 1.3572	65.0467	99.8747	
   180	 0.3105	 0.9031	 1.2136	 0.2552	 0.7326	 0.9878	 0.4647	 0.6627	 1.1274	65.0385	99.8767	
   181	 0.1379	 0.7997	 0.9376	 0.1312	 0.7068	 0.8380	 0.3021	 0.6951	 0.9972	64.4448	99.8708	
   182	 0.0289	 0.6197	 0.6486	-0.1554	 0.4350	 0.2796	-0.1381	 0.2870	 0.1488	64.6489	99.8542	
   183	-0.3365	 0.2002	-0.1363	-0.5066	-0.0603	-0.5669	-0.2584	-0.1782	-0.4366	65.7726	99.8867	
   184	-0.4002	-0.1105	-0.5107	-0.4656	-0.3554	-0.8210	-0.1724	-0.3767	-0.5492	65.9793	99.8965	
   185	-0.5258	-0.1857	-0.7114	-0.4507	-0.3218	-0.7726	-0.1011	-0.3118	-0.4129	65.8840	99.8874	
   186	-0.2127	-0.0126	-0.2254	-0.0601	-0.0364	-0.0965	 0.3702	-0.0701	 0.3001	66.0386	99.8734	
   187	 0.0297	 0.1181	 0.1478	 0.1775	 0.0582	 0.2357	 0.5754	 0.0650	 0.6404	65.9411	99.8809	
   188	-0.0017	 0.0994	 0.0976	 0.1040	 0.0137	 0.1177	 0.5064	 0.0450	 0.5514	65.8418	99.8896	
   189	-0.0950	 0.0579	-0.0372	-0.0022	-0.0382	-0.0404	 0.4240	-0.0158	 0.4082	65.9395	99.8919	
   190	-0.2058	-0.0228	-0.2286	-0.1871	-0.1132	-0.3003	 0.2205	-0.1172	 0.1034	65.7877	99.8900	
   191	-0.3619	-0.1019	-0.4637	-0.3876	-0.2345	-0.6221	-0.0789	-0.2112	-0.2901	65.4314	99.8915	
   192	-0.5981	-0.1286	-0.7267	-0.6104	-0.2954	-0.9059	-0.2613	-0.2344	-0.4958	65.4310	99.9021	
   193	-0.5876	 0.0499	-0.5378	-0.5385	-0.0551	-0.5935	 0.0076	 0.0373	 0.0449	65.5450	99.9132	
   194	-0.1438	 0.3873	 0.2435	-0.1390	 0.2727	 0.1337	 0.3174	 0.3338	 0.6513	65.2990	99.9063	
   195	 0.1196	 0.7457	 0.8653	 0.0428	 0.7394	 0.7822	 0.5032	 0.8604	 1.3636	64.1344	99.9098	
   196	 0.5478	 1.2029	 1.7506	 0.5299	 1.2431	 1.7730	 0.9639	 1.3353	 2.2993	63.9646	99.8980	
   197	 0.9602	 1.5215	 2.4817	 1.0074	 1.4705	 2.4779	 1.4832	 1.5188	 3.0020	64.7985	99.9010	
   198	 0.8233	 1.5113	 2.3346	 0.8247	 1.4338	 2.2585	 1.2557	 1.5010	 2.7567	64.4997	99.9044	
   199	 0.6952	 1.5206	 2.2158	 0.7734	 1.4397	 2.2131	 1.2376	 1.4792	 2.7167	64.8414	99.8996	
   200	 0.6393	 1.4729	 2.1122	 0.7007	 1.4079	 2.1086	 1.1557	 1.4296	 2.5853	64.7898	99.8958	
   201	 0.5670	 1.4008	 1.9678	 0.5878	 1.3520	 1.9397	 1.0271	 1.3518	 2.3788	64.6864	99.8921	
   202	 0.4571	 1.3351	 1.7922	 0.4288	 1.2804	 1.7093	 0.8148	 1.2996	 2.1144	64.3352	99.8933	
   203	 0.3220	 1.3546	 1.6766	 0.2959	 1.3230	 1.6189	 0.6984	 1.3490	 2.0474	64.1411	99.8932	
   204	 0.2130	 1.4328	 1.6458	 0.1904	 1.3946	 1.5849	 0.5598	 1.4068	 1.9666	63.9888	99.8890	
   205	 0.1119	 1.5157	 1.6276	 0.1168	 1.4608	 1.5776	 0.4621	 1.4893	 1.9514	63.8413	99.8892	
   206	 0.1232	 1.5799	 1.7031	 0.0633	 1.5391	 1.6024	 0.4088	 1.5552	 1.9640	63.5908	99.8898	
   207	 0.0448	 1.6620	 1.7068	-0.0110	 1.5926	 1.5816	 0.3205	 1.5998	 1.9203	63.5855	99.8898	
   208	-0.0738	 1.7058	 1.6320	-0.1447	 1.6225	 1.4777	 0.1573	 1.6209	 1.7783	63.4272	99.8881	
   209	-0.1941	 1.7199	 1.5257	-0.2725	 1.6436	 1.3711	 0.0456	 1.6514	 1.6970	63.2784	99.8904	
   210	-0.2403	 1.7065	 1.4662	-0.2926	 1.6315	 1.3389	-0.0111	 1.6498	 1.6387	63.1775	99.8871	
   211	-0.3188	 1.6596	 1.3408	-0.3691	 1.6467	 1.2776	-0.0480	 1.7037	 1.6558	62.8462	99.8899	
   212	-0.3197	 1.6447	 1.3250	-0.4211	 1.6399	 1.2188	-0.1620	 1.6892	 1.5272	62.5313	99.8856	
   213	-0.4348	 1.6188	 1.1841	-0.5310	 1.6349	 1.1039	-0.3088	 1.6985	 1.3897	62.2274	99.8820	
   214	-0.4827	 1.5758	 1.0931	-0.6691	 1.5882	 0.9191	-0.4936	 1.6302	 1.1366	61.9445	99.8801	
   215	-0.5481	 1.4936	 0.9455	-0.7790	 1.4726	 0.6935	-0.6602	 1.4749	 0.8147	62.0066	99.8747	
   216	-0.6990	 1.3746	 0.6756	-0.8993	 1.2891	 0.3898	-0.8180	 1.2704	 0.4524	62.3849	99.8721	
   217	-0.8289	 1.2251	 0.3962	-1.0344	 1.0721	 0.0377	-0.9186	 1.0788	 0.1602	62.7286	99.8855	
   218	-0.9240	 1.0248	 0.1008	-1.1554	 0.8759	-0.2795	-0.9741	 0.8817	-0.0923	62.9794	99.8919	
   219	-1.0723	 0.8213	-0.2510	-1.2578	 0.6663	-0.5915	-0.9857	 0.6567	-0.3289	63.5952	99.8950	
   220	-1.2894	 0.6052	-0.6842	-1.3298	 0.4259	-0.9038	-0.9926	 0.4128	-0.5798	64.4152	99.8936	
   221	-1.3827	 0.4346	-0.9481	-1.3557	 0.3118	-1.0439	-0.9856	 0.3299	-0.6557	64.4252	99.8915	
   222	-1.3766	 0.4096	-0.9671	-1.3030	 0.3314	-0.9716	-0.8844	 0.3148	-0.5696	64.6841	99.8838	
   223	-1.2284	 0.4839	-0.7444	-1.0913	 0.4225	-0.6688	-0.6908	 0.4429	-0.2480	64.5952	99.8826	
   224	-0.9433	 0.5685	-0.3747	-0.8515	 0.5553	-0.2962	-0.4546	 0.6294	 0.1748	64.1103	99.8886	
   225	-0.8264	 0.6241	-0.2023	-0.7705	 0.6166	-0.1540	-0.3775	 0.6979	 0.3204	63.9631	99.8910	
   226	-0.8404	 0.6445	-0.1959	-0.7831	 0.6212	-0.1619	-0.4102	 0.7217	 0.3114	63.8625	99.8933	
   227	-0.8325	 0.6492	-0.1833	-0.8025	 0.6218	-0.1806	-0.4342	 0.6963	 0.2621	63.9062	99.8912	
   228	-0.8177	 0.6437	-0.1740	-0.8478	 0.6190	-0.2287	-0.5085	 0.6840	 0.1755	63.6968	99.8906	
   229	-0.8473	 0.6547	-0.1927	-0.8871	 0.6075	-0.2796	-0.5658	 0.6711	 0.1053	63.6906	99.8914	
   230	-0.8465	 0.6695	-0.1769	-0.8864	 0.6203	-0.2661	-0.5599	 0.6747	 0.1147	63.7404	99.8908	
   231	-0.8081	 0.6781	-0.1300	-0.8537	 0.6277	-0.2260	-0.5424	 0.6853	 0.1429	63.6895	99.8904	
   232	-0.8064	 0.7079	-0.0985	-0.8589	 0.6492	-0.2097	-0.5529	 0.7007	 0.1478	63.6874	99.8903	
   233	-0.7976	 0.7274	-0.0702	-0.8708	 0.6666	-0.2042	-0.5634	 0.7161	 0.1527	63.6354	99.8916	
   234	-0.7889	 0.7470	-0.0419	-0.8760	 0.6881	-0.1880	-0.5792	 0.7392	 0.1600	63.5333	99.8915	
   235	-0.8029	 0.7674	-0.0355	-0.8879	 0.7055	-0.1824	-0.6062	 0.7666	 0.1604	63.4323	99.8918	
   236	-0.8159	 0.8026	-0.0134	-0.8931	 0.7269	-0.1662	-0.6331	 0.7939	 0.1608	63.3800	99.8916	
   237	-0.8142	 0.8323	 0.0181	-0.8976	 0.7611	-0.1365	-0.6038	 0.8116	 0.2077	63.4834	99.8922	
   238	-0.7819	 0.8660	 0.0840	-0.8508	 0.7894	-0.0614	-0.5571	 0.8399	 0.2828	63.5367	99.8919	
   239	-0.7427	 0.8894	 0.1468	-0.8107	 0.8137	 0.0030	-0.5272	 0.8688	 0.3416	63.4879	99.8917	
   240	-0.7479	 0.9293	 0.1814	-0.8092	 0.8392	 0.0300	-0.5313	 0.8990	 0.3677	63.4879	99.8929	
   241	-0.7462	 0.9591	 0.2129	-0.8011	 0.8687	 0.0677	-0.5354	 0.9292	 0.3938	63.4380	99.8916	
   242	-0.7514	 0.9990	 0.2476	-0.7989	 0.9070	 0.1081	-0.5337	 0.9630	 0.4293	63.4392	99.8907	
   243	-0.7488	 1.0436	 0.2948	-0.8033	 0.9412	 0.1378	-0.5378	 0.9932	 0.4554	63.4380	99.8916	
   244	-0.7540	 1.0835	 0.3295	-0.8011	 0.9794	 0.1783	-0.5413	 1.0346	 0.4933	63.3893	99.8913	
   245	-0.7357	 1.1375	 0.4018	-0.7662	 1.0251	 0.2589	-0.4659	 1.0694	 0.6035	63.5963	99.8932	
   246	-0.6807	 1.1704	 0.4897	-0.7373	 1.0795	 0.3423	-0.4074	 1.1048	 0.6973	63.5996	99.8926	
   247	-0.6633	 1.2095	 0.5462	-0.7165	 1.1044	 0.3879	-0.4110	 1.1462	 0.7353	63.4991	99.8941	
   248	-0.6389	 1.2385	 0.5996	-0.7262	 1.1601	 0.4339	-0.4145	 1.1877	 0.7732	63.3489	99.8921	
   249	-0.6293	 1.2729	 0.6436	-0.7485	 1.2204	 0.4719	-0.4233	 1.2369	 0.8136	63.1998	99.8912	
   250	-0.6197	 1.3073	 0.6877	-0.7396	 1.2627	 0.5231	-0.4268	 1.2783	 0.8515	63.1005	99.8894	
   251	-0.6249	 1.3472	 0.7224	-0.7559	 1.3143	 0.5584	-0.4520	 1.3394	 0.8874	62.9018	99.8895	
   252	-0.6005	 1.3762	 0.7757	-0.7530	 1.3653	 0.6123	-0.4426	 1.4104	 0.9678	62.6577	99.8921	
   253	-0.5455	 1.4091	 0.8636	-0.6988	 1.4104	 0.7116	-0.3836	 1.4570	 1.0735	62.6140	99.8918	
   254	-0.5211	 1.4381	 0.9169	-0.6906	 1.4399	 0.7493	-0.3766	 1.4831	 1.1065	62.5630	99.8921	
   255	-0.5133	 1.4428	 0.9295	-0.6958	 1.4614	 0.7655	-0.3924	 1.5062	 1.1139	62.4128	99.8906	
   256	-0.5194	 1.4678	 0.9484	-0.7010	 1.4828	 0.7818	-0.4134	 1.5371	 1.1236	62.3121	99.8909	
   257	-0.5255	 1.4928	 0.9674	-0.7189	 1.5089	 0.7901	-0.4181	 1.5560	 1.1379	62.3121	99.8916	
   258	-0.5316	 1.5179	 0.9863	-0.7300	 1.5391	 0.8091	-0.4392	 1.5869	 1.1477	62.2113	99.8907	
   259	-0.5455	 1.5382	 0.9927	-0.7538	 1.5739	 0.8201	-0.4544	 1.6212	 1.1668	62.1138	99.8905	
   260	-0.5211	 1.5672	 1.0461	-0.7197	 1.6069	 0.8872	-0.4129	 1.6573	 1.2444	62.1204	99.8908	
   261	-0.4819	 1.5907	 1.1088	-0.6929	 1.6231	 0.9301	-0.3725	 1.6708	 1.2982	62.1715	99.8930	
   262	-0.4740	 1.5954	 1.1213	-0.6862	 1.6271	 0.9409	-0.4000	 1.6868	 1.2868	62.0181	99.8919	
   263	-0.4888	 1.6008	 1.1120	-0.7174	 1.6451	 0.9277	-0.4111	 1.6910	 1.2799	62.0181	99.8914	
   264	-0.4880	 1.6157	 1.1277	-0.7167	 1.6579	 0.9412	-0.4217	 1.7064	 1.2848	61.9668	99.8911	
   265	-0.4949	 1.6259	 1.1309	-0.7353	 1.6712	 0.9360	-0.4375	 1.7296	 1.2921	61.8678	99.8930	
   266	-0.5089	 1.6462	 1.1373	-0.7472	 1.6887	 0.9415	-0.4480	 1.7450	 1.2970	61.8678	99.8930	
   267	-0.5150	 1.6712	 1.1563	-0.7457	 1.7142	 0.9685	-0.4352	 1.7746	 1.3394	61.8730	99.8941	
   268	-0.4757	 1.6947	 1.2190	-0.6922	 1.7465	 1.0543	-0.3773	 1.7987	 1.4214	61.9294	99.8918	
   269	-0.4452	 1.6987	 1.2534	-0.6603	 1.7412	 1.0809	-0.3603	 1.7981	 1.4378	61.9276	99.8920	
   270	-0.4452	 1.6987	 1.2534	-0.6796	 1.7418	 1.0622	-0.3884	 1.8029	 1.4145	61.8235	99.8929	
   271	-0.4600	 1.7041	 1.2441	-0.7049	 1.7512	 1.0463	-0.4106	 1.8112	 1.4006	61.7723	99.8932	
   272	-0.4600	 1.7041	 1.2441	-0.7049	 1.7512	 1.0463	-0.4164	 1.8077	 1.3912	61.7705	99.8922	
   273	-0.4749	 1.7096	 1.2347	-0.7234	 1.7645	 1.0411	-0.4270	 1.8231	 1.3961	61.7228	99.8926	
   274	-0.4888	 1.7299	 1.2411	-0.7420	 1.7779	 1.0359	-0.4486	 1.8427	 1.3941	61.6715	99.8941	
   275	-0.4801	 1.7495	 1.2694	-0.7019	 1.8022	 1.1002	-0.3966	 1.8633	 1.4667	61.7812	99.8925	
   276	-0.4182	 1.7722	 1.3540	-0.6373	 1.8043	 1.1671	-0.3393	 1.8762	 1.5369	61.8323	99.8952	
   277	-0.3955	 1.7714	 1.3759	-0.6306	 1.8084	 1.1778	-0.3334	 1.8797	 1.5463	61.7812	99.8955	
   278	-0.3955	 1.7714	 1.3759	-0.6432	 1.8130	 1.1698	-0.3504	 1.8803	 1.5300	61.7282	99.8949	
   279	-0.3955	 1.7714	 1.3759	-0.6492	 1.8217	 1.1726	-0.3668	 1.8922	 1.5255	61.6275	99.8940	
   280	-0.4025	 1.7816	 1.3791	-0.6618	 1.8264	 1.1646	-0.3668	 1.8922	 1.5255	61.6769	99.8952	
   281	-0.4173	 1.7871	 1.3698	-0.6804	 1.8398	 1.1594	-0.3943	 1.9083	 1.5140	61.5762	99.8943	
   282	-0.4243	 1.7973	 1.3730	-0.6863	 1.8485	 1.1622	-0.4048	 1.9237	 1.5189	61.5267	99.8949	
   283	-0.3850	 1.8207	 1.4357	-0.6276	 1.8594	 1.2317	-0.3247	 1.9395	 1.6148	61.6860	99.8975	
   284	-0.3388	 1.8341	 1.4952	-0.5823	 1.8622	 1.2798	-0.2960	 1.9459	 1.6499	61.6842	99.8977	
   285	-0.3388	 1.8341	 1.4952	-0.5890	 1.8581	 1.2691	-0.3077	 1.9389	 1.6312	61.6806	99.8976	
   286	-0.3397	 1.8192	 1.4795	-0.6083	 1.8587	 1.2504	-0.3247	 1.9395	 1.6148	61.5799	99.8974	
   287	-0.3397	 1.8192	 1.4795	-0.6083	 1.8587	 1.2504	-0.3411	 1.9514	 1.6103	61.4791	99.8977	
   288	-0.3467	 1.8294	 1.4827	-0.6269	 1.8721	 1.2452	-0.3522	 1.9556	 1.6034	61.4772	99.8973	
   289	-0.3685	 1.8450	 1.4765	-0.6329	 1.8808	 1.2480	-0.3627	 1.9710	 1.6083	61.4791	99.8977	
   290	-0.3676	 1.8599	 1.4923	-0.6507	 1.9069	 1.2562	-0.3791	 1.9829	 1.6038	61.4259	99.8959	
   291	-0.3911	 1.8458	 1.4546	-0.6707	 1.8948	 1.2241	-0.3744	 1.9639	 1.5895	61.5286	99.8965	
   292	-0.3789	 1.7957	 1.4168	-0.6596	 1.8647	 1.2051	-0.3814	 1.9379	 1.5565	61.4278	99.8938	
   293	-0.4269	 1.7527	 1.3258	-0.6811	 1.8270	 1.1459	-0.3767	 1.9189	 1.5422	61.4886	99.8965	
   294	-0.4051	 1.8661	 1.4610	-0.6046	 1.9225	 1.3178	-0.1843	 2.0244	 1.8401	61.9230	99.9058	
   295	-0.2229	 1.8748	 1.6519	-0.4397	 1.8746	 1.4349	-0.0112	 1.9766	 1.9654	62.2655	99.9122	
   296	-0.1697	 1.8779	 1.7083	-0.3758	 1.8640	 1.4882	 0.0391	 1.9635	 2.0026	62.3634	99.9116	
   297	-0.1383	 1.8967	 1.7584	-0.3684	 1.8808	 1.5124	 0.0063	 1.9873	 1.9936	62.1579	99.9109	
   298	-0.1670	 1.9225	 1.7555	-0.4115	 1.9163	 1.5048	-0.0066	 2.0666	 2.0601	61.9230	99.9183	
   299	-0.0336	 2.1315	 2.0979	-0.2385	 2.1193	 1.8808	 0.0717	 2.2666	 2.3383	61.6801	99.9100	
   300	-0.1051	 2.0744	 1.9692	-0.3284	 2.1265	 1.7981	-0.0897	 2.3215	 2.2318	60.9365	99.9059	
   301	-0.1827	 2.0423	 1.8595	-0.3692	 2.0895	 1.7202	-0.1295	 2.3192	 2.1897	60.8959	99.9088	
   302	-0.3257	 1.9280	 1.6022	-0.5549	 2.0018	 1.4469	-0.2593	 2.2188	 1.9596	60.8875	99.9111	
   303	-0.5158	 1.7855	 1.2697	-0.7733	 1.9066	 1.1334	-0.4680	 2.1252	 1.6572	60.6273	99.9091	
   304	-0.6580	 1.6861	 1.0281	-0.9381	 1.8438	 0.9057	-0.6060	 2.0853	 1.4792	60.3797	99.9118	
   305	-0.7434	 1.6493	 0.9058	-1.0050	 1.8034	 0.7984	-0.6633	 2.0724	 1.4090	60.3352	99.9151	
   306	-0.7591	 1.6399	 0.8808	-1.0562	 1.8093	 0.7531	-0.7090	 2.0666	 1.3576	60.2277	99.9146	
   307	-0.7739	 1.6453	 0.8714	-1.1023	 1.7937	 0.6915	-0.7768	 2.0691	 1.2923	60.0633	99.9183	
   308	-0.8838	 1.5796	 0.6958	-1.2634	 1.6840	 0.4206	-0.9803	 1.9677	 0.9875	59.9175	99.9221	
   309	-1.3668	 1.4769	 0.1101	-1.8212	 1.5188	-0.3023	-1.7241	 1.8227	 0.0986	59.0250	99.9192	
   310	-1.9222	 1.5604	-0.3617	-2.2788	 1.6357	-0.6431	-2.0212	 1.8826	-0.1386	59.4178	99.9161	
   311	-1.6371	 1.7742	 0.1371	-1.9016	 1.9131	 0.0115	-1.5458	 2.0941	 0.5482	60.0117	99.9058	
   312	-1.1619	 1.8721	 0.7103	-1.5792	 1.9113	 0.3321	-1.3610	 2.0533	 0.6923	59.9867	99.9072	
   313	-1.2002	 1.8635	 0.6633	-1.6044	 1.9206	 0.3161	-1.3382	 2.0562	 0.7180	60.1045	99.9077	
   314	-0.9639	 1.8902	 0.9263	-1.3875	 1.8795	 0.4920	-1.1546	 1.9930	 0.8385	60.4915	99.9094	
   315	-0.9831	 1.8213	 0.8382	-1.5390	 1.8248	 0.2858	-1.4335	 1.9659	 0.5324	59.5571	99.9086	
   316	-1.0791	 1.7352	 0.6562	-1.5940	 1.7670	 0.1730	-1.4592	 1.9067	 0.4475	59.6748	99.9060	
   317	-0.9709	 1.7713	 0.8003	-1.4982	 1.7511	 0.2530	-1.3879	 1.8627	 0.4749	59.9610	99.9057	
   318	-0.8018	 1.8151	 1.0133	-1.2791	 1.8590	 0.5800	-1.1376	 1.9924	 0.8548	59.9187	99.9031	
   319	-0.6518	 1.9193	 1.2674	-1.0927	 1.9595	 0.8668	-0.9166	 2.1044	 1.1878	60.1094	99.9060	
   320	-0.5576	 1.9756	 1.4180	-0.9731	 2.0195	 1.0464	-0.7850	 2.2385	 1.4534	59.8973	99.9148	
   321	-0.5132	 1.9592	 1.4460	-0.9620	 1.9893	 1.0274	-0.7681	 2.2378	 1.4698	59.7952	99.9215	
   322	-0.8916	 1.7040	 0.8124	-1.5398	 1.8121	 0.2723	-1.4856	 2.0542	 0.5686	58.3896	99.9133	
   323	-1.7861	 1.8140	 0.0279	-2.3176	 1.9691	-0.3485	-2.0687	 2.1699	 0.1012	58.5317	99.9120	
   324	-1.4722	 2.1310	 0.6588	-1.7695	 2.3005	 0.5310	-1.3559	 2.4814	 1.1255	59.7110	99.9097	
   325	-0.7738	 2.4200	 1.6462	-1.0706	 2.4526	 1.3820	-0.6980	 2.6072	 1.9091	60.5202	99.9157	
   326	-0.5236	 2.4264	 1.9028	-1.0163	 2.3870	 1.3707	-0.7559	 2.4741	 1.7182	60.3763	99.9149	
   327	-0.8253	 2.1884	 1.3631	-1.2220	 2.0658	 0.8438	-1.0558	 2.1509	 1.0951	60.7797	99.9093	
   328	-1.0259	 1.8675	 0.8416	-1.5807	 1.8858	 0.3051	-1.4236	 1.9392	 0.5156	59.9636	99.8997	
   329	-0.7843	 1.8543	 1.0699	-1.3415	 1.8951	 0.5536	-1.2797	 1.9827	 0.7030	59.6079	99.8951	
   330	-0.7006	 1.9904	 1.2898	-1.2182	 2.0189	 0.8006	-1.0569	 2.1284	 1.0715	59.9212	99.9052	
   331	-0.5916	 2.0413	 1.4497	-1.0727	 2.0823	 1.0096	-0.9149	 2.2471	 1.3322	59.7565	99.9093	
   332	-0.5071	 2.0633	 1.5562	-0.9672	 2.1215	 1.1543	-0.7833	 2.3812	 1.5978	59.4550	99.9205	
   333	-0.4870	 2.0179	 1.5309	-0.9702	 2.0705	 1.1003	-0.7681	 2.3468	 1.5787	59.4550	99.9252	
   334	-0.8794	 1.7830	 0.9036	-1.5658	 1.9193	 0.3535	-1.5365	 2.1651	 0.6286	57.9737	99.9115	
   335	-1.8899	 1.8523	-0.0375	-2.4483	 2.0499	-0.3984	-2.2249	 2.3260	 0.1011	57.7279	99.9172	
   336	-1.5872	 2.3634	 0.7762	-1.8469	 2.6351	 0.7882	-1.3367	 2.8527	 1.5159	59.2001	99.9110	
   337	-0.5636	 2.6462	 2.0826	-1.0618	 2.7163	 1.6545	-0.8600	 2.6508	 1.7907	60.1070	99.8805	
   338	-1.0380	 2.1758	 1.1378	-1.5407	 2.1314	 0.5907	-1.4090	 2.2204	 0.8114	59.8294	99.9056	
   339	-1.0110	 1.8620	 0.8510	-1.6438	 1.9091	 0.2653	-1.5499	 2.0153	 0.4654	59.1729	99.9034	
   340	-0.8767	 1.9567	 1.0800	-1.4054	 2.0164	 0.6109	-1.3008	 2.1225	 0.8217	59.4858	99.8979	
   341	-0.7233	 2.1203	 1.3971	-1.1863	 2.1243	 0.9379	-1.0511	 2.2409	 1.1898	59.9314	99.9036	
   342	-0.6474	 2.1227	 1.4753	-1.1410	 2.1271	 0.9860	-1.0277	 2.2550	 1.2273	59.7728	99.9050	
   343	-0.6413	 2.0977	 1.4564	-1.1143	 2.1432	 1.0289	-0.9500	 2.3348	 1.3848	59.5669	99.9124	
   344	-0.5916	 2.0413	 1.4497	-1.0712	 2.1078	 1.0366	-0.8699	 2.3506	 1.4807	59.4442	99.9199	
   345	-0.9457	 1.8151	 0.8694	-1.5896	 1.9542	 0.3646	-1.5149	 2.1455	 0.6306	58.3959	99.9056	
   346	-1.6614	 1.8743	 0.2129	-2.1854	 2.0244	-0.1609	-1.9524	 2.2295	 0.2771	58.5441	99.9116	
   347	-1.4818	 2.2257	 0.7439	-1.7540	 2.4576	 0.7036	-1.3180	 2.6679	 1.3499	59.3575	99.9087	
   348	-0.8897	 2.3793	 1.4895	-1.2978	 2.3152	 1.0173	-1.1412	 2.3607	 1.2195	60.3792	99.8990	
   349	-1.2551	 1.9597	 0.7046	-1.8065	 1.9952	 0.1887	-1.6043	 2.0587	 0.4543	59.7175	99.9028	
   350	-1.1706	 1.7235	 0.5528	-1.6809	 1.7144	 0.0336	-1.5516	 1.7636	 0.2121	60.1979	99.8967	
   351	-1.0076	 1.7924	 0.7848	-1.6282	 1.8447	 0.2165	-1.5247	 1.9543	 0.4295	59.2805	99.9034	
   352	-1.0041	 1.8518	 0.8478	-1.4611	 1.9458	 0.4847	-1.2745	 2.0839	 0.8094	59.6854	99.9016	
   353	-0.7765	 1.9881	 1.2116	-1.2413	 2.0664	 0.8251	-1.0423	 2.1917	 1.1494	59.8566	99.9031	
   354	-0.6274	 2.0773	 1.4500	-1.0296	 2.1575	 1.1279	-0.7745	 2.3320	 1.5575	60.0192	99.9106	
   355	-0.4861	 2.0328	 1.5466	-0.9248	 2.0733	 1.1484	-0.7213	 2.2661	 1.5448	59.9968	99.9143	
   356	-0.9744	 1.7118	 0.7373	-1.5888	 1.8562	 0.2674	-1.5061	 2.0963	 0.5902	58.3644	99.9104	
   357	-1.4958	 1.8587	 0.3629	-2.0041	 2.0356	 0.0315	-1.7412	 2.2591	 0.5179	58.6375	99.9133	
   358	-1.2289	 2.2767	 1.0477	-1.4472	 2.4094	 0.9622	-1.0325	 2.6009	 1.5683	60.0997	99.9107	
   359	-0.5968	 2.4686	 1.8718	-1.0156	 2.5104	 1.4948	-0.7928	 2.6370	 1.8442	59.8603	99.9066	
   360	-0.9264	 2.2713	 1.3449	-1.3855	 2.2499	 0.8644	-1.1143	 2.3334	 1.2191	60.3049	99.9115	
   361	-0.9448	 1.9591	 1.0143	-1.5101	 1.8792	 0.3691	-1.4803	 2.0465	 0.5662	59.4250	99.9139	
   362	-0.9195	 1.8738	 0.9543	-1.4878	 1.9296	 0.4418	-1.3160	 2.0479	 0.7319	59.5896	99.9070	
   363	-0.7695	 1.9779	 1.2084	-1.1803	 2.0049	 0.8245	-0.9435	 2.1317	 1.1882	60.3739	99.9079	
   364	-0.5611	 2.0453	 1.4842	-0.9902	 2.0584	 1.0681	-0.7587	 2.1999	 1.4412	60.3857	99.9117	
   365	-0.4643	 2.0171	 1.5528	-0.8877	 2.0465	 1.1588	-0.6318	 2.2440	 1.6122	60.2648	99.9188	
   366	-0.4836	 1.8191	 1.3356	-0.9508	 1.8485	 0.8977	-0.7423	 2.0791	 1.3368	60.0342	99.9212	
   367	-1.0817	 1.5615	 0.4798	-1.6838	 1.6634	-0.0204	-1.5803	 1.9751	 0.3948	58.4150	99.9232	
   368	-1.6458	 1.7546	 0.1088	-2.0835	 1.8892	-0.1944	-1.7915	 2.1633	 0.3718	58.9058	99.9213	
   369	-1.2743	 2.1491	 0.8748	-1.5028	 2.2281	 0.7253	-1.0950	 2.3778	 1.2827	60.5581	99.9098	
   370	-0.7372	 2.3989	 1.6617	-1.0728	 2.4144	 1.3416	-0.7752	 2.6476	 1.8724	59.9599	99.9229	
   371	-0.7014	 2.2338	 1.5324	-1.1150	 2.1305	 1.0155	-0.7950	 2.1562	 1.3612	61.4196	99.9127	
   372	-0.9274	 1.7400	 0.8126	-1.4476	 1.7325	 0.2848	-1.2697	 1.8471	 0.5773	60.1916	99.9098	
   373	-0.8785	 1.6688	 0.7902	-1.3570	 1.6274	 0.2704	-1.1919	 1.7089	 0.5170	60.6934	99.9053	
   374	-0.7818	 1.6406	 0.8589	-1.2389	 1.6619	 0.4230	-1.0282	 1.8080	 0.7798	60.4389	99.9108	
   375	-0.5472	 1.7667	 1.2195	-0.9403	 1.8056	 0.8652	-0.6902	 1.9907	 1.3005	60.5512	99.9143	
   376	-0.3772	 1.8254	 1.4483	-0.7584	 1.8295	 1.0711	-0.4879	 2.0696	 1.5817	60.6278	99.9247	
   377	-0.4827	 1.5758	 1.0931	-0.9209	 1.5836	 0.6626	-0.6855	 1.8628	 1.1773	60.3429	99.9288	
   378	-1.1899	 1.3964	 0.2065	-1.6592	 1.4200	-0.2392	-1.4855	 1.7274	 0.2419	59.5076	99.9272	
   379	-1.4304	 1.6827	 0.2522	-1.7641	 1.8363	 0.0722	-1.3236	 2.1196	 0.7959	59.8045	99.9263	
   380	-0.7895	 2.1524	 1.3629	-0.9331	 2.1544	 1.2214	-0.5763	 2.3321	 1.7558	61.2283	99.9122	
   381	-0.5480	 2.0101	 1.4620	-0.9731	 1.9088	 0.9357	-0.7048	 2.0364	 1.3315	61.1215	99.9217	
   382	-0.6719	 1.8355	 1.1636	-1.0785	 1.7589	 0.6804	-0.8053	 1.7358	 0.9305	61.8452	99.8997	
   383	-1.0407	 1.4856	 0.4449	-1.4326	 1.3233	-0.1093	-1.2087	 1.3827	 0.1739	61.8545	99.9126	
   384	-1.0303	 1.2767	 0.2464	-1.3924	 1.1262	-0.2663	-1.1730	 1.3062	 0.1331	61.5689	99.9244	
   385	-0.7033	 1.4294	 0.7260	-0.9959	 1.4029	 0.4070	-0.7211	 1.6124	 0.8913	61.3472	99.9191	
   386	-0.3642	 1.5320	 1.1678	-0.7070	 1.4915	 0.7845	-0.4702	 1.7533	 1.2831	61.0590	99.9263	
   387	-0.2805	 1.4100	 1.1295	-0.6467	 1.3065	 0.6598	-0.3983	 1.6116	 1.2134	61.3013	99.9375	
   388	-0.7880	 1.1492	 0.3613	-1.1747	 0.9872	-0.1876	-1.0578	 1.3432	 0.2854	60.7664	99.9390	
   389	-1.2483	 1.1749	-0.0734	-1.5685	 1.0935	-0.4750	-1.3070	 1.4540	 0.1469	60.6580	99.9396	
   390	-0.9562	 1.5076	 0.5514	-1.1148	 1.4663	 0.3516	-0.7065	 1.7847	 1.0782	61.4620	99.9352	
   391	-0.2421	 1.6768	 1.4347	-0.5510	 1.5121	 0.9611	-0.3100	 1.7849	 1.4749	61.6090	99.9358	
   392	-0.4418	 1.4999	 1.0581	-0.8220	 1.2866	 0.4646	-0.5637	 1.5878	 1.0240	61.5754	99.9458	
   393	-0.6581	 1.1696	 0.5116	-1.0617	 0.7111	-0.3507	-1.0694	 1.0093	-0.0602	62.0071	99.9466	
   394	-0.7584	 0.8800	 0.1217	-1.1931	 0.5578	-0.6354	-1.0156	 0.8457	-0.1699	62.1441	99.9487	
   395	-0.6163	 0.8504	 0.2341	-0.9361	 0.5410	-0.3951	-0.7647	 0.8777	 0.1130	62.3327	99.9477	
   396	-0.3207	 0.8552	 0.5345	-0.6271	 0.5311	-0.0961	-0.4237	 0.8988	 0.4750	62.6095	99.9530	
   397	-0.1376	 0.8787	 0.7411	-0.3887	 0.5276	 0.1390	-0.1583	 0.9940	 0.8358	62.6418	99.9625	
   398	-0.1463	 0.7300	 0.5837	-0.4993	 0.3992	-0.1001	-0.2536	 0.9037	 0.6501	62.2787	99.9684	
   399	-0.6538	 0.5984	-0.0554	-1.0452	 0.3274	-0.7179	-0.9243	 0.7484	-0.1759	61.6550	99.9529	
   400	-1.3574	 0.6075	-0.7499	-1.6692	 0.3560	-1.3132	-1.4495	 0.7793	-0.6702	61.5574	99.9539	
   401	-1.0792	 0.9605	-0.1187	-1.2356	 0.8274	-0.4082	-0.8362	 1.2485	 0.4124	61.8782	99.9506	
   402	-0.2526	 1.3693	 1.1167	-0.5167	 1.2129	 0.6962	-0.2169	 1.5034	 1.2865	62.1188	99.9386	
   403	-0.2090	 1.3380	 1.1290	-0.5487	 1.2182	 0.6696	-0.2075	 1.4655	 1.2580	62.1122	99.9372	
   404	-0.2901	 1.2464	 0.9563	-0.6280	 0.9611	 0.3330	-0.3577	 0.9714	 0.6137	63.7524	99.9181	
   405	-0.3059	 0.9788	 0.6729	-0.5878	 0.6533	 0.0655	-0.4126	 0.7856	 0.3730	63.5457	99.9261	
   406	-0.3364	 0.7166	 0.3802	-0.7385	 0.5006	-0.2379	-0.4740	 0.6940	 0.2200	62.9437	99.9358	
   407	-0.2013	 0.8262	 0.6250	-0.4808	 0.6072	 0.1264	-0.1787	 0.8182	 0.6396	63.3300	99.9352	
   408	 0.0028	 0.9484	 0.9512	-0.2060	 0.6750	 0.4690	 0.0722	 0.9591	 1.0313	63.3986	99.9424	
   409	 0.1022	 0.8357	 0.9379	-0.1681	 0.5504	 0.3823	 0.1576	 0.8583	 1.0159	63.4980	99.9508	
   410	-0.3242	 0.5375	 0.2132	-0.6359	 0.2674	-0.3685	-0.4236	 0.5719	 0.1483	63.0023	99.9440	
   411	-0.9503	 0.4496	-0.5007	-1.1744	 0.2123	-0.9621	-0.8792	 0.6340	-0.2452	62.4664	99.9539	
   412	-0.5561	 0.8433	 0.2872	-0.6487	 0.7148	 0.0661	-0.1928	 1.0930	 0.9002	62.9006	99.9473	
   413	 0.0333	 1.0814	 1.1147	-0.2194	 0.7776	 0.5582	 0.0107	 1.0854	 1.0961	63.0404	99.9458	
   414	-0.1480	 1.0876	 0.9396	-0.3761	 0.7444	 0.3682	-0.1144	 0.9661	 0.8517	63.6290	99.9407	
   415	-0.2763	 0.5805	 0.3042	-0.7949	 0.3066	-0.4883	-0.4932	 0.4317	-0.0615	63.4754	99.9399	
   416	-0.2824	 0.4764	 0.1940	-0.5891	 0.0743	-0.5148	-0.3662	 0.2579	-0.1083	64.2979	99.9414	
   417	-0.0156	 0.5070	 0.4914	-0.2712	 0.2173	-0.0539	 0.0104	 0.4204	 0.4308	64.1743	99.9371	
   418	 0.1544	 0.4367	 0.5911	-0.1337	 0.1405	 0.0068	 0.1402	 0.4118	 0.5520	63.9774	99.9455	
   419	 0.2076	 0.4398	 0.6474	-0.0305	 0.1415	 0.1110	 0.2870	 0.5115	 0.7985	63.8479	99.9554	
   420	 0.0428	 0.3412	 0.3839	-0.2377	 0.0162	-0.2215	 0.0835	 0.4102	 0.4937	63.7363	99.9607	
   421	-0.5981	 0.1297	-0.4684	-0.9447	-0.2761	-1.2209	-0.8492	 0.1182	-0.7311	63.0006	99.9556	
   422	-1.1238	 0.0732	-1.0507	-1.4001	-0.2317	-1.6318	-1.1797	 0.1906	-0.9891	62.6676	99.9557	
   423	-0.9294	 0.2900	-0.6394	-1.1023	 0.0099	-1.0924	-0.8089	 0.3496	-0.4594	63.3611	99.9468	
   424	-0.5632	 0.4662	-0.0970	-0.8127	 0.2220	-0.5907	-0.4470	 0.4488	 0.0018	63.7719	99.9409	
   425	-0.4908	 0.2800	-0.2109	-0.7658	 0.0289	-0.7369	-0.4323	 0.1852	-0.2470	64.2109	99.9329	
   426	-0.3932	 0.2667	-0.1265	-0.6016	-0.0317	-0.6334	-0.2919	 0.0523	-0.2396	64.9673	99.9237	
   427	-0.2921	 0.1838	-0.1083	-0.5682	-0.1222	-0.6904	-0.2825	 0.0143	-0.2682	64.6599	99.9318	
   428	-0.1560	 0.3082	 0.1522	-0.3974	 0.0426	-0.3548	-0.1001	 0.1465	 0.0465	64.7191	99.9244	
   429	-0.0008	 0.3724	 0.3716	-0.3142	 0.1421	-0.1722	-0.0258	 0.2677	 0.2419	64.2664	99.9271	
   430	 0.0794	 0.4492	 0.5286	-0.2118	 0.2410	 0.0292	 0.1098	 0.3716	 0.4814	64.2771	99.9273	
   431	 0.2128	 0.5290	 0.7418	-0.0350	 0.2864	 0.2514	 0.2876	 0.4138	 0.7014	64.5835	99.9279	
   432	 0.2730	 0.5220	 0.7950	 0.0029	 0.2724	 0.2753	 0.3034	 0.3907	 0.6941	64.5800	99.9269	
   433	 0.2564	 0.4977	 0.7541	-0.0172	 0.2603	 0.2431	 0.2806	 0.3878	 0.6684	64.4798	99.9270	
   434	 0.2712	 0.4923	 0.7635	-0.0112	 0.2515	 0.2403	 0.2683	 0.3695	 0.6378	64.4769	99.9253	
   435	 0.2233	 0.4492	 0.6725	-0.0907	 0.2158	 0.1251	 0.1976	 0.3158	 0.5133	64.4724	99.9246	
   436	 0.1605	 0.4116	 0.5721	-0.1508	 0.1794	 0.0286	 0.1332	 0.2768	 0.4101	64.4701	99.9237	
   437	 0.1064	 0.3936	 0.5000	-0.1962	 0.1766	-0.0195	 0.1052	 0.2816	 0.3868	64.4221	99.9241	
   438	 0.1378	 0.4124	 0.5502	-0.1115	 0.1909	 0.0794	 0.2362	 0.2955	 0.5317	64.7321	99.9252	
   439	 0.2503	 0.3937	 0.6440	-0.0023	 0.1831	 0.1809	 0.3385	 0.3030	 0.6415	64.6847	99.9259	
   440	 0.1369	 0.2684	 0.4053	-0.1664	 0.0224	-0.1440	 0.1117	 0.0785	 0.1902	64.8680	99.9189	
   441	-0.4708	-0.0237	-0.4945	-0.7464	-0.3038	-1.0502	-0.5544	-0.0957	-0.6501	64.0400	99.9312	
   442	-0.7219	 0.0843	-0.6377	-0.8379	 0.0099	-0.8279	-0.3697	 0.2994	-0.0704	63.7082	99.9357	
   443	-0.1638	 0.6909	 0.5271	-0.2067	 0.6623	 0.4555	 0.3038	 0.9467	 1.2505	63.6098	99.9323	
   444	 0.3167	 1.1363	 1.4530	 0.2269	 1.1337	 1.3605	 0.7417	 1.3098	 2.0515	63.7190	99.9213	
   445	 0.6184	 1.3743	 1.9927	 0.5744	 1.3439	 1.9183	 1.0469	 1.5163	 2.5632	63.8272	99.9185	
   446	 0.9698	 1.5559	 2.5257	 0.8121	 1.4384	 2.2505	 1.2013	 1.5444	 2.7457	64.0004	99.9175	
   447	 0.8748	 1.4847	 2.3594	 0.6442	 1.3246	 1.9688	 0.9972	 1.4318	 2.4290	63.8836	99.9217	
   448	 0.8015	 1.3978	 2.1993	 0.5492	 1.2425	 1.7917	 0.9031	 1.3639	 2.2670	63.7807	99.9240	
   449	 0.8573	 1.3164	 2.1737	 0.5909	 1.0709	 1.6617	 0.9851	 0.9776	 1.9627	65.3428	99.9086	
   450	 0.5494	 0.5870	 1.1364	 0.0081	 0.1402	 0.1484	 0.3016	 0.3570	 0.6586	64.3544	99.9607	
   451	 0.2503	 0.3937	 0.6440	-0.0074	-0.0168	-0.0242	 0.2655	 0.0953	 0.3608	65.4243	99.9359	
   452	-0.1316	 0.0790	-0.0527	-0.3148	-0.3134	-0.6282	-0.0509	-0.1070	-0.1579	65.1715	99.9403	
   453	-0.2293	 0.0922	-0.1371	-0.3691	-0.2478	-0.6169	-0.0193	-0.0443	-0.0636	65.2296	99.9397	
   454	-0.2555	 0.0335	-0.2219	-0.3832	-0.2687	-0.6518	-0.0193	-0.0443	-0.0636	65.0822	99.9395	
   455	-0.3505	-0.0377	-0.3882	-0.4626	-0.3044	-0.7670	-0.0591	-0.0466	-0.1057	64.9366	99.9422	
   456	-0.5380	-0.1356	-0.6736	-0.6305	-0.4182	-1.0487	-0.2947	-0.1129	-0.4077	64.6300	99.9429	
   457	-0.8955	-0.2922	-1.1877	-1.0434	-0.5327	-1.5761	-0.6730	-0.3092	-0.9823	64.6667	99.9355	
   458	-1.2617	-0.4684	-1.7301	-1.4006	-0.6872	-2.0878	-1.0543	-0.5617	-1.6160	64.9057	99.9201	
   459	-1.5311	-0.4145	-1.9456	-1.6191	-0.5610	-2.1801	-1.2110	-0.4169	-1.6279	64.5593	99.9182	
   460	-1.4936	-0.2916	-1.7852	-1.5433	-0.4783	-2.0216	-1.0941	-0.3461	-1.4402	64.9191	99.9213	
   461	-1.3218	-0.2031	-1.5249	-1.4045	-0.4189	-1.8233	-0.9561	-0.3062	-1.2623	65.0700	99.9230	
   462	-1.0724	-0.2117	-1.2841	-1.1675	-0.4478	-1.6153	-0.7204	-0.3488	-1.0692	65.3742	99.9238	
   463	-0.7298	-0.1787	-0.9085	-0.7285	-0.4406	-1.1691	-0.3391	-0.3142	-0.6533	65.6813	99.9208	
   464	-0.4926	-0.1371	-0.6298	-0.5970	-0.3980	-0.9951	-0.2806	-0.2788	-0.5594	65.3246	99.9199	
   465	-0.4142	-0.0901	-0.5043	-0.5480	-0.3315	-0.8795	-0.2274	-0.2357	-0.4631	65.2742	99.9173	
   466	-0.3592	-0.0573	-0.4165	-0.5273	-0.3066	-0.8338	-0.2263	-0.2132	-0.4395	65.1710	99.9180	
   467	-0.3418	-0.0181	-0.3599	-0.4998	-0.2777	-0.7775	-0.1965	-0.1842	-0.3807	65.2224	99.9186	
   468	-0.3156	 0.0406	-0.2751	-0.4961	-0.2139	-0.7100	-0.1830	-0.1434	-0.3264	65.2220	99.9173	
   469	-0.3051	 0.0899	-0.2153	-0.4872	-0.1717	-0.6588	-0.1871	-0.1132	-0.3003	65.2210	99.9155	
   470	-0.3112	 0.1149	-0.1963	-0.5169	-0.1281	-0.6450	-0.1807	-0.0984	-0.2791	65.2720	99.9142	
   471	-0.2799	 0.1337	-0.1462	-0.4575	-0.1045	-0.5620	-0.1234	-0.0855	-0.2089	65.3746	99.9109	
   472	-0.2336	 0.1470	-0.0866	-0.4181	-0.0930	-0.5111	-0.0900	-0.0980	-0.1881	65.4748	99.9079	
   473	-0.2572	 0.1329	-0.1243	-0.4389	-0.1179	-0.5568	-0.1409	-0.0961	-0.2371	65.3221	99.9098	
   474	-0.3034	 0.1196	-0.1838	-0.4917	-0.1374	-0.6291	-0.1924	-0.1055	-0.2979	65.2707	99.9121	
   475	-0.3200	 0.0953	-0.2246	-0.5243	-0.1449	-0.6693	-0.2041	-0.1126	-0.3167	65.2206	99.9130	
   476	-0.3583	 0.0867	-0.2716	-0.5444	-0.1570	-0.7014	-0.2327	-0.1190	-0.3517	65.2206	99.9124	
   477	-0.3653	 0.0969	-0.2684	-0.5622	-0.1309	-0.6932	-0.2368	-0.0888	-0.3256	65.1205	99.9132	
   478	-0.3775	 0.1470	-0.2305	-0.5845	-0.0706	-0.6551	-0.2351	-0.0551	-0.2902	65.1715	99.9113	
   479	-0.3914	 0.1673	-0.2241	-0.6217	-0.0439	-0.6656	-0.2620	-0.0278	-0.2898	65.0700	99.9128	
   480	-0.3679	 0.1814	-0.1865	-0.5875	-0.0109	-0.5984	-0.1983	-0.0001	-0.1983	65.1240	99.9122	
   481	-0.3444	 0.1955	-0.1489	-0.5474	 0.0134	-0.5341	-0.1573	 0.0247	-0.1326	65.1259	99.9107	
   482	-0.3356	 0.2151	-0.1206	-0.5266	 0.0382	-0.4884	-0.1223	 0.0459	-0.0763	65.1781	99.9103	
   483	-0.3121	 0.2291	-0.0829	-0.4858	 0.0752	-0.4106	-0.0737	 0.1080	 0.0342	65.0317	99.9113	
   484	-0.3182	 0.2542	-0.0640	-0.4836	 0.1135	-0.3701	-0.0539	 0.1636	 0.1097	64.9350	99.9133	
   485	-0.3879	 0.2268	-0.1612	-0.5616	 0.1032	-0.4584	-0.1036	 0.1880	 0.0844	64.7378	99.9185	
   486	-0.5336	 0.1970	-0.3366	-0.6916	 0.0861	-0.6055	-0.1925	 0.2214	 0.0289	64.5435	99.9254	
   487	-0.5632	 0.2079	-0.3553	-0.6775	 0.1069	-0.5705	-0.1563	 0.2651	 0.1088	64.5505	99.9268	
   488	-0.5754	 0.1289	-0.4465	-0.7079	 0.0270	-0.6809	-0.1872	 0.2137	 0.0264	64.4500	99.9308	
   489	-0.6164	 0.0757	-0.5407	-0.7004	-0.0669	-0.7673	-0.2112	 0.1883	-0.0229	64.4020	99.9371	
   490	-0.6513	-0.0026	-0.6539	-0.7331	-0.1850	-0.9181	-0.2796	 0.0706	-0.2090	64.5435	99.9376	
   491	-0.8396	-0.1153	-0.9550	-0.9336	-0.3063	-1.2399	-0.5404	-0.0437	-0.5840	64.3312	99.9354	
   492	-1.0131	-0.1044	-1.1176	-1.2381	-0.3306	-1.5687	-0.9632	-0.0053	-0.9686	63.3420	99.9425	
   493	-1.1788	-0.0888	-1.2676	-1.3496	-0.2504	-1.5999	-0.9527	 0.0882	-0.8645	63.3694	99.9444	
   494	-0.8343	 0.3612	-0.4731	-0.8699	 0.2366	-0.6333	-0.4014	 0.5635	 0.1621	63.6209	99.9400	
   495	-0.4437	 0.6955	 0.2518	-0.5789	 0.5848	 0.0060	-0.1097	 0.8382	 0.7285	63.5245	99.9360	
   496	-0.2597	 0.7339	 0.4742	-0.3196	 0.6063	 0.2867	 0.2272	 0.7805	 1.0077	64.4727	99.9306	
   497	 0.1719	 0.8631	 1.0350	 0.2894	 0.7655	 1.0549	 1.0652	 0.8845	 1.9497	65.8557	99.9297	
   498	 0.4858	 0.7928	 1.2786	 0.1529	 0.4123	 0.5652	 0.4980	 0.7591	 1.2571	63.9463	99.9632	
   499	 0.1972	 0.9070	 1.1042	 0.1773	 0.7223	 0.8996	 0.6839	 1.0678	 1.7517	64.1044	99.9484	
   500	 0.7152	 1.2170	 1.9322	 0.4594	 0.9176	 1.3770	 0.7657	 1.1173	 1.8831	64.0592	99.9400	
   501	 0.5033	 1.2193	 1.7226	 0.3019	 0.9823	 1.2842	 0.6833	 1.1655	 1.8487	64.0707	99.9361	
   502	 0.4423	 1.2114	 1.6537	 0.1913	 0.9645	 1.1558	 0.5634	 1.1474	 1.7108	63.9138	99.9382	
   503	 0.3821	 1.2185	 1.6006	 0.1727	 0.9779	 1.1506	 0.5909	 1.1314	 1.7222	64.2157	99.9357	
   504	 0.2801	 1.1574	 1.4375	 0.0895	 0.8784	 0.9679	 0.4944	 1.0185	 1.5129	64.4560	99.9353	
   505	 0.0359	 0.9969	 1.0328	-0.0879	 0.7096	 0.6216	 0.3564	 0.8696	 1.2261	64.7048	99.9374	
   506	-0.0670	 0.9210	 0.8540	-0.1391	 0.6048	 0.4656	 0.2880	 0.7519	 1.0400	64.9988	99.9347	
   507	-0.1708	 0.7010	 0.5303	-0.2587	 0.4341	 0.1754	 0.2074	 0.6160	 0.8233	64.8517	99.9377	
   508	-0.2920	 0.5711	 0.2791	-0.3366	 0.3131	-0.0235	 0.1548	 0.4751	 0.6300	65.1484	99.9346	
   509	-0.4716	 0.3488	-0.1228	-0.5363	 0.0939	-0.4424	-0.0656	 0.2655	 0.1999	65.0922	99.9346	
   510	-0.6016	 0.1993	-0.4022	-0.6677	-0.0594	-0.7271	-0.2094	 0.1130	-0.0964	65.1376	99.9340	
   511	-0.7385	 0.0600	-0.6785	-0.7553	-0.2354	-0.9907	-0.3632	-0.0127	-0.3759	65.0837	99.9355	
   512	-0.8649	-0.0300	-0.8950	-0.8645	-0.3383	-1.2028	-0.5047	-0.1201	-0.6248	65.1293	99.9329	
   513	-0.8832	-0.0840	-0.9673	-0.8741	-0.3934	-1.2675	-0.5930	-0.1845	-0.7774	65.0232	99.9259	
   514	-0.9965	 0.1781	-0.8185	-1.0585	 0.0979	-0.9606	-0.7172	 0.4814	-0.2358	62.8066	99.9355	
   515	-0.6991	 0.7290	 0.0299	-0.7475	 0.5690	-0.1785	-0.4383	 0.7265	 0.2882	63.7424	99.9135	
   516	-0.7419	 0.2587	-0.4832	-0.8170	-0.0759	-0.8929	-0.5831	 0.0068	-0.5763	65.0648	99.9139	
   517	-0.9730	-0.0661	-1.0391	-0.9054	-0.2646	-1.1700	-0.4597	-0.0166	-0.4763	64.8937	99.9305	
   518	-0.6182	-0.0832	-0.7014	-0.6208	-0.3632	-0.9840	-0.3415	-0.2502	-0.5917	65.4769	99.9127	
   519	-0.7943	-0.1169	-0.9112	-0.7315	-0.3809	-1.1124	-0.3836	-0.1885	-0.5721	65.3332	99.9227	
   520	-0.5135	 0.0225	-0.4910	-0.5072	-0.1838	-0.6910	-0.1275	-0.0553	-0.1828	65.3364	99.9159	
   521	-0.3627	 0.1415	-0.2212	-0.4159	-0.0547	-0.4707	-0.0375	 0.0428	 0.0053	65.2359	99.9144	
   522	-0.3435	 0.2104	-0.1331	-0.4108	 0.0345	-0.3763	-0.0047	 0.1279	 0.1232	65.1385	99.9150	
   523	-0.3906	 0.1822	-0.2084	-0.4717	-0.0146	-0.4863	-0.0802	 0.0932	 0.0130	65.0857	99.9180	
   524	-0.4795	 0.0859	-0.3936	-0.5437	-0.1443	-0.6879	-0.1690	 0.0176	-0.1514	65.0343	99.9250	
   525	-0.5118	 0.0522	-0.4596	-0.5711	-0.1732	-0.7443	-0.1924	 0.0035	-0.1890	64.9849	99.9263	
   526	-0.4560	 0.1000	-0.3560	-0.5162	-0.1154	-0.6316	-0.0959	 0.0074	-0.0886	65.2862	99.9223	
   527	-0.4019	 0.1180	-0.2839	-0.4724	-0.1381	-0.6104	-0.1211	-0.0405	-0.1616	65.3809	99.9181	
   528	-0.4516	 0.0452	-0.4064	-0.5488	-0.2335	-0.7824	-0.2491	-0.1071	-0.3562	65.1748	99.9208	
   529	-0.5214	 0.0178	-0.5036	-0.6142	-0.2485	-0.8626	-0.2953	-0.1242	-0.4195	65.1753	99.9207	
   530	-0.4970	 0.0468	-0.4502	-0.5852	-0.1940	-0.7793	-0.2456	-0.0396	-0.2853	64.9789	99.9235	
   531	-0.3853	 0.1423	-0.2431	-0.4493	-0.0749	-0.5243	-0.0304	 0.0688	 0.0383	65.1883	99.9250	
   532	-0.4560	 0.1000	-0.3560	-0.5451	-0.1698	-0.7149	-0.2088	 0.0153	-0.1935	64.9299	99.9292	
   533	-0.5065	 0.1414	-0.3651	-0.5860	-0.0961	-0.6821	-0.2328	 0.0989	-0.1339	64.7334	99.9286	
   534	-0.5658	 0.1633	-0.4025	-0.6462	-0.1325	-0.7786	-0.3457	 0.1069	-0.2388	64.5771	99.9343	
   535	-0.7821	 0.0913	-0.6908	-0.7917	-0.1959	-0.9876	-0.4738	 0.1492	-0.3246	64.2362	99.9425	
   536	-0.8945	 0.1100	-0.7845	-0.8928	-0.1586	-1.0514	-0.5679	 0.1903	-0.3776	64.0874	99.9415	
   537	-0.9896	 0.1679	-0.8217	-0.9797	-0.1005	-1.0802	-0.6680	 0.2279	-0.4401	64.0339	99.9381	
   538	-0.9834	 0.2720	-0.7115	-1.0317	 0.0034	-1.0284	-0.7598	 0.2050	-0.5548	64.2168	99.9242	
   539	-1.1378	-0.0356	-1.1734	-1.2426	-0.2964	-1.5389	-0.9702	-0.1403	-1.1105	64.4527	99.9205	
   540	-1.1614	-0.0497	-1.2111	-1.1512	-0.2780	-1.4292	-0.7047	-0.0450	-0.7498	64.7846	99.9336	
   541	-0.9652	-0.0614	-1.0266	-0.9744	-0.3433	-1.3177	-0.6129	-0.1311	-0.7440	64.9773	99.9307	
   542	-0.9643	-0.0465	-1.0108	-0.9596	-0.3097	-1.2693	-0.5988	-0.0790	-0.6779	64.8297	99.9306	
   543	-0.9652	-0.0614	-1.0266	-0.9670	-0.3265	-1.2935	-0.6053	-0.0938	-0.6991	64.8291	99.9313	
   544	-0.9416	-0.0473	-0.9889	-0.9150	-0.3197	-1.2347	-0.5427	-0.0887	-0.6314	64.9822	99.9312	
   545	-0.8658	-0.0449	-0.9107	-0.8697	-0.3169	-1.1865	-0.5386	-0.1189	-0.6575	64.9773	99.9260	
   546	-0.8972	-0.0637	-0.9609	-0.9224	-0.3365	-1.2589	-0.6205	-0.1684	-0.7889	64.9718	99.9214	
   547	-0.8431	-0.0457	-0.8888	-0.8504	-0.3175	-1.1679	-0.5304	-0.1793	-0.7097	65.2256	99.9183	
   548	-0.7306	-0.0644	-0.7951	-0.7486	-0.3421	-1.0906	-0.4526	-0.2085	-0.6611	65.2751	99.9170	
   549	-0.6783	-0.0761	-0.7545	-0.7040	-0.3520	-1.0560	-0.4140	-0.2287	-0.6427	65.3250	99.9156	
   550	-0.6565	-0.0918	-0.7483	-0.6862	-0.3781	-1.0643	-0.4035	-0.2441	-0.6476	65.3246	99.9174	
   551	-0.6496	-0.1020	-0.7515	-0.6676	-0.3915	-1.0591	-0.3929	-0.2596	-0.6525	65.3750	99.9162	
   552	-0.6199	-0.1129	-0.7328	-0.6550	-0.3962	-1.0511	-0.3707	-0.2679	-0.6386	65.3750	99.9169	
   553	-0.5903	-0.1239	-0.7141	-0.6297	-0.4055	-1.0352	-0.3485	-0.2762	-0.6247	65.3750	99.9169	
   554	-0.5755	-0.1293	-0.7048	-0.6297	-0.4055	-1.0352	-0.3374	-0.2804	-0.6178	65.3750	99.9175	
   555	-0.4621	-0.1332	-0.5953	-0.5257	-0.3918	-0.9175	-0.2181	-0.2736	-0.4917	65.4273	99.9169	
   556	-0.3488	-0.1371	-0.4859	-0.4292	-0.3949	-0.8241	-0.1110	-0.2851	-0.3961	65.5286	99.9176	
   557	-0.3043	-0.1535	-0.4578	-0.3853	-0.4176	-0.8029	-0.0947	-0.2970	-0.3916	65.4776	99.9174	
   558	-0.2973	-0.1637	-0.4610	-0.3794	-0.4263	-0.8057	-0.0841	-0.3124	-0.3965	65.5279	99.9169	
   559	-0.2756	-0.1793	-0.4549	-0.3675	-0.4437	-0.8112	-0.0789	-0.3201	-0.3990	65.4772	99.9182	
   560	-0.2677	-0.1746	-0.4423	-0.3608	-0.4397	-0.8005	-0.0566	-0.3285	-0.3851	65.5782	99.9180	
   561	-0.2459	-0.1903	-0.4362	-0.3549	-0.4484	-0.8032	-0.0572	-0.3397	-0.3969	65.5272	99.9174	
   562	-0.2459	-0.1903	-0.4362	-0.3422	-0.4530	-0.7953	-0.0402	-0.3404	-0.3806	65.5782	99.9180	
   563	-0.1544	-0.1785	-0.3328	-0.2316	-0.4353	-0.6669	 0.0849	-0.3300	-0.2451	65.7309	99.9168	
   564	-0.0628	-0.1667	-0.2295	-0.1350	-0.4384	-0.5734	 0.1697	-0.3332	-0.1635	65.8315	99.9170	
   565	-0.0480	-0.1722	-0.2202	-0.1350	-0.4384	-0.5734	 0.1639	-0.3367	-0.1728	65.7809	99.9164	
   566	-0.0646	-0.1965	-0.2610	-0.1625	-0.4673	-0.6298	 0.1399	-0.3621	-0.2222	65.7804	99.9180	
   567	-0.1116	-0.2246	-0.3363	-0.1966	-0.5003	-0.6969	 0.0995	-0.3756	-0.2761	65.7302	99.9196	
   568	-0.1430	-0.2434	-0.3865	-0.2293	-0.5078	-0.7371	 0.0656	-0.3744	-0.3087	65.6297	99.9197	
   569	-0.1814	-0.2521	-0.4335	-0.2613	-0.5025	-0.7637	 0.0604	-0.3667	-0.3063	65.6309	99.9204	
   570	-0.1736	-0.2474	-0.4209	-0.2412	-0.4903	-0.7315	 0.1013	-0.3419	-0.2406	65.6326	99.9223	
   571	-0.0811	-0.2207	-0.3019	-0.0979	-0.4652	-0.5630	 0.2943	-0.3341	-0.0398	66.0348	99.9216	
   572	-0.0044	-0.2035	-0.2079	-0.0072	-0.4596	-0.4668	 0.3674	-0.3443	 0.0231	66.1842	99.9187	
   573	 0.0183	-0.2043	-0.1860	 0.0054	-0.4642	-0.4588	 0.3557	-0.3514	 0.0043	66.1340	99.9175	
   574	 0.0409	-0.2050	-0.1641	 0.0188	-0.4561	-0.4374	 0.3504	-0.3437	 0.0067	66.0340	99.9158	
   575	 0.0497	-0.1855	-0.1358	 0.0574	-0.4574	-0.4000	 0.3732	-0.3408	 0.0325	66.1339	99.9153	
   576	 0.0723	-0.1862	-0.1139	 0.0581	-0.4446	-0.3865	 0.3621	-0.3366	 0.0255	66.0338	99.9134	
   577	 0.0732	-0.1714	-0.0982	 0.0589	-0.4319	-0.3730	 0.3516	-0.3212	 0.0304	65.9837	99.9130	
   578	 0.0819	-0.1518	-0.0699	 0.0797	-0.4070	-0.3274	 0.4200	-0.3125	 0.1075	66.1840	99.9137	
   579	 0.1822	-0.1205	 0.0617	 0.1985	-0.3597	-0.1613	 0.5849	-0.2998	 0.2851	66.4825	99.9107	
   580	 0.2589	-0.1032	 0.1557	 0.2638	-0.3448	-0.0810	 0.6247	-0.2976	 0.3271	66.4827	99.9079	
   581	 0.2894	-0.0993	 0.1901	 0.2646	-0.3321	-0.0675	 0.6142	-0.2821	 0.3320	66.3335	99.9082	
   582	 0.2903	-0.0844	 0.2059	 0.2653	-0.3193	-0.0540	 0.6095	-0.2632	 0.3463	66.2838	99.9088	
   583	 0.2982	-0.0797	 0.2184	 0.2601	-0.2979	-0.0377	 0.6153	-0.2596	 0.3557	66.2838	99.9066	
   584	 0.2990	-0.0649	 0.2342	 0.2601	-0.2979	-0.0377	 0.5989	-0.2478	 0.3512	66.2339	99.9082	
   585	 0.2842	-0.0594	 0.2248	 0.2475	-0.2932	-0.0457	 0.5820	-0.2471	 0.3349	66.2339	99.9073	
   586	 0.2772	-0.0492	 0.2280	 0.2103	-0.2665	-0.0561	 0.5603	-0.2275	 0.3328	66.1342	99.9077	
   587	 0.3235	-0.0359	 0.2875	 0.2757	-0.2515	 0.0242	 0.6521	-0.2047	 0.4475	66.2342	99.9097	
   588	 0.4150	-0.0241	 0.3909	 0.3670	-0.2332	 0.1339	 0.7323	-0.1889	 0.5434	66.2343	99.9081	
   589	 0.4307	-0.0148	 0.4159	 0.3737	-0.2291	 0.1446	 0.7323	-0.1889	 0.5434	66.2342	99.9080	
   590	 0.4237	-0.0046	 0.4191	 0.3552	-0.2158	 0.1394	 0.7217	-0.1734	 0.5483	66.1846	99.9092	
   591	 0.4167	 0.0056	 0.4223	 0.3618	-0.2117	 0.1501	 0.7053	-0.1616	 0.5438	66.1348	99.9082	
   592	 0.4098	 0.0158	 0.4255	 0.3499	-0.1943	 0.1556	 0.7001	-0.1538	 0.5462	66.1348	99.9071	
   593	 0.3950	 0.0212	 0.4162	 0.3373	-0.1897	 0.1477	 0.6726	-0.1378	 0.5348	66.0353	99.9074	
   594	 0.3732	 0.0369	 0.4100	 0.3121	-0.1803	 0.1317	 0.6556	-0.1372	 0.5185	66.0849	99.9076	
   595	 0.3583	 0.0423	 0.4007	 0.3061	-0.1716	 0.1345	 0.6398	-0.1140	 0.5258	65.9856	99.9080	
   596	 0.4124	 0.0604	 0.4728	 0.3655	-0.1480	 0.2175	 0.7211	-0.0757	 0.6454	65.9866	99.9109	
   597	 0.4961	 0.0674	 0.5635	 0.4309	-0.1331	 0.2978	 0.7843	-0.0593	 0.7250	65.9372	99.9113	
   598	 0.4970	 0.0823	 0.5793	 0.4249	-0.1244	 0.3006	 0.7620	-0.0510	 0.7111	65.8871	99.9109	
   599	 0.4978	 0.0972	 0.5950	 0.4324	-0.1076	 0.3248	 0.7574	-0.0320	 0.7253	65.8375	99.9097	
   600	 0.5066	 0.1167	 0.6233	 0.4272	-0.0861	 0.3411	 0.7416	-0.0089	 0.7327	65.7379	99.9097	
   601	 0.4996	 0.1269	 0.6265	 0.4145	-0.0814	 0.3331	 0.7246	-0.0082	 0.7164	65.7374	99.9096	
   602	 0.4848	 0.1324	 0.6172	 0.4019	-0.0768	 0.3251	 0.6971	 0.0078	 0.7049	65.6377	99.9099	
   603	 0.4551	 0.1433	 0.5985	 0.3640	-0.0628	 0.3012	 0.6749	 0.0162	 0.6910	65.6377	99.9105	
   604	 0.4403	 0.1488	 0.5891	 0.3388	-0.0535	 0.2853	 0.6526	 0.0245	 0.6772	65.5878	99.9108	
   605	 0.4107	 0.1597	 0.5704	 0.3202	-0.0401	 0.2801	 0.6257	 0.0518	 0.6775	65.4887	99.9111	
   606	 0.4578	 0.1879	 0.6457	 0.3796	-0.0165	 0.3631	 0.7123	 0.0824	 0.7947	65.5902	99.9139	
   607	 0.5188	 0.1958	 0.7146	 0.4450	-0.0015	 0.4434	 0.7585	 0.0994	 0.8579	65.5409	99.9120	
   608	 0.5266	 0.2005	 0.7271	 0.4390	 0.0072	 0.4462	 0.7421	 0.1113	 0.8534	65.4411	99.9120	
   609	 0.5197	 0.2106	 0.7303	 0.4204	 0.0205	 0.4410	 0.7316	 0.1268	 0.8583	65.3916	99.9132	
   610	 0.5127	 0.2208	 0.7335	 0.4145	 0.0292	 0.4437	 0.7205	 0.1309	 0.8514	65.3912	99.9123	
   611	 0.5057	 0.2310	 0.7367	 0.3900	 0.0513	 0.4413	 0.6988	 0.1505	 0.8493	65.2916	99.9121	
   612	 0.4839	 0.2466	 0.7306	 0.3773	 0.0560	 0.4333	 0.6713	 0.1666	 0.8379	65.2416	99.9128	
   613	 0.4621	 0.2623	 0.7244	 0.3588	 0.0694	 0.4281	 0.6497	 0.1862	 0.8358	65.1919	99.9134	
   614	 0.4403	 0.2779	 0.7182	 0.3335	 0.0787	 0.4122	 0.6333	 0.1980	 0.8313	65.1919	99.9151	
   615	 0.4255	 0.2834	 0.7089	 0.3216	 0.0961	 0.4177	 0.6116	 0.2176	 0.8293	65.0927	99.9134	
   616	 0.4499	 0.3123	 0.7623	 0.3743	 0.1157	 0.4900	 0.6976	 0.2370	 0.9346	65.2945	99.9153	
   617	 0.5188	 0.3249	 0.8437	 0.4456	 0.1219	 0.5676	 0.7549	 0.2499	 1.0048	65.2949	99.9156	
   618	 0.5345	 0.3343	 0.8688	 0.4397	 0.1306	 0.5703	 0.7333	 0.2695	 1.0027	65.1452	99.9169	
   619	 0.5275	 0.3445	 0.8720	 0.4278	 0.1480	 0.5758	 0.7227	 0.2849	 1.0076	65.0957	99.9164	
   620	 0.5136	 0.3648	 0.8784	 0.4285	 0.1608	 0.5893	 0.7011	 0.3045	 1.0056	65.0456	99.9155	
   621	 0.5066	 0.3750	 0.8816	 0.4040	 0.1829	 0.5869	 0.6958	 0.3122	 1.0080	65.0456	99.9151	
   622	 0.4996	 0.3851	 0.8848	 0.3854	 0.1962	 0.5817	 0.6683	 0.3282	 0.9966	64.9455	99.9150	
   623	 0.4779	 0.4008	 0.8786	 0.3728	 0.2009	 0.5737	 0.6461	 0.3366	 0.9827	64.9450	99.9152	
   624	 0.4630	 0.4062	 0.8693	 0.3476	 0.2102	 0.5578	 0.6297	 0.3485	 0.9782	64.8954	99.9164	
   625	 0.4264	 0.4274	 0.8538	 0.3223	 0.2195	 0.5418	 0.5911	 0.3687	 0.9598	64.8452	99.9171	
   626	 0.4273	 0.4422	 0.8695	 0.3111	 0.2497	 0.5608	 0.6092	 0.3906	 0.9998	64.8470	99.9176	
   627	 0.4962	 0.4548	 0.9509	 0.4018	 0.2553	 0.6571	 0.7005	 0.4022	 1.1026	64.9488	99.9180	
   628	 0.5049	 0.4743	 0.9792	 0.4151	 0.2634	 0.6785	 0.7011	 0.4134	 1.1145	64.9483	99.9181	
   629	 0.5127	 0.4790	 0.9918	 0.3906	 0.2855	 0.6761	 0.6847	 0.4253	 1.1100	64.8482	99.9177	
   630	 0.4840	 0.5049	 0.9888	 0.3847	 0.2942	 0.6788	 0.6794	 0.4330	 1.1124	64.9477	99.9179	
   631	 0.4770	 0.5150	 0.9920	 0.3661	 0.3075	 0.6736	 0.6578	 0.4526	 1.1104	64.8482	99.9187	
   632	 0.4622	 0.5205	 0.9827	 0.3535	 0.3122	 0.6657	 0.6414	 0.4645	 1.1059	64.7987	99.9193	
   633	 0.4404	 0.5361	 0.9765	 0.3289	 0.3343	 0.6632	 0.6139	 0.4805	 1.0944	64.7486	99.9179	
   634	 0.4334	 0.5463	 0.9797	 0.3163	 0.3389	 0.6552	 0.5975	 0.4924	 1.0899	64.6984	99.9192	
   635	 0.4116	 0.5620	 0.9736	 0.3104	 0.3476	 0.6580	 0.5922	 0.5001	 1.0924	64.7486	99.9190	
   636	 0.3977	 0.5823	 0.9800	 0.2925	 0.3738	 0.6663	 0.6156	 0.5143	 1.1299	64.8499	99.9203	
   637	 0.4666	 0.5948	 1.0614	 0.3713	 0.3968	 0.7680	 0.7016	 0.5336	 1.2352	64.9022	99.9191	
   638	 0.5058	 0.6183	 1.1241	 0.4166	 0.3996	 0.8161	 0.7139	 0.5520	 1.2658	64.8517	99.9200	
   639	 0.4918	 0.6387	 1.1305	 0.4047	 0.4170	 0.8217	 0.6922	 0.5715	 1.2638	64.8017	99.9197	
   640	 0.4927	 0.6535	 1.1463	 0.3861	 0.4304	 0.8165	 0.6811	 0.5757	 1.2568	64.8005	99.9202	
   641	 0.4779	 0.6590	 1.1369	 0.3735	 0.4350	 0.8085	 0.6589	 0.5841	 1.2430	64.7504	99.9199	
   642	 0.4404	 0.6653	 1.1057	 0.3289	 0.4450	 0.7739	 0.6139	 0.5895	 1.2034	64.6997	99.9193	
   643	 0.3951	 0.6668	 1.0619	 0.2962	 0.4375	 0.7337	 0.5858	 0.5943	 1.1801	64.7003	99.9212	
   644	 0.3724	 0.6676	 1.0400	 0.2583	 0.4515	 0.7098	 0.5413	 0.6110	 1.1523	64.5505	99.9207	
   645	 0.3497	 0.6684	 1.0181	 0.2390	 0.4521	 0.6911	 0.5191	 0.6193	 1.1384	64.5010	99.9212	
   646	 0.3053	 0.6848	 0.9900	 0.2011	 0.4661	 0.6672	 0.5138	 0.6271	 1.1409	64.6021	99.9227	
   647	 0.3445	 0.7083	 1.0528	 0.2672	 0.4938	 0.7610	 0.5945	 0.6541	 1.2486	64.7055	99.9221	
   648	 0.3916	 0.7364	 1.1280	 0.3200	 0.5134	 0.8333	 0.6355	 0.6789	 1.3143	64.7061	99.9223	
   649	 0.3925	 0.7513	 1.1438	 0.3207	 0.5261	 0.8468	 0.6249	 0.6943	 1.3192	64.6562	99.9220	
   650	 0.3933	 0.7662	 1.1595	 0.3088	 0.5435	 0.8523	 0.6144	 0.7097	 1.3241	64.6062	99.9223	
   651	 0.3942	 0.7810	 1.1753	 0.2910	 0.5696	 0.8606	 0.6039	 0.7251	 1.3290	64.5561	99.9216	
   652	 0.3724	 0.7967	 1.1691	 0.2910	 0.5696	 0.8606	 0.5875	 0.7370	 1.3245	64.5561	99.9220	
   653	 0.3655	 0.8069	 1.1723	 0.2850	 0.5784	 0.8634	 0.5600	 0.7531	 1.3131	64.4560	99.9214	
   654	 0.3358	 0.8178	 1.1536	 0.2538	 0.5964	 0.8502	 0.5489	 0.7572	 1.3061	64.5061	99.9207	
   655	 0.3062	 0.8288	 1.1349	 0.2286	 0.6057	 0.8343	 0.5103	 0.7775	 1.2877	64.4066	99.9209	
   656	 0.3062	 0.8288	 1.1349	 0.2167	 0.6231	 0.8398	 0.4997	 0.7929	 1.2926	64.3078	99.9200	
   657	 0.3454	 0.8522	 1.1977	 0.2761	 0.6468	 0.9228	 0.5910	 0.8045	 1.3955	64.5104	99.9199	
   658	 0.3916	 0.8656	 1.2572	 0.3154	 0.6583	 0.9737	 0.6149	 0.8299	 1.4449	64.4118	99.9210	
   659	 0.3925	 0.8804	 1.2729	 0.3036	 0.6757	 0.9792	 0.6149	 0.8299	 1.4449	64.4604	99.9202	
   660	 0.3847	 0.8757	 1.2604	 0.2969	 0.6716	 0.9685	 0.5986	 0.8418	 1.4404	64.3618	99.9213	
   661	 0.3629	 0.8914	 1.2542	 0.2723	 0.6937	 0.9661	 0.5763	 0.8501	 1.4265	64.3611	99.9194	
   662	 0.3480	 0.8968	 1.2449	 0.2530	 0.6943	 0.9474	 0.5430	 0.8627	 1.4057	64.2609	99.9204	
   663	 0.3105	 0.9031	 1.2136	 0.2278	 0.7037	 0.9314	 0.5260	 0.8633	 1.3893	64.3110	99.9191	
   664	 0.2957	 0.9086	 1.2043	 0.2025	 0.7130	 0.9155	 0.5097	 0.8752	 1.3848	64.2617	99.9202	
   665	 0.2888	 0.9187	 1.2075	 0.1839	 0.7264	 0.9103	 0.4822	 0.8912	 1.3734	64.1614	99.9202	
   666	 0.2591	 0.9297	 1.1888	 0.1654	 0.7397	 0.9051	 0.4664	 0.9144	 1.3807	64.1138	99.9208	
   667	 0.2905	 0.9485	 1.2390	 0.2121	 0.7680	 0.9802	 0.5190	 0.9462	 1.4652	64.1181	99.9202	
   668	 0.3594	 0.9610	 1.3204	 0.2775	 0.7829	 1.0605	 0.5769	 0.9703	 1.5472	64.0707	99.9208	
   669	 0.3524	 0.9712	 1.3236	 0.2530	 0.8050	 1.0580	 0.5658	 0.9745	 1.5403	64.0698	99.9196	
   670	 0.3376	 0.9767	 1.3142	 0.2344	 0.8184	 1.0528	 0.5383	 0.9906	 1.5288	63.9705	99.9188	
   671	 0.3306	 0.9868	 1.3174	 0.2225	 0.8358	 1.0583	 0.5166	 1.0102	 1.5268	63.8712	99.9180	
   672	 0.3088	 1.0025	 1.3113	 0.2099	 0.8405	 1.0504	 0.5008	 1.0333	 1.5341	63.8229	99.9204	
   673	 0.2870	 1.0181	 1.3051	 0.1921	 0.8666	 1.0586	 0.4903	 1.0487	 1.5390	63.8239	99.9186	
   674	 0.2879	 1.0330	 1.3209	 0.1802	 0.8840	 1.0642	 0.4856	 1.0677	 1.5533	63.7747	99.9197	
   675	 0.2661	 1.0486	 1.3147	 0.1742	 0.8927	 1.0669	 0.4587	 1.0950	 1.5537	63.6764	99.9202	
   676	 0.2591	 1.0588	 1.3179	 0.1564	 0.9188	 1.0752	 0.4540	 1.1139	 1.5680	63.6283	99.9196	
   677	 0.3053	 1.0721	 1.3775	 0.2411	 0.9331	 1.1742	 0.5681	 1.1285	 1.6965	63.8346	99.9198	
   678	 0.3960	 1.0690	 1.4650	 0.3131	 0.9521	 1.2652	 0.6195	 1.1378	 1.7573	63.7357	99.9164	
   679	 0.3969	 1.0839	 1.4808	 0.3138	 0.9648	 1.2787	 0.6037	 1.1609	 1.7647	63.6367	99.9166	
   680	 0.4047	 1.0886	 1.4933	 0.3339	 0.9770	 1.3109	 0.6160	 1.1793	 1.7953	63.5898	99.9156	
   681	 0.4135	 1.1081	 1.5216	 0.3480	 0.9978	 1.3458	 0.6283	 1.1976	 1.8259	63.5908	99.9148	
   682	 0.4292	 1.1175	 1.5467	 0.3428	 1.0193	 1.3620	 0.6242	 1.2278	 1.8520	63.4440	99.9160	
   683	 0.4004	 1.1433	 1.5437	 0.3316	 1.0494	 1.3811	 0.6253	 1.2503	 1.8756	63.4963	99.9148	
   684	 0.4082	 1.1480	 1.5563	 0.3324	 1.0622	 1.3945	 0.6259	 1.2616	 1.8875	63.4474	99.9143	
   685	 0.3943	 1.1684	 1.5627	 0.3264	 1.0709	 1.3973	 0.6154	 1.2770	 1.8924	63.4474	99.9153	
   686	 0.3795	 1.1739	 1.5533	 0.3145	 1.0883	 1.4028	 0.6048	 1.2924	 1.8972	63.3996	99.9141	
   687	 0.4030	 1.1880	 1.5910	 0.3546	 1.1125	 1.4672	 0.6575	 1.3242	 1.9817	63.4064	99.9143	
   688	 0.4876	 1.2099	 1.6975	 0.4527	 1.1349	 1.5876	 0.7493	 1.3471	 2.0964	63.4596	99.9133	
   689	 0.5260	 1.2185	 1.7445	 0.4787	 1.1384	 1.6170	 0.7551	 1.3507	 2.1058	63.4075	99.9129	
   690	 0.5190	 1.2287	 1.7477	 0.4668	 1.1558	 1.6225	 0.7557	 1.3619	 2.1176	63.4087	99.9127	
   691	 0.5277	 1.2482	 1.7760	 0.4742	 1.1726	 1.6468	 0.7510	 1.3809	 2.1319	63.3588	99.9124	
   692	 0.5138	 1.2686	 1.7823	 0.4690	 1.1940	 1.6630	 0.7516	 1.3921	 2.1437	63.4087	99.9111	
   693	 0.5138	 1.2686	 1.7823	 0.4757	 1.1981	 1.6737	 0.7522	 1.4034	 2.1555	63.3611	99.9108	
   694	 0.5216	 1.2733	 1.7949	 0.4571	 1.2114	 1.6685	 0.7358	 1.4153	 2.1510	63.2614	99.9114	
   695	 0.4998	 1.2889	 1.7887	 0.4578	 1.2242	 1.6820	 0.7364	 1.4265	 2.1629	63.3124	99.9103	
   696	 0.4928	 1.2991	 1.7919	 0.4452	 1.2288	 1.6740	 0.7200	 1.4384	 2.1584	63.2626	99.9117	
   697	 0.4789	 1.3194	 1.7983	 0.4593	 1.2497	 1.7090	 0.7440	 1.4638	 2.2078	63.3171	99.9115	
   698	 0.5556	 1.3367	 1.8923	 0.5321	 1.2814	 1.8135	 0.8463	 1.4712	 2.3175	63.4684	99.9099	
   699	 0.5792	 1.3508	 1.9299	 0.5640	 1.2761	 1.8401	 0.8410	 1.4789	 2.3200	63.4165	99.9099	
   700	 0.5792	 1.3508	 1.9299	 0.5514	 1.2808	 1.8322	 0.8299	 1.4831	 2.3131	63.3668	99.9102	
   701	 0.5792	 1.3508	 1.9299	 0.5395	 1.2982	 1.8377	 0.8136	 1.4950	 2.3086	63.2684	99.9083	
   702	 0.5722	 1.3609	 1.9331	 0.5336	 1.3069	 1.8405	 0.8083	 1.5027	 2.3110	63.2684	99.9083	
   703	 0.5574	 1.3664	 1.9238	 0.5269	 1.3028	 1.8297	 0.8030	 1.5104	 2.3134	63.2696	99.9102	
   704	 0.5426	 1.3719	 1.9144	 0.5143	 1.3075	 1.8218	 0.7808	 1.5188	 2.2996	63.2198	99.9099	
   705	 0.5277	 1.3774	 1.9051	 0.4830	 1.3255	 1.8086	 0.7697	 1.5229	 2.2926	63.2198	99.9095	
   706	 0.5129	 1.3828	 1.8957	 0.4764	 1.3215	 1.7979	 0.7527	 1.5236	 2.2763	63.2186	99.9097	
   707	 0.4911	 1.3985	 1.8896	 0.4645	 1.3389	 1.8034	 0.7539	 1.5461	 2.3000	63.2222	99.9106	
   708	 0.5382	 1.4267	 1.9649	 0.5484	 1.3405	 1.8889	 0.8510	 1.5612	 2.4122	63.4243	99.9137	
   709	 0.5914	 1.4298	 2.0212	 0.5751	 1.3566	 1.9318	 0.8685	 1.5718	 2.4403	63.3251	99.9127	
   710	 0.5844	 1.4400	 2.0244	 0.5751	 1.3566	 1.9318	 0.8521	 1.5837	 2.4359	63.2755	99.9134	
   711	 0.5705	 1.4603	 2.0308	 0.5633	 1.3740	 1.9373	 0.8527	 1.5950	 2.4477	63.3251	99.9137	
   712	 0.5713	 1.4752	 2.0465	 0.5766	 1.3821	 1.9588	 0.8644	 1.6021	 2.4665	63.3747	99.9134	
   713	 0.5713	 1.4752	 2.0465	 0.5640	 1.3868	 1.9508	 0.8369	 1.6181	 2.4550	63.2270	99.9139	
   714	 0.5644	 1.4854	 2.0497	 0.5580	 1.3955	 1.9535	 0.8428	 1.6216	 2.4644	63.2766	99.9142	
   715	 0.5574	 1.4955	 2.0529	 0.5335	 1.4176	 1.9511	 0.8375	 1.6294	 2.4668	63.2766	99.9138	
   716	 0.5504	 1.5057	 2.0561	 0.5395	 1.4089	 1.9483	 0.8322	 1.6371	 2.4693	63.2766	99.9159	
   717	 0.5435	 1.5159	 2.0593	 0.5335	 1.4176	 1.9511	 0.8275	 1.6560	 2.4836	63.2293	99.9173	
   718	 0.5827	 1.5394	 2.1220	 0.5989	 1.4325	 2.0314	 0.9129	 1.6641	 2.5770	63.4298	99.9174	
   719	 0.6211	 1.5480	 2.1690	 0.6249	 1.4359	 2.0608	 0.9188	 1.6677	 2.5864	63.3781	99.9170	
   720	 0.6132	 1.5433	 2.1565	 0.5929	 1.4412	 2.0341	 0.8960	 1.6647	 2.5607	63.3274	99.9171	
   721	 0.6054	 1.5386	 2.1439	 0.5803	 1.4459	 2.0262	 0.8901	 1.6612	 2.5513	63.3274	99.9160	
   722	 0.5757	 1.5495	 2.1252	 0.5796	 1.4331	 2.0127	 0.8673	 1.6583	 2.5256	63.3747	99.9160	
   723	 0.5670	 1.5300	 2.0970	 0.5350	 1.4431	 1.9781	 0.8334	 1.6596	 2.4930	63.2270	99.9152	
   724	 0.5443	 1.5307	 2.0751	 0.5216	 1.4350	 1.9566	 0.8106	 1.6567	 2.4672	63.2258	99.9153	
   725	 0.5295	 1.5362	 2.0657	 0.5023	 1.4356	 1.9379	 0.7825	 1.6615	 2.4440	63.1749	99.9158	
   726	 0.5138	 1.5268	 2.0406	 0.4704	 1.4409	 1.9113	 0.7708	 1.6544	 2.4252	63.1749	99.9154	
   727	 0.4920	 1.5425	 2.0345	 0.4711	 1.4536	 1.9248	 0.7889	 1.6763	 2.4652	63.2293	99.9169	
   728	 0.5530	 1.5503	 2.1034	 0.5357	 1.4558	 1.9916	 0.8568	 1.6737	 2.5305	63.3286	99.9169	
   729	 0.5679	 1.5448	 2.1127	 0.5417	 1.4471	 1.9888	 0.8398	 1.6744	 2.5142	63.2282	99.9170	
   730	 0.5452	 1.5456	 2.0908	 0.5097	 1.4524	 1.9621	 0.8170	 1.6715	 2.4885	63.2270	99.9168	
   731	 0.5374	 1.5409	 2.0783	 0.4971	 1.4571	 1.9542	 0.8059	 1.6756	 2.4815	63.1785	99.9163	
   732	 0.5304	 1.5511	 2.0815	 0.4904	 1.4530	 1.9434	 0.7948	 1.6798	 2.4746	63.1773	99.9181	
   733	 0.5156	 1.5566	 2.0721	 0.4837	 1.4490	 1.9327	 0.7837	 1.6840	 2.4676	63.1773	99.9191	
   734	 0.5007	 1.5620	 2.0628	 0.4778	 1.4577	 1.9355	 0.7784	 1.6917	 2.4701	63.1785	99.9183	
   735	 0.4938	 1.5722	 2.0660	 0.4652	 1.4623	 1.9275	 0.7620	 1.7036	 2.4656	63.1288	99.9196	
   736	 0.4789	 1.5777	 2.0566	 0.4406	 1.4844	 1.9251	 0.7456	 1.7154	 2.4611	63.0803	99.9182	
   737	 0.4955	 1.6019	 2.0974	 0.4800	 1.4959	 1.9759	 0.8088	 1.7319	 2.5407	63.2329	99.9204	
   738	 0.5487	 1.6051	 2.1538	 0.5380	 1.4941	 2.0320	 0.8538	 1.7264	 2.5803	63.2813	99.9193	
   739	 0.5557	 1.5949	 2.1506	 0.5120	 1.4906	 2.0026	 0.8029	 1.7283	 2.5313	63.0803	99.9192	
   740	 0.5260	 1.6059	 2.1319	 0.4926	 1.4913	 1.9839	 0.8024	 1.7171	 2.5194	63.2270	99.9194	
   741	 0.5182	 1.6012	 2.1193	 0.4800	 1.4959	 1.9759	 0.7749	 1.7331	 2.5080	63.0803	99.9192	
   742	 0.5034	 1.6066	 2.1100	 0.4800	 1.4959	 1.9759	 0.7696	 1.7408	 2.5105	63.0815	99.9194	
   743	 0.4964	 1.6168	 2.1132	 0.4674	 1.5006	 1.9680	 0.7696	 1.7408	 2.5105	63.1300	99.9205	
   744	 0.4885	 1.6121	 2.1006	 0.4302	 1.5273	 1.9576	 0.7474	 1.7492	 2.4966	63.0317	99.9183	
   745	 0.4807	 1.6074	 2.0881	 0.4169	 1.5192	 1.9361	 0.7193	 1.7540	 2.4733	62.9321	99.9193	
   746	 0.4589	 1.6230	 2.0819	 0.4109	 1.5280	 1.9389	 0.7368	 1.7646	 2.5015	63.0343	99.9210	
   747	 0.5130	 1.6411	 2.1540	 0.4889	 1.5382	 2.0271	 0.8281	 1.7762	 2.6043	63.1869	99.9216	
   748	 0.5504	 1.6348	 2.1853	 0.4956	 1.5423	 2.0379	 0.8170	 1.7804	 2.5974	63.0368	99.9210	
   749	 0.5278	 1.6356	 2.1634	 0.4822	 1.5342	 2.0164	 0.7936	 1.7663	 2.5598	63.0827	99.9198	
   750	 0.5199	 1.6309	 2.1508	 0.4882	 1.5255	 2.0136	 0.7883	 1.7740	 2.5623	63.0355	99.9206	
   751	 0.5051	 1.6364	 2.1415	 0.4755	 1.5301	 2.0057	 0.7825	 1.7704	 2.5529	63.0840	99.9201	
   752	 0.4903	 1.6418	 2.1321	 0.4629	 1.5348	 1.9977	 0.7713	 1.7746	 2.5459	63.0840	99.9201	
   753	 0.4833	 1.6520	 2.1353	 0.4443	 1.5482	 1.9925	 0.7608	 1.7900	 2.5508	63.0355	99.9212	
   754	 0.4685	 1.6575	 2.1260	 0.4384	 1.5569	 1.9953	 0.7444	 1.8019	 2.5463	62.9871	99.9201	
   755	 0.4615	 1.6676	 2.1292	 0.4324	 1.5656	 1.9980	 0.7450	 1.8131	 2.5582	62.9884	99.9210	
   756	 0.4772	 1.6770	 2.1543	 0.4525	 1.5777	 2.0302	 0.7854	 1.8267	 2.6120	63.0418	99.9222	
   757	 0.5461	 1.6896	 2.2357	 0.5179	 1.5926	 2.1105	 0.8544	 1.8466	 2.7010	63.0456	99.9231	
   758	 0.5539	 1.6943	 2.2482	 0.5179	 1.5926	 2.1105	 0.8321	 1.8550	 2.6871	62.9451	99.9232	
   759	 0.5539	 1.6943	 2.2482	 0.4933	 1.6147	 2.1080	 0.8321	 1.8550	 2.6871	62.9451	99.9218	
   760	 0.5470	 1.7045	 2.2514	 0.5060	 1.6100	 2.1160	 0.8269	 1.8627	 2.6896	62.9451	99.9222	
   761	 0.5470	 1.7045	 2.2514	 0.5000	 1.6187	 2.1188	 0.8158	 1.8669	 2.6826	62.8954	99.9209	
   762	 0.5322	 1.7099	 2.2421	 0.4807	 1.6194	 2.1001	 0.7877	 1.8717	 2.6594	62.8444	99.9214	
   763	 0.5095	 1.7107	 2.2202	 0.4614	 1.6200	 2.0814	 0.7760	 1.8646	 2.6406	62.8928	99.9209	
   764	 0.4947	 1.7162	 2.2108	 0.4488	 1.6247	 2.0734	 0.7538	 1.8729	 2.6267	62.8431	99.9206	
   765	 0.4798	 1.7216	 2.2015	 0.4354	 1.6166	 2.0520	 0.7315	 1.8813	 2.6128	62.7933	99.9228	
   766	 0.5025	 1.7209	 2.2234	 0.4621	 1.6327	 2.0949	 0.8000	 1.8900	 2.6900	62.8994	99.9234	
   767	 0.5705	 1.7185	 2.2891	 0.5141	 1.6396	 2.1537	 0.8345	 1.9000	 2.7344	62.8014	99.9226	
   768	 0.5557	 1.7240	 2.2797	 0.4948	 1.6402	 2.1350	 0.8228	 1.8929	 2.7157	62.8484	99.9229	
   769	 0.5635	 1.7287	 2.2923	 0.5022	 1.6570	 2.1592	 0.8292	 1.9077	 2.7369	62.8014	99.9217	
   770	 0.5723	 1.7483	 2.3205	 0.5156	 1.6651	 2.1807	 0.8362	 1.9337	 2.7699	62.7544	99.9240	
   771	 0.5880	 1.7577	 2.3456	 0.5349	 1.6645	 2.1994	 0.8374	 1.9562	 2.7936	62.6578	99.9259	
   772	 0.5958	 1.7624	 2.3582	 0.5297	 1.6859	 2.2156	 0.8380	 1.9675	 2.8054	62.6095	99.9245	
   773	 0.5888	 1.7725	 2.3614	 0.5238	 1.6946	 2.2184	 0.8216	 1.9794	 2.8009	62.5597	99.9242	
   774	 0.5819	 1.7827	 2.3646	 0.5238	 1.6946	 2.2184	 0.8274	 1.9829	 2.8103	62.6095	99.9255	
   775	 0.5670	 1.7882	 2.3552	 0.5052	 1.7080	 2.2132	 0.8163	 1.9871	 2.8034	62.6095	99.9245	
   776	 0.6202	 1.7913	 2.4116	 0.5698	 1.7102	 2.2800	 0.8964	 2.0029	 2.8993	62.6662	99.9267	
   777	 0.6813	 1.7992	 2.4804	 0.6092	 1.7217	 2.3308	 0.9420	 2.0087	 2.9507	62.6662	99.9273	
   778	 0.6891	 1.8039	 2.4930	 0.6159	 1.7257	 2.3416	 0.9204	 2.0283	 2.9487	62.5187	99.9272	
   779	 0.6970	 1.8086	 2.5055	 0.6225	 1.7298	 2.3523	 0.9151	 2.0360	 2.9511	62.4690	99.9269	
   780	 0.6970	 1.8086	 2.5055	 0.6166	 1.7385	 2.3551	 0.9204	 2.0283	 2.9487	62.5172	99.9255	
   781	 0.6821	 1.8141	 2.4962	 0.5846	 1.7437	 2.3284	 0.8865	 2.0295	 2.9160	62.4646	99.9257	
   782	 0.6664	 1.8047	 2.4711	 0.5713	 1.7357	 2.3069	 0.8467	 2.0273	 2.8740	62.3634	99.9243	
   783	 0.6289	 1.8109	 2.4399	 0.5512	 1.7235	 2.2748	 0.8233	 2.0131	 2.8364	62.4587	99.9243	
   784	 0.6063	 1.8117	 2.4180	 0.5067	 1.7335	 2.2401	 0.7947	 2.0067	 2.8013	62.4557	99.9239	
   785	 0.6141	 1.8164	 2.4305	 0.5260	 1.7329	 2.2588	 0.8122	 2.0173	 2.8295	62.4587	99.9249	
   786	 0.6673	 1.8195	 2.4868	 0.5839	 1.7310	 2.3149	 0.8806	 2.0260	 2.9066	62.5129	99.9271	
   787	 0.6752	 1.8242	 2.4994	 0.5780	 1.7397	 2.3177	 0.8695	 2.0302	 2.8997	62.4616	99.9265	
   788	 0.6455	 1.8352	 2.4807	 0.5713	 1.7357	 2.3069	 0.8414	 2.0350	 2.8764	62.4602	99.9261	
   789	 0.6525	 1.8250	 2.4775	 0.5527	 1.7490	 2.3017	 0.8473	 2.0385	 2.8858	62.4133	99.9261	
   790	 0.6525	 1.8250	 2.4775	 0.5460	 1.7450	 2.2910	 0.8420	 2.0462	 2.8882	62.3650	99.9281	
   791	 0.6307	 1.8406	 2.4713	 0.5274	 1.7584	 2.2858	 0.8087	 2.0587	 2.8674	62.3136	99.9270	
   792	 0.6080	 1.8414	 2.4494	 0.5208	 1.7543	 2.2751	 0.8028	 2.0552	 2.8580	62.3634	99.9267	
   793	 0.5923	 1.8320	 2.4244	 0.4881	 1.7469	 2.2349	 0.7847	 2.0333	 2.8180	62.4088	99.9268	
   794	 0.5618	 1.8281	 2.3899	 0.4554	 1.7394	 2.1948	 0.7502	 2.0233	 2.7736	62.4058	99.9267	
   795	 0.5845	 1.8273	 2.4118	 0.4873	 1.7341	 2.2215	 0.7783	 2.0185	 2.7968	62.4557	99.9264	
   796	 0.6063	 1.8117	 2.4180	 0.4859	 1.7086	 2.1945	 0.7765	 1.9848	 2.7613	62.4983	99.9273	
   797	 0.5601	 1.7984	 2.3584	 0.4517	 1.6756	 2.1274	 0.7292	 1.9452	 2.6744	62.5895	99.9265	
   798	 0.5208	 1.7749	 2.2957	 0.3997	 1.6688	 2.0685	 0.6941	 1.9240	 2.6181	62.5881	99.9253	
   799	 0.4903	 1.7709	 2.2613	 0.3730	 1.6526	 2.0256	 0.6538	 1.9105	 2.5642	62.5838	99.9254	
   800	 0.4519	 1.7623	 2.2143	 0.3336	 1.6411	 1.9748	 0.6245	 1.8928	 2.5173	62.6310	99.9257	
   801	 0.4214	 1.7584	 2.1798	 0.3076	 1.6377	 1.9453	 0.5959	 1.8863	 2.4822	62.6296	99.9249	
   802	 0.3909	 1.7545	 2.1454	 0.2876	 1.6256	 1.9132	 0.5678	 1.8912	 2.4589	62.5809	99.9263	
   803	 0.3752	 1.7451	 2.1203	 0.2616	 1.6222	 1.8837	 0.5450	 1.8882	 2.4332	62.5308	99.9266	
   804	 0.3604	 1.7506	 2.1110	 0.2497	 1.6396	 1.8893	 0.5567	 1.8953	 2.4520	62.5838	99.9260	
   805	 0.3909	 1.7545	 2.1454	 0.2816	 1.6343	 1.9159	 0.5853	 1.9018	 2.4871	62.5852	99.9277	
   806	 0.3831	 1.7498	 2.1329	 0.2683	 1.6262	 1.8945	 0.5789	 1.8870	 2.4659	62.6324	99.9280	
   807	 0.3674	 1.7404	 2.1078	 0.2549	 1.6181	 1.8730	 0.5502	 1.8805	 2.4308	62.5809	99.9269	
   808	 0.3369	 1.7365	 2.0733	 0.2163	 1.6194	 1.8356	 0.5163	 1.8818	 2.3981	62.5308	99.9272	
   809	 0.3360	 1.7216	 2.0576	 0.1903	 1.6159	 1.8062	 0.4988	 1.8712	 2.3700	62.4791	99.9272	
   810	 0.2985	 1.7278	 2.0263	 0.1769	 1.6079	 1.7848	 0.4760	 1.8683	 2.3443	62.5279	99.9271	
   811	 0.2828	 1.7185	 2.0013	 0.1383	 1.6091	 1.7474	 0.4532	 1.8654	 2.3185	62.4777	99.9279	
   812	 0.2453	 1.7247	 1.9700	 0.1190	 1.6097	 1.7287	 0.4304	 1.8625	 2.2928	62.5264	99.9269	
   813	 0.2375	 1.7200	 1.9575	 0.1063	 1.6144	 1.7207	 0.4251	 1.8702	 2.2953	62.4791	99.9272	
   814	 0.2828	 1.7185	 2.0013	 0.1702	 1.6038	 1.7740	 0.4818	 1.8718	 2.3536	62.5323	99.9280	
   815	 0.2906	 1.7232	 2.0138	 0.1829	 1.5991	 1.7820	 0.4929	 1.8676	 2.3606	62.5809	99.9284	
   816	 0.2758	 1.7286	 2.0044	 0.1576	 1.6085	 1.7661	 0.4818	 1.8718	 2.3536	62.5809	99.9290	
   817	 0.2750	 1.7138	 1.9887	 0.1576	 1.6085	 1.7661	 0.4760	 1.8683	 2.3443	62.5323	99.9270	
   818	 0.2680	 1.7239	 1.9919	 0.1450	 1.6131	 1.7581	 0.4760	 1.8683	 2.3443	62.5809	99.9280	
   819	 0.2601	 1.7192	 1.9794	 0.1323	 1.6178	 1.7501	 0.4596	 1.8802	 2.3398	62.4836	99.9281	
   820	 0.2601	 1.7192	 1.9794	 0.1256	 1.6138	 1.7394	 0.4538	 1.8766	 2.3304	62.4821	99.9288	
   821	 0.2444	 1.7098	 1.9543	 0.1063	 1.6144	 1.7207	 0.4309	 1.8737	 2.3047	62.4319	99.9276	
   822	 0.2069	 1.7161	 1.9230	 0.0870	 1.6150	 1.7020	 0.4251	 1.8702	 2.2953	62.5323	99.9276	
   823	 0.2375	 1.7200	 1.9575	 0.1383	 1.6091	 1.7474	 0.4766	 1.8795	 2.3561	62.5867	99.9291	
   824	 0.2671	 1.7091	 1.9762	 0.1576	 1.6085	 1.7661	 0.5099	 1.8670	 2.3769	62.6367	99.9284	
   825	 0.2741	 1.6989	 1.9730	 0.1509	 1.6044	 1.7553	 0.5041	 1.8635	 2.3675	62.5867	99.9287	
   826	 0.2593	 1.7044	 1.9636	 0.1635	 1.5998	 1.7633	 0.5152	 1.8593	 2.3745	62.6867	99.9282	
   827	 0.2671	 1.7091	 1.9762	 0.1643	 1.6125	 1.7768	 0.5274	 1.8776	 2.4051	62.6409	99.9293	
   828	 0.2689	 1.7388	 2.0076	 0.1977	 1.6327	 1.8304	 0.5409	 1.9185	 2.4593	62.5967	99.9295	
   829	 0.3020	 1.7873	 2.0893	 0.2460	 1.6865	 1.9325	 0.5777	 1.9734	 2.5511	62.5526	99.9279	
   830	 0.3238	 1.7717	 2.0955	 0.2445	 1.6610	 1.9055	 0.5584	 1.9291	 2.4875	62.5910	99.9264	
   831	 0.2924	 1.7529	 2.0453	 0.2437	 1.6483	 1.8920	 0.6344	 1.9751	 2.6095	62.6151	99.9359	
   832	 0.3970	 1.7294	 2.1265	 0.3247	 1.5988	 1.9236	 0.7116	 1.9346	 2.6463	62.7089	99.9395	
   833	 0.3299	 1.6175	 1.9474	 0.2416	 1.4993	 1.7409	 0.6427	 1.8057	 2.4484	62.8457	99.9371	
   834	 0.2383	 1.4766	 1.7149	 0.1064	 1.3930	 1.4994	 0.5117	 1.6829	 2.1946	62.7366	99.9348	
   835	 0.0970	 1.3921	 1.4891	-0.0332	 1.3209	 1.2877	 0.3889	 1.6085	 1.9975	62.7325	99.9345	
   836	-0.0285	 1.3169	 1.2884	-0.1476	 1.2394	 1.0918	 0.2773	 1.5301	 1.8073	62.7756	99.9348	
   837	-0.0948	 1.2199	 1.1251	-0.1891	 1.0789	 0.8899	 0.1480	 1.4410	 1.5890	62.6139	99.9400	
   838	-0.2082	 1.2237	 1.0156	-0.2953	 1.0270	 0.7317	 0.0574	 1.4406	 1.4980	62.6125	99.9493	
   839	-0.3651	 1.1298	 0.7647	-0.4883	 0.8118	 0.3235	-0.2192	 1.2405	 1.0213	62.7173	99.9548	
   840	-0.5822	 1.1720	 0.5898	-0.5671	 1.0102	 0.4431	-0.0690	 1.5167	 1.4477	62.5554	99.9591	
   841	-0.1724	 1.3169	 1.1445	-0.1564	 1.1971	 1.0406	 0.4077	 1.5327	 1.9404	63.4409	99.9451	
   842	-0.2762	 1.0970	 0.8208	-0.3027	 0.8995	 0.5969	 0.0218	 1.1902	 1.2120	63.3334	99.9326	
   843	-0.7026	 0.9278	 0.2252	-0.8582	 0.7726	-0.0856	-0.6121	 1.0899	 0.4778	62.2947	99.9325	
   844	-0.7793	 0.9106	 0.1313	-0.8716	 0.7646	-0.1070	-0.6057	 1.1047	 0.4990	62.3601	99.9327	
   845	-0.6720	 0.9317	 0.2597	-0.7550	 0.7736	 0.0186	-0.4858	 1.1227	 0.6369	62.4669	99.9344	
   846	-0.6503	 0.9161	 0.2658	-0.8032	 0.7198	-0.0835	-0.5753	 1.0359	 0.4606	62.4878	99.9341	
   847	-0.8133	 0.7181	-0.0953	-0.9993	 0.5643	-0.4350	-0.6846	 1.0024	 0.3178	62.0079	99.9499	
   848	-0.7296	 0.8542	 0.1246	-0.8054	 0.6815	-0.1239	-0.4525	 1.1102	 0.6578	62.4865	99.9482	
   849	-0.8700	 0.7845	-0.0854	-1.0008	 0.6495	-0.3513	-0.6343	 1.0982	 0.4639	62.0826	99.9505	
   850	-0.9703	 0.7532	-0.2170	-1.0780	 0.6520	-0.4261	-0.6747	 1.0847	 0.4100	62.1401	99.9479	
   851	-1.0775	 0.7320	-0.3455	-1.1501	 0.6330	-0.5171	-0.7443	 1.0535	 0.3092	62.2386	99.9453	
   852	-1.1237	 0.7187	-0.4050	-1.1709	 0.6081	-0.5627	-0.8033	 1.0068	 0.2035	62.3278	99.9405	
   853	-1.2257	 0.6577	-0.5681	-1.2860	 0.5139	-0.7720	-0.9746	 0.8705	-0.1042	62.4471	99.9353	
   854	-1.4943	 0.4682	-1.0261	-1.6580	 0.3258	-1.3322	-1.3863	 0.5778	-0.8085	62.4891	99.9253	
   855	-1.8527	 0.2967	-1.5560	-1.9729	 0.1231	-1.8499	-1.6640	 0.3552	-1.3088	62.8807	99.9256	
   856	-1.9869	 0.3311	-1.6558	-2.0650	 0.2027	-1.8624	-1.7482	 0.4786	-1.2696	62.4906	99.9256	
   857	-1.8431	 0.4603	-1.3828	-1.9797	 0.3404	-1.6393	-1.6178	 0.5902	-1.0277	62.4967	99.9280	
   858	-1.6329	 0.5574	-1.0756	-1.7866	 0.4449	-1.3417	-1.3296	 0.6884	-0.6412	62.7744	99.9341	
   859	-1.3617	 0.6623	-0.6994	-1.4486	 0.4894	-0.9593	-1.0184	 0.6805	-0.3379	63.4823	99.9284	
   860	-1.2755	 0.4558	-0.8197	-1.4314	 0.2291	-1.2023	-1.0675	 0.3893	-0.6782	63.7565	99.9276	
   861	-1.0366	 0.5270	-0.5095	-1.1470	 0.3519	-0.7951	-0.7786	 0.4987	-0.2799	63.8251	99.9204	
   862	-0.6738	 0.6438	-0.0301	-0.8945	 0.4801	-0.4145	-0.6026	 0.6161	 0.0135	63.4138	99.9184	
   863	-0.5021	 0.7322	 0.2302	-0.7207	 0.5852	-0.1356	-0.4032	 0.7477	 0.3445	63.3300	99.9222	
   864	-0.3538	 0.8066	 0.4528	-0.5514	 0.6138	 0.0624	-0.2863	 0.8185	 0.5322	63.2824	99.9263	
   865	-0.3704	 0.7824	 0.4120	-0.5714	 0.6016	 0.0302	-0.2921	 0.8149	 0.5228	63.2349	99.9274	
   866	-0.3713	 0.7675	 0.3962	-0.5529	 0.5883	 0.0354	-0.2412	 0.8130	 0.5718	63.3430	99.9299	
   867	-0.3495	 0.7519	 0.4024	-0.5417	 0.5581	 0.0164	-0.2371	 0.7828	 0.5457	63.3893	99.9310	
   868	-0.3748	 0.7080	 0.3332	-0.5825	 0.5211	-0.0614	-0.2675	 0.7426	 0.4751	63.3870	99.9315	
   869	-0.3922	 0.6689	 0.2767	-0.6226	 0.4969	-0.1258	-0.3032	 0.7102	 0.4070	63.3336	99.9307	
   870	-0.4393	 0.6407	 0.2014	-0.6828	 0.4605	-0.2223	-0.3728	 0.6789	 0.3062	63.2776	99.9318	
   871	-0.4864	 0.6125	 0.1261	-0.7296	 0.4322	-0.2974	-0.4137	 0.6542	 0.2405	63.2763	99.9325	
   872	-0.4951	 0.5930	 0.0978	-0.7303	 0.4194	-0.3109	-0.3804	 0.6417	 0.2613	63.3823	99.9339	
   873	-0.4899	 0.5530	 0.0632	-0.7199	 0.3765	-0.3434	-0.3646	 0.6185	 0.2540	63.3847	99.9363	
   874	-0.5300	 0.5147	-0.0153	-0.7615	 0.3268	-0.4347	-0.4020	 0.5523	 0.1503	63.5300	99.9357	
   875	-0.5832	 0.3824	-0.2008	-0.8327	 0.2099	-0.6229	-0.4341	 0.3694	-0.0647	63.9244	99.9305	
   876	-0.7541	 0.1797	-0.5744	-0.9909	-0.0703	-1.0612	-0.6977	 0.0900	-0.6078	64.1009	99.9285	
   877	-1.1387	 0.0786	-1.0600	-1.3845	-0.0747	-1.4592	-1.0726	 0.1791	-0.8936	63.0914	99.9329	
   878	-1.1151	 0.2218	-0.8932	-1.2212	 0.0733	-1.1478	-0.8113	 0.3046	-0.5067	63.7311	99.9304	
   879	-0.8875	 0.3581	-0.5294	-1.0385	 0.2207	-0.8178	-0.5844	 0.4201	-0.1643	63.8390	99.9313	
   880	-0.7593	 0.3487	-0.4106	-0.9189	 0.1700	-0.7488	-0.4598	 0.3102	-0.1495	64.3836	99.9286	
   881	-0.7576	 0.1202	-0.6374	-0.8801	-0.1633	-1.0434	-0.4188	 0.0082	-0.4106	65.0802	99.9382	
   882	-0.7402	 0.0303	-0.7100	-0.8133	-0.2335	-1.0468	-0.3480	-0.0471	-0.3951	65.1841	99.9364	
   883	-0.6121	 0.0209	-0.5912	-0.6825	-0.2037	-0.8862	-0.2217	-0.0142	-0.2359	65.0877	99.9336	
   884	-0.5179	 0.0773	-0.4406	-0.6009	-0.1297	-0.7305	-0.1170	 0.0382	-0.0788	65.1399	99.9321	
   885	-0.4621	 0.1250	-0.3371	-0.5311	-0.0383	-0.5693	-0.0123	 0.0907	 0.0783	65.2433	99.9261	
   886	-0.3199	 0.2245	-0.0955	-0.4100	 0.0473	-0.3628	 0.0859	 0.1283	 0.2142	65.3904	99.9212	
   887	-0.2432	 0.2417	-0.0015	-0.3840	 0.0507	-0.3334	 0.0742	 0.1212	 0.1955	65.2870	99.9209	
   888	-0.2833	 0.2033	-0.0800	-0.4509	 0.0102	-0.4406	-0.0123	 0.0907	 0.0783	65.1342	99.9220	
   889	-0.3226	 0.1798	-0.1427	-0.4910	-0.0140	-0.5050	-0.0421	 0.0617	 0.0196	65.1837	99.9222	
   890	-0.3391	 0.1556	-0.1836	-0.4932	-0.0523	-0.5454	-0.0491	 0.0357	-0.0135	65.2337	99.9238	
   891	-0.3173	 0.1399	-0.1774	-0.4553	-0.0662	-0.5215	 0.0234	 0.0142	 0.0376	65.4357	99.9244	
   892	-0.2738	 0.1087	-0.1651	-0.4256	-0.1098	-0.5353	 0.0369	-0.0539	-0.0171	65.5835	99.9220	
   893	-0.3488	-0.0080	-0.3567	-0.4998	-0.2777	-0.7775	-0.1111	-0.1762	-0.2872	65.4787	99.9261	
   894	-0.4150	-0.1050	-0.5201	-0.5436	-0.3657	-0.9092	-0.1654	-0.2418	-0.4072	65.4284	99.9261	
   895	-0.4011	-0.1254	-0.5264	-0.5064	-0.3924	-0.8988	-0.1327	-0.2655	-0.3982	65.5296	99.9256	
   896	-0.3566	-0.1418	-0.4984	-0.4618	-0.4024	-0.8642	-0.0882	-0.2822	-0.3704	65.5801	99.9243	
   897	-0.3261	-0.1379	-0.4640	-0.4359	-0.3989	-0.8348	-0.0490	-0.2912	-0.3402	65.6808	99.9240	
   898	-0.2895	-0.1590	-0.4485	-0.3980	-0.4129	-0.8109	-0.0157	-0.3037	-0.3194	65.6810	99.9233	
   899	-0.2206	-0.1464	-0.3670	-0.2999	-0.3905	-0.6905	 0.1211	-0.2863	-0.1651	65.8838	99.9233	
   900	-0.1151	-0.1550	-0.2701	-0.1848	-0.4070	-0.5918	 0.2393	-0.3020	-0.0627	66.0342	99.9239	
   901	-0.0846	-0.1511	-0.2357	-0.1462	-0.4083	-0.5544	 0.2785	-0.3109	-0.0325	66.1340	99.9231	
   902	-0.0541	-0.1472	-0.2012	-0.1261	-0.3961	-0.5222	 0.3235	-0.3164	 0.0071	66.2338	99.9227	
   903	-0.0384	-0.1378	-0.1762	-0.0748	-0.4020	-0.4769	 0.3574	-0.3176	 0.0398	66.3335	99.9215	
   904	-0.0157	-0.1385	-0.1543	-0.0615	-0.3940	-0.4554	 0.3855	-0.3224	 0.0631	66.3833	99.9208	
   905	-0.0079	-0.1338	-0.1417	-0.0548	-0.3899	-0.4447	 0.3913	-0.3189	 0.0724	66.3833	99.9208	
   906	 0.0069	-0.1393	-0.1324	-0.0362	-0.4033	-0.4395	 0.4025	-0.3231	 0.0794	66.3833	99.9218	
   907	 0.0287	-0.1550	-0.1262	 0.0210	-0.4179	-0.3969	 0.5259	-0.3465	 0.1794	66.7300	99.9237	
   908	 0.0880	-0.1768	-0.0888	 0.1502	-0.4135	-0.2633	 0.7212	-0.2936	 0.4275	66.8247	99.9286	
   909	 0.2589	-0.1032	 0.1557	 0.3047	-0.3078	-0.0031	 0.8884	-0.2360	 0.6524	66.9218	99.9224	
   910	 0.2798	-0.1337	 0.1461	 0.3017	-0.3588	-0.0571	 0.8715	-0.2354	 0.6361	66.7261	99.9300	
   911	 0.4202	-0.0641	 0.3562	 0.4621	-0.2618	 0.2004	 1.0516	-0.1482	 0.9034	66.7732	99.9274	
   912	 0.3914	-0.1674	 0.2241	 0.4161	-0.3880	 0.0281	 0.9996	-0.2777	 0.7218	66.9214	99.9291	
   913	 0.4464	-0.1345	 0.3119	 0.4852	-0.3094	 0.1758	 1.1077	-0.1578	 0.9499	66.6746	99.9322	
   914	 0.6077	-0.0953	 0.5124	 0.5922	-0.3554	 0.2368	 1.0610	-0.2951	 0.7659	66.9746	99.9206	
   915	 0.2484	-0.1525	 0.0959	 0.2884	-0.3669	-0.0785	 0.7773	-0.3033	 0.4741	66.7773	99.9156	
   916	 0.5606	 0.0056	 0.5662	 0.5223	-0.2254	 0.2969	 0.9797	-0.2244	 0.7553	66.8772	99.9112	
   917	 0.6844	 0.0511	 0.7355	 0.5958	-0.1809	 0.4149	 1.0504	-0.1707	 0.8797	66.7291	99.9149	
   918	 0.6304	 0.0330	 0.6634	 0.5163	-0.2167	 0.2996	 0.9627	-0.2238	 0.7389	66.7800	99.9148	
   919	 0.5135	-0.0225	 0.4910	 0.4109	-0.2559	 0.1550	 0.8873	-0.2585	 0.6287	66.7797	99.9154	
   920	 0.4909	-0.0218	 0.4691	 0.4116	-0.2431	 0.1685	 0.9001	-0.2289	 0.6712	66.7293	99.9162	
   921	 0.4996	-0.0022	 0.4974	 0.4450	-0.2229	 0.2221	 0.9428	-0.1704	 0.7724	66.6295	99.9204	
   922	 0.5301	 0.0017	 0.5318	 0.4584	-0.2148	 0.2436	 0.9679	-0.1225	 0.8454	66.4322	99.9263	
   923	 0.5292	-0.0132	 0.5161	 0.4703	-0.2322	 0.2381	 0.9697	-0.0888	 0.8809	66.2356	99.9311	
   924	 0.5432	-0.0335	 0.5097	 0.5008	-0.2630	 0.2377	 1.0205	-0.0907	 0.9299	66.2849	99.9356	
   925	 0.4987	-0.1462	 0.3525	 0.4518	-0.4403	 0.0115	 0.9539	-0.2836	 0.6704	66.6787	99.9376	
   926	 0.0409	-0.4633	-0.4224	-0.1074	-0.7416	-0.8490	 0.2739	-0.5099	-0.2360	65.6829	99.9405	
   927	-0.2276	-0.3945	-0.6221	-0.3139	-0.6328	-0.9467	 0.1826	-0.4125	-0.2299	65.7868	99.9408	
   928	 0.0139	-0.2786	-0.2647	 0.0366	-0.4823	-0.4457	 0.6574	-0.3213	 0.3361	66.5790	99.9355	
   929	 0.4490	-0.0899	 0.3591	 0.3626	-0.3097	 0.0530	 0.8983	-0.1537	 0.7446	66.2355	99.9359	
   930	 0.4281	-0.0594	 0.3687	 0.3166	-0.3252	-0.0086	 0.8475	-0.2608	 0.5867	66.7294	99.9300	
   931	 0.1743	-0.2543	-0.0800	 0.1503	-0.5242	-0.3740	 0.7043	-0.4020	 0.3023	66.8273	99.9341	
   932	 0.2057	-0.3646	-0.1589	 0.0931	-0.6203	-0.5272	 0.6072	-0.5261	 0.0811	66.6814	99.9311	
   933	 0.0906	-0.3905	-0.2999	 0.0976	-0.6545	-0.5569	 0.6441	-0.5801	 0.0640	67.1747	99.9262	
   934	 0.2676	-0.4710	-0.2034	 0.1875	-0.7723	-0.5848	 0.6763	-0.7240	-0.0477	67.2804	99.9262	
   935	 0.4385	-0.3974	 0.0411	 0.3917	-0.6980	-0.3063	 0.8500	-0.6516	 0.1984	67.3277	99.9225	
   936	 0.5562	-0.3269	 0.2293	 0.4794	-0.6327	-0.1534	 0.9154	-0.5902	 0.3253	67.2289	99.9225	
   937	 0.6146	-0.2346	 0.3800	 0.5232	-0.5447	-0.0216	 0.9809	-0.5288	 0.4522	67.3277	99.9220	
   938	 0.6242	-0.2001	 0.4241	 0.5001	-0.4972	 0.0030	 0.9762	-0.5098	 0.4664	67.3284	99.9204	
   939	 0.5867	-0.1939	 0.3928	 0.4682	-0.4919	-0.0237	 0.9371	-0.5008	 0.4362	67.2790	99.9201	
   940	 0.5257	-0.2017	 0.3240	 0.4095	-0.5028	-0.0933	 0.8745	-0.5060	 0.3685	67.2299	99.9206	
   941	 0.4716	-0.2198	 0.2519	 0.3560	-0.5351	-0.1791	 0.8061	-0.5147	 0.2913	67.1312	99.9234	
   942	 0.4184	-0.2229	 0.1955	 0.3241	-0.5298	-0.2057	 0.8066	-0.5035	 0.3032	67.1792	99.9247	
   943	 0.4655	-0.1947	 0.2708	 0.3909	-0.4894	-0.0985	 0.8984	-0.4806	 0.4178	67.3258	99.9225	
   944	 0.5344	-0.1822	 0.3522	 0.4243	-0.4692	-0.0448	 0.9154	-0.4812	 0.4342	67.2780	99.9200	
   945	 0.5344	-0.1822	 0.3522	 0.4295	-0.4906	-0.0611	 0.8979	-0.4918	 0.4060	67.2790	99.9212	
   946	 0.4943	-0.2205	 0.2738	 0.3880	-0.5404	-0.1524	 0.8283	-0.5231	 0.3052	67.1811	99.9223	
   947	 0.4315	-0.2581	 0.1734	 0.3397	-0.5942	-0.2545	 0.7581	-0.5655	 0.1926	67.1824	99.9227	
   948	 0.2972	-0.3528	-0.0556	 0.1607	-0.6778	-0.5171	 0.5552	-0.6556	-0.1004	66.9860	99.9212	
   949	 0.1080	-0.4804	-0.3724	-0.0584	-0.7857	-0.8441	 0.3722	-0.7991	-0.4269	67.0889	99.9190	
   950	-0.0324	-0.5501	-0.5825	-0.1720	-0.8545	-1.0264	 0.2986	-0.9090	-0.6105	67.4422	99.9151	
   951	-0.1344	-0.6112	-0.7456	-0.2210	-0.9210	-1.1420	 0.2612	-0.9753	-0.7141	67.6424	99.9137	
   952	-0.0524	-0.6339	-0.6863	-0.1185	-0.9328	-1.0513	 0.4027	-0.9768	-0.5741	67.7873	99.9160	
   953	-0.0394	-0.6691	-0.7084	-0.0954	-0.9804	-1.0758	 0.4518	-1.0124	-0.5606	67.9354	99.9199	
   954	-0.0176	-0.6847	-0.7023	-0.0434	-0.9735	-1.0170	 0.5682	-0.9529	-0.3847	67.8746	99.9274	
   955	 0.0888	-0.6784	-0.5896	 0.0472	-0.9679	-0.9207	 0.6436	-0.9182	-0.2746	67.7244	99.9306	
   956	 0.1664	-0.6463	-0.4799	 0.1467	-0.9200	-0.7733	 0.7717	-0.8516	-0.0799	67.7180	99.9325	
   957	 0.2362	-0.6189	-0.3828	 0.1712	-0.9421	-0.7709	 0.7109	-0.9320	-0.2211	67.8793	99.9261	
   958	 0.1062	-0.6393	-0.5331	 0.0093	-0.9539	-0.9446	 0.5261	-1.0002	-0.4741	67.8883	99.9184	
   959	 0.1254	-0.5704	-0.4450	 0.0917	-0.8672	-0.7755	 0.5939	-0.8938	-0.2999	67.7818	99.9153	
   960	 0.4446	-0.4224	 0.0221	 0.4155	-0.7329	-0.3173	 0.8348	-0.7262	 0.1086	67.5297	99.9147	
   961	 0.6251	-0.3144	 0.3107	 0.5618	-0.6567	-0.0948	 0.9734	-0.6750	 0.2984	67.6803	99.9157	
   962	 0.6713	-0.3011	 0.3702	 0.5826	-0.6318	-0.0492	 1.0020	-0.6686	 0.3335	67.6808	99.9143	
   963	 0.6320	-0.3246	 0.3075	 0.5418	-0.6688	-0.1270	 0.9324	-0.6998	 0.2327	67.6339	99.9140	
   964	 0.5222	-0.3903	 0.1318	 0.4222	-0.7288	-0.3066	 0.7991	-0.7587	 0.0405	67.5370	99.9130	
   965	 0.3914	-0.4256	-0.0342	 0.3361	-0.7686	-0.4325	 0.6962	-0.7774	-0.0812	67.4869	99.9123	
   966	 0.3513	-0.4639	-0.1127	 0.2774	-0.7795	-0.5021	 0.6494	-0.8057	-0.1563	67.4375	99.9095	
   967	 0.2902	-0.4718	-0.1815	 0.2313	-0.7950	-0.5637	 0.6091	-0.8192	-0.2101	67.4877	99.9100	
   968	 0.2737	-0.4960	-0.2224	 0.2113	-0.8072	-0.5959	 0.5968	-0.8375	-0.2407	67.4877	99.9089	
   969	 0.2432	-0.5000	-0.2568	 0.1920	-0.8066	-0.6146	 0.5798	-0.8369	-0.2570	67.4873	99.9081	
   970	 0.2275	-0.5094	-0.2819	 0.1779	-0.8274	-0.6495	 0.5734	-0.8517	-0.2783	67.5375	99.9103	
   971	 0.2344	-0.5195	-0.2851	 0.2165	-0.8286	-0.6121	 0.6816	-0.8407	-0.1591	67.7308	99.9148	
   972	 0.3094	-0.5320	-0.2226	 0.3064	-0.8358	-0.5294	 0.7892	-0.8410	-0.0517	67.8266	99.9159	
   973	 0.3251	-0.5226	-0.1975	 0.3576	-0.8417	-0.4840	 0.8120	-0.8380	-0.0260	67.8758	99.9144	
   974	 0.3242	-0.5375	-0.2133	 0.3502	-0.8585	-0.5083	 0.7886	-0.8522	-0.0636	67.8277	99.9140	
   975	 0.2702	-0.5555	-0.2853	 0.3049	-0.8613	-0.5564	 0.8009	-0.8339	-0.0330	67.8226	99.9191	
   976	 0.3146	-0.5719	-0.2573	 0.3621	-0.8759	-0.5138	 0.8459	-0.8393	 0.0066	67.8215	99.9186	
   977	 0.2606	-0.5899	-0.3294	 0.2967	-0.8908	-0.5941	 0.7933	-0.8712	-0.0778	67.8728	99.9177	
   978	 0.2667	-0.6150	-0.3483	 0.3086	-0.9082	-0.5996	 0.8103	-0.8718	-0.0615	67.8215	99.9192	
   979	 0.1577	-0.6659	-0.5082	 0.1311	-0.9664	-0.8352	 0.6068	-0.9731	-0.3664	67.7829	99.9157	
   980	-0.0394	-0.6691	-0.7084	-0.0405	-0.9225	-0.9630	 0.4512	-0.9147	-0.4635	67.4812	99.9133	
   981	 0.0182	-0.5916	-0.5734	 0.0813	-0.8243	-0.7430	 0.6412	-0.7453	-0.1040	67.3707	99.9224	
   982	 0.3452	-0.4389	-0.0937	 0.5336	-0.6983	-0.1647	 1.1120	-0.6238	 0.4881	67.9462	99.9198	
   983	 0.6460	-0.3449	 0.3011	 0.7683	-0.5441	 0.2242	 1.3926	-0.4540	 0.9387	67.6455	99.9235	
   984	 0.9904	-0.1531	 0.8373	 1.1849	-0.3659	 0.8190	 1.7698	-0.2802	 1.4896	67.8303	99.9184	
   985	 1.0296	-0.2587	 0.7709	 1.0082	-0.6327	 0.3755	 1.3354	-0.6848	 0.6506	68.0775	99.9059	
   986	 0.7602	-0.4630	 0.2972	 0.7402	-0.8072	-0.0670	 1.1606	-0.7797	 0.3809	67.8734	99.9200	
   987	 0.8116	-0.4896	 0.3220	 0.7988	-0.7963	 0.0026	 1.1828	-0.7880	 0.3948	67.7746	99.9114	
   988	 0.8770	-0.4074	 0.4696	 0.8686	-0.7048	 0.1638	 1.2734	-0.6787	 0.5947	67.6706	99.9144	
   989	 0.9058	-0.3041	 0.6017	 0.8961	-0.5652	 0.3308	 1.4125	-0.5073	 0.9052	67.5613	99.9236	
   990	 0.7959	-0.3699	 0.4261	 0.7817	-0.6467	 0.1350	 1.2768	-0.5022	 0.7746	67.1690	99.9332	
   991	 0.5152	-0.5093	 0.0059	 0.5218	-0.7916	-0.2698	 1.0342	-0.5946	 0.4395	67.0224	99.9391	
   992	 0.2126	-0.6330	-0.4204	 0.1720	-0.9294	-0.7574	 0.6968	-0.7661	-0.0693	67.0771	99.9390	
   993	-0.1301	-0.7951	-0.9252	-0.2053	-1.0960	-1.3014	 0.2846	-1.0701	-0.7855	67.4886	99.9228	
   994	-0.3079	-0.8585	-1.1665	-0.2521	-1.1243	-1.3764	 0.2887	-1.1003	-0.8116	67.7801	99.9168	
   995	-0.2269	-0.8961	-1.1229	-0.2053	-1.2067	-1.4120	 0.2729	-1.1861	-0.9132	67.8381	99.9172	
   996	-0.2888	-0.9188	-1.2075	-0.2691	-1.1962	-1.4653	 0.2366	-1.1209	-0.8842	67.4834	99.9232	
   997	-0.0472	-0.8029	-0.8501	-0.0634	-1.0964	-1.1598	 0.4431	-1.0722	-0.6292	67.7334	99.9204	
   998	 0.1420	-0.8044	-0.6624	 0.0443	-1.1296	-1.0853	 0.5203	-1.1127	-0.5924	67.7393	99.9240	
   999	 0.0181	-0.8498	-0.8317	-0.0530	-1.1393	-1.1923	 0.4595	-1.0841	-0.6247	67.5343	99.9268	
  1000	-0.0237	-0.7888	-0.8125	-0.0553	-1.0668	-1.1221	 0.4764	-0.9758	-0.4994	67.3798	99.9295	
  1001	-0.0498	-0.7184	-0.7682	-0.0516	-1.0031	-1.0547	 0.5091	-0.8906	-0.3815	67.3762	99.9331	
  1002	-0.0149	-0.6401	-0.6551	-0.0145	-0.9191	-0.9336	 0.5430	-0.7829	-0.2399	67.1760	99.9350	
  1003	 0.0321	-0.6119	-0.5798	 0.0576	-0.9001	-0.8426	 0.6348	-0.7600	-0.1253	67.3220	99.9363	
  1004	-0.0149	-0.6401	-0.6551	-0.0085	-0.9278	-0.9364	 0.5482	-0.7906	-0.2424	67.2255	99.9355	
  1005	-0.1614	-0.6848	-0.8462	-0.1207	-0.9710	-1.0917	 0.4600	-0.8550	-0.3950	67.4238	99.9329	
  1006	-0.2844	-0.7153	-0.9997	-0.1756	-1.0289	-1.2045	 0.3834	-0.9122	-0.5288	67.6226	99.9305	
  1007	-0.3794	-0.7866	-1.1660	-0.2937	-1.0634	-1.3571	 0.2845	-0.9611	-0.6766	67.5247	99.9282	
  1008	-0.4431	-0.8390	-1.2821	-0.3539	-1.0998	-1.4536	 0.2208	-0.9888	-0.7680	67.4259	99.9275	
  1009	-0.4910	-0.8821	-1.3731	-0.4200	-1.1275	-1.5474	 0.1571	-1.0165	-0.8594	67.3277	99.9272	
  1010	-0.5381	-0.9103	-1.4484	-0.4727	-1.1471	-1.6197	 0.1390	-1.0383	-0.8994	67.3766	99.9288	
  1011	-0.5625	-0.9392	-1.5018	-0.4935	-1.1719	-1.6654	 0.1103	-1.0448	-0.9345	67.2772	99.9299	
  1012	-0.6009	-0.9478	-1.5487	-0.5269	-1.1921	-1.7190	 0.0811	-1.0625	-0.9814	67.3273	99.9310	
  1013	-0.6480	-0.9760	-1.6240	-0.5811	-1.2372	-1.8183	 0.0279	-1.1056	-1.0777	67.3786	99.9329	
  1014	-0.6881	-1.0144	-1.7025	-0.6167	-1.2957	-1.9124	-0.0142	-1.1528	-1.1671	67.4296	99.9349	
  1015	-0.7125	-1.0433	-1.7559	-0.6509	-1.3286	-1.9795	-0.0388	-1.1895	-1.2283	67.4803	99.9358	
  1016	-0.6968	-1.0339	-1.7308	-0.6182	-1.3212	-1.9394	 0.0179	-1.1879	-1.1699	67.6275	99.9361	
  1017	-0.5660	-0.9987	-1.5647	-0.4986	-1.2612	-1.7598	 0.1554	-1.1592	-1.0038	67.7244	99.9326	
  1018	-0.4745	-0.9869	-1.4614	-0.4207	-1.2509	-1.6716	 0.1957	-1.1457	-0.9499	67.6265	99.9313	
  1019	-0.4919	-1.0261	-1.5180	-0.5009	-1.2994	-1.8003	 0.0969	-1.1946	-1.0977	67.4825	99.9335	
  1020	-0.7396	-1.1169	-1.8565	-0.7415	-1.4449	-2.1864	-0.2452	-1.3471	-1.5923	67.4434	99.9296	
  1021	-1.0186	-1.0974	-2.1160	-0.9977	-1.4154	-2.4132	-0.5037	-1.3074	-1.8111	67.1923	99.9285	
  1022	-1.0839	-1.0505	-2.1344	-1.0319	-1.3377	-2.3696	-0.4798	-1.1730	-1.6528	66.9357	99.9350	
  1023	-0.7386	-0.8438	-1.5824	-0.7134	-1.0712	-1.7846	-0.0541	-0.9372	-0.9913	67.0291	99.9356	
  1024	-0.5032	-0.7029	-1.2061	-0.4757	-0.9767	-1.4524	 0.1576	-0.8963	-0.7387	67.4271	99.9317	
  1025	-0.2809	-0.6559	-0.9367	-0.2781	-1.0171	-1.2952	 0.2962	-0.9540	-0.6578	67.7812	99.9339	
  1026	-0.3297	-0.8429	-1.1726	-0.4170	-1.1872	-1.6041	 0.1928	-1.2019	-1.0091	68.0924	99.9298	
  1027	-0.3010	-0.9978	-1.2988	-0.2817	-1.4129	-1.6946	 0.2174	-1.3832	-1.1657	68.3980	99.9282	
  1028	-0.1118	-0.9993	-1.1111	-0.1665	-1.4294	-1.5959	 0.2309	-1.3423	-1.1115	67.8509	99.9325	
  1029	-0.0760	-0.9062	-0.9822	-0.1183	-1.2649	-1.3832	 0.3905	-1.2130	-0.8225	67.9390	99.9301	
  1030	 0.0574	-0.8263	-0.7690	 0.0034	-1.1666	-1.1632	 0.5267	-1.0979	-0.5712	67.7834	99.9323	
  1031	 0.1280	-0.7841	-0.6560	 0.0970	-1.1100	-1.0130	 0.6793	-0.9946	-0.3153	67.7238	99.9391	
  1032	 0.0138	-0.9242	-0.9104	-0.0359	-1.2888	-1.3247	 0.4788	-1.1487	-0.6699	67.6334	99.9409	
  1033	-0.5914	-1.1716	-1.7630	-0.6946	-1.5273	-2.2220	-0.2727	-1.3310	-1.6037	66.7892	99.9421	
  1034	-0.9654	-1.0943	-2.0597	-1.0037	-1.4067	-2.4104	-0.4798	-1.1730	-1.6528	66.5346	99.9461	
  1035	-0.4753	-0.7436	-1.2189	-0.3316	-0.9387	-1.2704	 0.3781	-0.7955	-0.4175	67.3637	99.9326	
  1036	 0.1019	-0.5845	-0.4826	 0.0189	-0.8989	-0.8800	 0.5383	-0.7640	-0.2257	67.0307	99.9387	
  1037	 0.0051	-0.6855	-0.6804	-0.1169	-1.0180	-1.1349	 0.5050	-0.9694	-0.4643	67.7313	99.9386	
  1038	-0.1161	-0.9445	-1.0607	-0.2921	-1.3700	-1.6621	 0.1952	-1.3748	-1.1796	68.1108	99.9333	
  1039	-0.0700	-1.0603	-1.1303	-0.1695	-1.4804	-1.6499	 0.2935	-1.4461	-1.1526	68.2059	99.9322	
  1040	 0.1297	-0.8834	-0.7537	 0.0488	-1.2745	-1.2257	 0.5350	-1.2673	-0.7323	68.2454	99.9279	
  1041	 0.2379	-0.8474	-0.6095	 0.1037	-1.2167	-1.1129	 0.5724	-1.2010	-0.6287	67.9446	99.9285	
  1042	 0.1838	-0.8654	-0.6816	 0.0852	-1.2033	-1.1181	 0.5922	-1.1454	-0.5532	67.7862	99.9318	
  1043	 0.1533	-0.8693	-0.7161	 0.0911	-1.2120	-1.1209	 0.6460	-1.0911	-0.4451	67.7286	99.9405	
  1044	 0.0172	-0.9938	-0.9766	-0.0537	-1.3734	-1.4271	 0.4472	-1.2114	-0.7642	67.5858	99.9442	
  1045	-0.6541	-1.2092	-1.8633	-0.8053	-1.5451	-2.3504	-0.3522	-1.3356	-1.6878	66.5865	99.9458	
  1046	-0.7797	-1.0261	-1.8058	-0.7898	-1.2773	-2.0672	-0.1178	-1.0738	-1.1916	66.9306	99.9465	
  1047	-0.0437	-0.6143	-0.6580	 0.1898	-0.8448	-0.6550	 0.8991	-0.6873	 0.2118	67.8399	99.9334	
  1048	 0.4079	-0.5304	-0.1225	 0.3131	-0.8317	-0.5187	 0.8143	-0.6841	 0.1302	66.9787	99.9388	
  1049	 0.1760	-0.6119	-0.4359	-0.0419	-0.9480	-0.9900	 0.5401	-0.8392	-0.2991	67.1336	99.9466	
  1050	-0.0874	-0.8412	-0.9286	-0.2023	-1.2664	-1.4687	 0.3063	-1.3076	-1.0013	68.4077	99.9279	
  1051	-0.0237	-1.0470	-1.0708	-0.1323	-1.5071	-1.6394	 0.2964	-1.4988	-1.2024	68.4158	99.9305	
  1052	 0.0547	-1.0000	-0.9453	-0.0722	-1.3600	-1.4323	 0.4344	-1.3499	-0.9155	68.0978	99.9291	
  1053	 0.2370	-0.8623	-0.6253	 0.0830	-1.2416	-1.1586	 0.5461	-1.2714	-0.7254	68.1517	99.9245	
  1054	 0.2379	-0.8474	-0.6095	 0.1052	-1.1912	-1.0860	 0.5893	-1.2017	-0.6124	67.9937	99.9244	
  1055	 0.2640	-0.7887	-0.5247	 0.1676	-1.1166	-0.9490	 0.6916	-1.0853	-0.3936	67.8835	99.9292	
  1056	 0.2483	-0.7981	-0.5498	 0.1721	-1.1508	-0.9787	 0.7139	-1.0936	-0.3798	67.9810	99.9342	
  1057	-0.0612	-1.0408	-1.1020	-0.1762	-1.3737	-1.5499	 0.2782	-1.3028	-1.0245	67.5439	99.9298	
  1058	-0.5373	-1.0245	-1.5618	-0.7051	-1.2630	-1.9682	-0.1669	-1.1471	-1.3140	66.6356	99.9351	
  1059	-0.4178	-0.7952	-1.2130	-0.3465	-0.9723	-1.3188	 0.3933	-0.8299	-0.4366	67.2666	99.9361	
  1060	 0.2196	-0.5141	-0.2945	 0.1741	-0.7804	-0.6063	 0.7014	-0.6761	 0.0253	67.0771	99.9309	
  1061	 0.2205	-0.4992	-0.2787	 0.0627	-0.8109	-0.7482	 0.6313	-0.7186	-0.0873	67.1306	99.9402	
  1062	-0.0280	-0.7340	-0.7621	-0.1511	-1.1617	-1.3127	 0.3613	-1.2307	-0.8695	68.4575	99.9255	
  1063	-0.2548	-0.9845	-1.2393	-0.2936	-1.3955	-1.6891	 0.2069	-1.4767	-1.2697	68.7640	99.9174	
  1064	-0.1005	-1.0643	-1.1647	-0.2527	-1.4692	-1.7219	 0.1789	-1.4719	-1.2930	68.0627	99.9270	
  1065	 0.0138	-0.9242	-0.9104	-0.1005	-1.2910	-1.3915	 0.3788	-1.3291	-0.9502	68.2030	99.9215	
  1066	 0.0861	-0.8521	-0.7660	 0.0027	-1.1794	-1.1767	 0.5273	-1.1956	-0.6683	68.0897	99.9228	
  1067	 0.1733	-0.7856	-0.6123	 0.1230	-1.1066	-0.9836	 0.6922	-1.0740	-0.3818	68.0277	99.9297	
  1068	 0.1707	-0.8302	-0.6595	 0.1067	-1.1657	-1.0590	 0.6910	-1.0965	-0.4055	67.9772	99.9364	
  1069	-0.1702	-1.0917	-1.2619	-0.2965	-1.4465	-1.7430	 0.2081	-1.3452	-1.1372	67.5939	99.9384	
  1070	-0.8259	-1.1686	-1.9945	-0.9257	-1.5071	-2.4328	-0.4949	-1.3566	-1.8514	66.7905	99.9362	
  1071	-0.7474	-0.9925	-1.7399	-0.7022	-1.2120	-1.9142	-0.0143	-1.0439	-1.0582	67.1267	99.9395	
  1072	-0.2486	-0.7513	-0.9999	-0.2076	-1.0236	-1.2312	 0.3594	-0.9376	-0.5782	67.4764	99.9274	
  1073	-0.0586	-0.7379	-0.7965	-0.2758	-1.2002	-1.4760	 0.1969	-1.2321	-1.0352	68.0640	99.9341	
  1074	-0.8172	-1.4072	-2.2245	-0.9753	-1.9185	-2.8938	-0.4322	-1.7872	-2.2194	68.1233	99.9550	
  1075	-0.5853	-1.4549	-2.0402	-0.8757	-2.0920	-2.9677	-0.6000	-1.9650	-2.5650	67.8471	99.9532	
  1076	-1.1957	-1.6625	-2.8581	-1.2990	-2.1635	-3.4626	-0.8274	-1.9828	-2.8103	67.8243	99.9527	
  1077	-1.1512	-1.5498	-2.7009	-1.1654	-1.9720	-3.1374	-0.6135	-1.7879	-2.4014	67.8065	99.9490	
  1078	-1.0465	-1.5732	-2.6198	-1.1268	-1.9732	-3.1000	-0.6082	-1.7957	-2.4039	67.5561	99.9476	
  1079	-1.1433	-1.5451	-2.6884	-1.1729	-1.8781	-3.0509	-0.5708	-1.7294	-2.3002	67.6494	99.9428	
  1080	-1.0352	-1.5090	-2.5442	-1.0228	-1.8489	-2.8717	-0.4889	-1.7888	-2.2777	68.0593	99.9275	
  1081	-1.2052	-1.4387	-2.6439	-1.1536	-1.6573	-2.8110	-0.5200	-1.5134	-2.0334	67.2866	99.9325	
  1082	-1.2723	-1.4215	-2.6938	-1.3267	-1.7497	-3.0763	-0.8621	-1.6660	-2.5280	67.2533	99.9275	
  1083	-1.5435	-1.5264	-3.0699	-1.5376	-1.8280	-3.3656	-0.9749	-1.6580	-2.6329	67.0946	99.9386	
  1084	-1.4092	-1.4317	-2.8409	-1.4307	-1.7634	-3.1940	-0.8837	-1.6464	-2.5301	67.3509	99.9354	
  1085	-1.3142	-1.3605	-2.6746	-1.3535	-1.6552	-3.0086	-0.7328	-1.5768	-2.3097	67.4988	99.9340	
  1086	-1.1834	-1.3252	-2.5086	-1.2636	-1.6623	-2.9259	-0.7363	-1.6443	-2.3807	67.6611	99.9261	
  1087	-0.9087	-1.2899	-2.1986	-0.8684	-1.6324	-2.5008	-0.2562	-1.6698	-1.9260	68.6572	99.9204	
  1088	-0.5173	-1.1990	-1.7162	-0.5691	-1.5867	-2.1558	-0.0614	-1.6282	-1.6897	68.5174	99.9211	
  1089	-0.4536	-1.1465	-1.6001	-0.4852	-1.4745	-1.9597	 0.0368	-1.4816	-1.4448	68.1510	99.9205	
  1090	-0.2469	-0.9798	-1.2267	-0.2149	-1.2618	-1.4767	 0.3361	-1.2786	-0.9425	68.1843	99.9149	
  1091	-0.0795	-0.8365	-0.9161	-0.0575	-1.1051	-1.1625	 0.5320	-1.1056	-0.5736	68.0749	99.9194	
  1092	-0.1310	-0.9391	-1.0700	-0.1577	-1.2764	-1.4341	 0.3484	-1.2603	-0.9119	68.0408	99.9232	
  1093	-0.6786	-1.2382	-1.9167	-0.7221	-1.5563	-2.2784	-0.2130	-1.4911	-1.7040	67.6484	99.9278	
  1094	-1.0857	-1.2094	-2.2951	-1.1753	-1.4736	-2.6488	-0.6499	-1.3959	-2.0457	66.9422	99.9278	
  1095	-1.0212	-1.0129	-2.0341	-0.9614	-1.2335	-2.1949	-0.3178	-1.1077	-1.4255	67.0816	99.9313	
  1096	-0.5084	-0.6630	-1.1714	-0.4579	-0.8921	-1.3500	 0.1348	-0.7902	-0.6554	67.0284	99.9270	
  1097	-0.2224	-0.5635	-0.7859	-0.3109	-0.9138	-1.2247	 0.2366	-0.9030	-0.6664	67.5882	99.9295	
  1098	-0.3794	-0.7866	-1.1660	-0.4304	-1.0846	-1.5149	 0.2694	-1.1446	-0.8752	68.3322	99.9252	
  1099	-0.3498	-1.0557	-1.4056	-0.4703	-1.4409	-1.9112	 0.0695	-1.5054	-1.4359	68.4649	99.9238	
  1100	-0.1824	-1.0416	-1.2240	-0.2364	-1.4101	-1.6465	 0.2145	-1.4394	-1.2249	68.2566	99.9174	
  1101	 0.0861	-0.8521	-0.7660	-0.0367	-1.1909	-1.2275	 0.4490	-1.2866	-0.8376	68.3034	99.9129	
  1102	 0.0705	-0.8615	-0.7911	-0.0552	-1.1775	-1.2327	 0.4344	-1.2410	-0.8066	68.0480	99.9155	
  1103	 0.0251	-0.8600	-0.8349	-0.0612	-1.1688	-1.2300	 0.4472	-1.2114	-0.7642	68.0427	99.9169	
  1104	-0.0211	-0.8733	-0.8944	-0.0872	-1.1722	-1.2594	 0.4378	-1.1735	-0.7356	67.8877	99.9214	
  1105	-0.0830	-0.8960	-0.9790	-0.1206	-1.1924	-1.3130	 0.4273	-1.1581	-0.7307	67.8335	99.9256	
  1106	-0.2033	-1.0111	-1.2144	-0.2579	-1.3370	-1.5950	 0.2689	-1.2649	-0.9960	67.7388	99.9314	
  1107	-0.6227	-1.1904	-1.8132	-0.6880	-1.5233	-2.2112	-0.1767	-1.4473	-1.6240	67.5978	99.9314	
  1108	-0.9601	-1.1342	-2.0943	-1.0572	-1.4390	-2.4962	-0.5627	-1.3540	-1.9168	66.9935	99.9303	
  1109	-0.9697	-1.0395	-2.0092	-0.9257	-1.2857	-2.2115	-0.3154	-1.1717	-1.4871	67.1839	99.9305	
  1110	-0.6279	-0.8923	-1.5202	-0.7022	-1.1014	-1.8036	-0.1102	-1.0365	-1.1467	66.9346	99.9264	
  1111	-0.4805	-0.7037	-1.1842	-0.5411	-0.9916	-1.5327	 0.0974	-0.9654	-0.8680	67.5334	99.9308	
  1112	-0.3750	-0.7122	-1.0873	-0.4267	-1.0208	-1.4475	 0.1986	-0.9805	-0.7819	67.6324	99.9329	
  1113	-0.3498	-0.7975	-1.1473	-0.3731	-1.2099	-1.5830	 0.1923	-1.3221	-1.1298	68.8574	99.9177	
  1114	-0.5486	-1.0887	-1.6373	-0.6122	-1.4406	-2.0528	-0.0334	-1.5241	-1.5575	68.5613	99.9186	
  1115	-0.2609	-1.0886	-1.3495	-0.3760	-1.4822	-1.8582	 0.0520	-1.5160	-1.4640	68.1666	99.9202	
  1116	-0.0595	-0.8819	-0.9414	-0.1414	-1.2173	-1.3587	 0.3519	-1.3018	-0.9498	68.3018	99.9124	
  1117	 0.0269	-0.8303	-0.8034	-0.0738	-1.1641	-1.2379	 0.4110	-1.2551	-0.8442	68.2513	99.9119	
  1118	 0.0356	-0.8107	-0.7751	-0.0389	-1.1184	-1.1573	 0.4817	-1.2014	-0.7197	68.2432	99.9121	
  1119	 0.0827	-0.7825	-0.6998	 0.0012	-1.0942	-1.0930	 0.5232	-1.1654	-0.6422	68.1915	99.9145	
  1120	 0.0426	-0.8209	-0.7783	-0.0389	-1.1184	-1.1573	 0.4899	-1.1529	-0.6630	67.9886	99.9183	
  1121	-0.1397	-0.9586	-1.0983	-0.1896	-1.2711	-1.4607	 0.3373	-1.2561	-0.9189	67.9397	99.9236	
  1122	-0.6062	-1.1662	-1.7723	-0.6798	-1.4938	-2.1735	-0.2001	-1.4615	-1.6616	67.6519	99.9241	
  1123	-0.9584	-1.1045	-2.0629	-1.0557	-1.4135	-2.4692	-0.5967	-1.3528	-1.9494	66.9950	99.9254	
  1124	-1.0229	-1.0427	-2.0656	-1.0438	-1.3203	-2.3641	-0.5060	-1.2434	-1.7495	67.0906	99.9267	
  1125	-0.7727	-0.9072	-1.6799	-0.8619	-1.1856	-2.0475	-0.3230	-1.1000	-1.4230	66.8880	99.9312	
  1126	-0.6392	-0.8273	-1.4666	-0.7735	-1.1076	-1.8811	-0.1845	-1.0488	-1.2333	67.0383	99.9337	
  1127	-0.6122	-0.8829	-1.4951	-0.7735	-1.2183	-1.9918	-0.2178	-1.1452	-1.3630	67.1424	99.9384	
  1128	-0.5538	-0.9197	-1.4735	-0.6123	-1.3299	-1.9422	-0.0270	-1.4003	-1.4273	68.6111	99.9253	
  1129	-0.3429	-1.0659	-1.4088	-0.3693	-1.4782	-1.8475	 0.1292	-1.5564	-1.4273	68.8176	99.9169	
  1130	-0.2007	-1.0956	-1.2963	-0.3233	-1.4626	-1.7859	 0.1491	-1.5008	-1.3518	68.2117	99.9210	
  1131	 0.0146	-0.9093	-0.8946	-0.0916	-1.2487	-1.3403	 0.3894	-1.3445	-0.9551	68.3555	99.9117	
  1132	 0.0609	-0.8960	-0.8351	-0.0693	-1.1983	-1.2677	 0.4139	-1.3078	-0.8939	68.2030	99.9081	
  1133	-0.0150	-0.8983	-0.9133	-0.0946	-1.1890	-1.2836	 0.4045	-1.2699	-0.8654	68.1461	99.9094	
  1134	-0.0220	-0.8882	-0.9101	-0.0931	-1.1635	-1.2566	 0.4297	-1.2220	-0.7923	68.0408	99.9123	
  1135	-0.0908	-0.9007	-0.9916	-0.1370	-1.1408	-1.2778	 0.4396	-1.1397	-0.7001	67.7812	99.9195	
  1136	-0.2295	-0.9407	-1.1702	-0.2432	-1.1927	-1.4359	 0.3542	-1.1478	-0.7936	67.7292	99.9255	
  1137	-0.6524	-1.1795	-1.8319	-0.7051	-1.4844	-2.1895	-0.1972	-1.4052	-1.6024	67.4447	99.9287	
  1138	-1.0656	-1.1256	-2.1913	-1.1084	-1.4331	-2.5416	-0.6382	-1.3888	-2.0269	67.1978	99.9214	
  1139	-1.0630	-1.0810	-2.1440	-1.0134	-1.3510	-2.3644	-0.3891	-1.2816	-1.6707	67.5375	99.9278	
  1140	-0.6454	-0.9314	-1.5768	-0.7000	-1.1738	-1.8738	-0.1359	-1.0957	-1.2316	67.0359	99.9278	
  1141	-0.4997	-0.7725	-1.2723	-0.6042	-1.0790	-1.6832	 0.0009	-1.0783	-1.0773	67.5906	99.9290	
  1142	-0.5800	-0.9783	-1.5583	-0.7705	-1.3887	-2.1591	-0.2878	-1.4056	-1.6935	67.7645	99.9306	
  1143	-0.7291	-1.0676	-1.7967	-0.8009	-1.4686	-2.2695	-0.2720	-1.5377	-1.8097	68.4214	99.9211	
  1144	-0.5608	-1.1677	-1.7285	-0.6389	-1.5674	-2.2064	-0.1363	-1.6517	-1.7880	68.6271	99.9176	
  1145	-0.2705	-1.1230	-1.3935	-0.4168	-1.5192	-1.9361	 0.0023	-1.6005	-1.5982	68.3273	99.9152	
  1146	-0.1345	-0.9985	-1.1330	-0.2334	-1.3591	-1.5925	 0.1976	-1.4388	-1.2412	68.2633	99.9112	
  1147	-0.1109	-0.9845	-1.0954	-0.2342	-1.3718	-1.6060	 0.1403	-1.4517	-1.3114	68.1695	99.9104	
  1148	-0.2339	-1.0150	-1.2489	-0.3255	-1.3902	-1.7157	 0.0888	-1.4610	-1.3722	68.2161	99.9118	
  1149	-0.2286	-1.0549	-1.2836	-0.3092	-1.4418	-1.7510	 0.0958	-1.5439	-1.4481	68.4741	99.9074	
  1150	-0.3795	-1.1739	-1.5534	-0.4970	-1.5677	-2.0648	-0.0760	-1.6915	-1.7676	68.5867	99.9080	
  1151	-0.4632	-1.1810	-1.6442	-0.5223	-1.5584	-2.0807	-0.0509	-1.6436	-1.6945	68.5735	99.9124	
  1152	-0.3403	-1.1504	-1.4907	-0.4510	-1.5522	-2.0032	 0.0006	-1.6343	-1.6337	68.5277	99.9162	
  1153	-0.3647	-1.1794	-1.5441	-0.4644	-1.5603	-2.0246	 0.0222	-1.6539	-1.6317	68.6253	99.9149	
  1154	-0.4109	-1.1927	-1.6036	-0.4770	-1.5556	-2.0326	 0.0374	-1.5793	-1.5419	68.3602	99.9225	
  1155	-0.3254	-1.1559	-1.4813	-0.3834	-1.4990	-1.8824	 0.1420	-1.5269	-1.3848	68.3547	99.9209	
  1156	-0.2548	-1.1136	-1.3684	-0.2921	-1.4807	-1.7727	 0.1999	-1.5027	-1.3028	68.4053	99.9203	
  1157	-0.2295	-1.0698	-1.2993	-0.2096	-1.3939	-1.6036	 0.2765	-1.4455	-1.1689	68.4484	99.9097	
  1158	 0.1097	-0.8381	-0.7284	 0.0309	-1.1377	-1.1068	 0.5525	-1.2567	-0.7042	68.4452	99.9070	
  1159	 0.2414	-0.7879	-0.5466	 0.1037	-1.1060	-1.0023	 0.5928	-1.2431	-0.6503	68.4021	99.9069	
  1160	 0.1324	-0.8388	-0.7065	-0.0092	-1.1620	-1.1711	 0.4554	-1.2718	-0.8164	68.2045	99.9091	
  1161	 0.0094	-0.8694	-0.8600	-0.0879	-1.1850	-1.2729	 0.3882	-1.2580	-0.8699	68.0992	99.9118	
  1162	 0.0181	-0.8498	-0.8317	-0.0850	-1.1340	-1.2189	 0.4367	-1.1960	-0.7593	67.9924	99.9142	
  1163	 0.0574	-0.8263	-0.7690	-0.0449	-1.1097	-1.1546	 0.4852	-1.1339	-0.6487	67.8381	99.9195	
  1164	-0.0551	-0.9367	-0.9918	-0.1295	-1.2347	-1.3642	 0.4010	-1.2285	-0.8274	67.8888	99.9229	
  1165	-0.4780	-1.1755	-1.6535	-0.5966	-1.5049	-2.1015	-0.1334	-1.4865	-1.6199	67.6545	99.9237	
  1166	-0.9837	-1.1483	-2.1320	-1.1077	-1.4204	-2.5281	-0.6633	-1.3277	-1.9911	66.5874	99.9264	
  1167	-0.9183	-0.9370	-1.8552	-0.9629	-1.1483	-2.1113	-0.3886	-1.0525	-1.4410	66.6848	99.9274	
  1168	-0.5006	-0.6583	-1.1589	-0.5426	-0.9064	-1.4490	 0.0523	-0.8510	-0.7987	67.0825	99.9275	
  1169	-0.1562	-0.5956	-0.7517	-0.3056	-0.9353	-1.2409	 0.2571	-0.9451	-0.6880	67.5906	99.9301	
  1170	-0.2600	-0.8155	-1.0755	-0.3791	-1.2012	-1.5802	 0.1771	-1.2877	-1.1107	68.4077	99.9226	
  1171	-0.3211	-1.0816	-1.4026	-0.4005	-1.4602	-1.8607	 0.1467	-1.5458	-1.3991	68.7142	99.9193	
  1172	-0.1397	-1.0878	-1.2275	-0.3002	-1.5102	-1.8104	 0.1017	-1.5404	-1.4387	68.1716	99.9234	
  1173	-0.0804	-0.9805	-1.0609	-0.1807	-1.3395	-1.5202	 0.2742	-1.3815	-1.1074	68.1560	99.9178	
  1174	 0.0068	-0.9140	-0.9072	-0.0894	-1.2105	-1.2999	 0.4168	-1.2516	-0.8348	67.9937	99.9164	
  1175	 0.0626	-0.8662	-0.8036	-0.0151	-1.1533	-1.1684	 0.5180	-1.1577	-0.6397	67.8859	99.9212	
  1176	 0.0774	-0.8717	-0.7943	-0.0084	-1.1492	-1.1577	 0.5589	-1.1329	-0.5740	67.8323	99.9257	
  1177	-0.1754	-1.0518	-1.2272	-0.2661	-1.3666	-1.6327	 0.2671	-1.2986	-1.0315	67.6901	99.9321	
  1178	-0.7370	-1.2014	-1.9384	-0.8477	-1.4969	-2.3445	-0.3849	-1.4208	-1.8057	67.0952	99.9271	
  1179	-0.9732	-1.0990	-2.0722	-1.0082	-1.3725	-2.3807	-0.4382	-1.2460	-1.6842	66.9879	99.9348	
  1180	-0.4910	-0.7530	-1.2440	-0.4089	-0.9362	-1.3451	 0.2769	-0.8894	-0.6125	67.5189	99.9218	
  1181	-0.1492	-0.6057	-0.7549	-0.2774	-0.8936	-1.1711	 0.2453	-0.8432	-0.5979	67.0354	99.9294	
  1182	-0.2181	-0.6183	-0.8364	-0.2269	-0.9123	-1.1392	 0.4173	-0.9135	-0.4962	67.9250	99.9266	
  1183	-0.2896	-0.9336	-1.2233	-0.4845	-1.3510	-1.8355	-0.0446	-1.4109	-1.4555	68.0203	99.9237	
  1184	-0.4353	-1.2217	-1.6570	-0.6641	-1.6688	-2.3329	-0.2047	-1.7694	-1.9741	68.5476	99.9237	
  1185	-0.6158	-1.3297	-1.9455	-0.6403	-1.7036	-2.3440	-0.1140	-1.7690	-1.8830	68.7725	99.9167	
  1186	-0.2949	-1.1520	-1.4469	-0.3047	-1.4760	-1.7807	 0.2397	-1.5005	-1.2608	68.4468	99.9188	
  1187	-0.1144	-1.0439	-1.1583	-0.1399	-1.3025	-1.4424	 0.3864	-1.2918	-0.9054	67.8859	99.9174	
  1188	-0.0455	-0.9023	-0.9478	-0.0419	-1.1694	-1.2113	 0.4478	-1.2001	-0.7524	67.9861	99.9089	
  1189	-0.6646	-1.0003	-1.6648	-0.8292	-1.2889	-2.1180	-0.4417	-1.2045	-1.6462	66.4855	99.9251	
  1190	-0.6977	-0.9197	-1.6174	-0.7698	-1.1545	-1.9243	-0.2371	-1.0807	-1.3177	66.8364	99.9253	
  1191	-0.5146	-0.8962	-1.4107	-0.5989	-1.2111	-1.8101	-0.1674	-1.2673	-1.4348	67.6036	99.9092	
  1192	-0.9009	-1.1561	-2.0569	-0.9249	-1.4944	-2.4193	-0.3317	-1.4866	-1.8183	68.0527	99.9273	
  1193	-0.4553	-1.1763	-1.6316	-0.3240	-1.4754	-1.7994	 0.3525	-1.3995	-1.0469	68.5153	99.9311	
  1194	-0.3054	-1.0722	-1.3775	-0.2304	-1.4188	-1.6492	 0.3321	-1.3574	-1.0253	68.3314	99.9282	
  1195	-0.4205	-1.0980	-1.5185	-0.3909	-1.4051	-1.7960	 0.1736	-1.3552	-1.1817	68.0362	99.9259	
  1196	-0.4248	-1.0432	-1.4680	-0.3337	-1.3090	-1.6428	 0.2765	-1.2276	-0.9511	67.9237	99.9267	
  1197	-0.3149	-0.9775	-1.2924	-0.2001	-1.2282	-1.4282	 0.3998	-1.1420	-0.7422	67.8693	99.9244	
  1198	-0.2678	-0.9493	-1.2171	-0.1741	-1.2248	-1.3988	 0.4174	-1.1314	-0.7140	67.8711	99.9276	
  1199	-0.3071	-0.9728	-1.2799	-0.2149	-1.2618	-1.4767	 0.3653	-1.1520	-0.7867	67.8232	99.9298	
  1200	-0.3533	-0.9861	-1.3394	-0.2676	-1.2814	-1.5490	 0.3016	-1.1797	-0.8781	67.8260	99.9289	
  1201	-0.4414	-1.0675	-1.5089	-0.3835	-1.3883	-1.7718	 0.1332	-1.2598	-1.1266	67.6339	99.9315	
  1202	-0.5120	-1.1098	-1.6218	-0.4889	-1.4275	-1.9164	 0.0110	-1.3228	-1.3119	67.5891	99.9289	
  1203	-0.5190	-1.0996	-1.6186	-0.5090	-1.4396	-1.9486	-0.0358	-1.3512	-1.3870	67.6434	99.9275	
  1204	-0.5268	-1.1043	-1.6311	-0.5417	-1.4471	-1.9888	-0.0773	-1.3872	-1.4645	67.6974	99.9249	
  1205	-0.5425	-1.1137	-1.6562	-0.5684	-1.4633	-2.0317	-0.1229	-1.3930	-1.5159	67.5983	99.9258	
  1206	-0.5800	-1.1075	-1.6875	-0.6011	-1.4707	-2.0718	-0.1580	-1.4142	-1.5722	67.7011	99.9249	
  1207	-0.6105	-1.1114	-1.7219	-0.6397	-1.4695	-2.1092	-0.1867	-1.4207	-1.6073	67.7016	99.9246	
  1208	-0.5879	-1.1122	-1.7000	-0.6130	-1.4533	-2.0663	-0.1288	-1.3965	-1.5253	67.6980	99.9262	
  1209	-0.5111	-1.0949	-1.6060	-0.5417	-1.4471	-1.9888	-0.0767	-1.3759	-1.4527	67.6474	99.9278	
  1210	-0.4806	-1.0910	-1.5716	-0.5409	-1.4344	-1.9753	-0.0767	-1.3759	-1.4527	67.5983	99.9269	
  1211	-0.4806	-1.0910	-1.5716	-0.5535	-1.4297	-1.9832	-0.0826	-1.3795	-1.4620	67.5988	99.9267	
  1212	-0.4876	-1.0808	-1.5684	-0.5535	-1.4297	-1.9832	-0.0990	-1.3676	-1.4665	67.5486	99.9274	
  1213	-0.4876	-1.0808	-1.5684	-0.5602	-1.4337	-1.9940	-0.1107	-1.3747	-1.4853	67.5495	99.9273	
  1214	-0.5024	-1.0754	-1.5778	-0.5795	-1.4331	-2.0127	-0.1335	-1.3776	-1.5110	67.5505	99.9273	
  1215	-0.5251	-1.0746	-1.5997	-0.6115	-1.4278	-2.0393	-0.1621	-1.3840	-1.5461	67.5514	99.9262	
  1216	-0.5634	-1.0832	-1.6466	-0.6516	-1.4521	-2.1037	-0.2153	-1.4271	-1.6424	67.6560	99.9243	
  1217	-0.6881	-1.1435	-1.8316	-0.7860	-1.5457	-2.3317	-0.3597	-1.5908	-1.9505	68.0741	99.9180	
  1218	-0.9907	-1.3963	-2.3871	-1.1075	-1.7525	-2.8600	-0.6164	-1.7352	-2.3516	67.7667	99.9269	
  1219	-1.0544	-1.4488	-2.5032	-1.1982	-1.7581	-2.9562	-0.6088	-1.6979	-2.3068	67.5556	99.9357	
  1220	-1.1398	-1.3565	-2.4963	-1.1551	-1.6828	-2.8379	-0.5381	-1.6442	-2.1823	68.0046	99.9308	
  1221	-0.8459	-1.1232	-1.9691	-0.7875	-1.4605	-2.2480	-0.2744	-1.3648	-1.6392	67.6429	99.9283	
  1222	-0.6829	-1.0543	-1.7372	-0.6397	-1.3588	-1.9985	-0.1382	-1.2497	-1.3878	67.3881	99.9274	
  1223	-0.7753	-1.0809	-1.8562	-0.6925	-1.3784	-2.0709	-0.1663	-1.2448	-1.4111	67.3853	99.9294	
  1224	-0.8154	-1.1193	-1.9347	-0.7192	-1.3946	-2.1138	-0.1510	-1.2792	-1.4303	67.5334	99.9278	
