OxySoft export of:	C:\Users\TO3 TechSupport\Documents\Train2Adapt\T2A_04
Export date:	2022/09/15 09:31:18
Start of measurement:	2022-09-15 08:24:06.851

Datafile sample rate:	10.00	Hz
Datafile duration:	3463.300	s
Datafile total number of samples:	34633

Description:	

Optode-template:	PortaMon TSI Fit Factor
Optode distance (mm):	 35.00
Optode gradients (mm):	 5.00
DPF:	6.20

Device id:	334
# Receivers:	1
# Light sources:	6
# ADC:	2

Light source wavelengths:
device	index	wavelength
1	1	849	nm
1	2	759	nm
1	3	846	nm
1	4	757	nm
1	5	848	nm
1	6	757	nm

Export sample rate:	10.00	Hz
Selected time span:	0	3463.300
Selected time span (sample numbers):	0	34633


Legend:
Column	Trace (Measurement)
1	(Sample number)
2	Rx1-Tx1 O2Hb (T2A_04)
3	Rx1-Tx1 HHb (T2A_04)
4	Rx1-Tx1 tHb (T2A_04)
5	Rx1-Tx2 O2Hb (T2A_04)
6	Rx1-Tx2 HHb (T2A_04)
7	Rx1-Tx2 tHb (T2A_04)
8	Rx1-Tx3 O2Hb (T2A_04)
9	Rx1-Tx3 HHb (T2A_04)
10	Rx1-Tx3 tHb (T2A_04)
11	Rx1-Tx1,Tx2,Tx3 TSI% (T2A_04)
12	Rx1-Tx1,Tx2,Tx3 TSI Fit Factor (T2A_04)
13	(Event)


1	2	3	4	5	6	7	8	9	10	11	12	13
     0	123.0368	63.4737	186.5105	98.1174	53.1249	151.2423	78.6606	48.1700	126.8304	11.5652	98.7634	
     1	 0.1169	 0.1019	 0.2188	 0.0948	 0.0973	 0.1921	 0.0046	 0.1731	 0.1776	68.3590	99.9737	
     2	 0.1005	 0.0918	 0.1923	 0.0744	 0.0976	 0.1720	 0.0093	 0.1534	 0.1626	68.4423	99.9739	
     3	 0.0687	 0.0872	 0.1559	 0.0602	 0.0889	 0.1491	-0.0152	 0.1380	 0.1226	68.4852	99.9750	
     4	 0.0287	 0.0776	 0.1063	 0.0184	 0.0761	 0.0945	-0.0520	 0.1148	 0.0627	68.5291	99.9751	
     5	 0.0677	 0.0716	 0.1393	 0.0727	 0.0707	 0.1434	 0.0187	 0.1139	 0.1326	68.6086	99.9748	
     6	 0.1549	 0.0803	 0.2352	 0.1278	 0.0788	 0.2066	 0.0711	 0.1014	 0.1725	68.6535	99.9748	
     7	 0.1375	 0.0546	 0.1921	 0.0994	 0.0612	 0.1607	 0.0459	 0.0742	 0.1200	68.6554	99.9751	
     8	 0.0821	 0.0505	 0.1325	 0.0710	 0.0437	 0.1148	 0.0105	 0.0747	 0.0850	68.6544	99.9749	
     9	 0.0657	 0.0404	 0.1060	 0.0568	 0.0350	 0.0918	-0.0141	 0.0593	 0.0451	68.6563	99.9757	
    10	 0.0339	 0.0358	 0.0697	 0.0355	 0.0219	 0.0574	-0.0155	 0.0357	 0.0200	68.7817	99.9754	
    11	 0.0031	 0.0468	 0.0499	 0.0159	 0.0357	 0.0516	-0.0202	 0.0554	 0.0351	68.7787	99.9751	
    12	-0.0051	 0.0418	 0.0367	-0.0046	 0.0360	 0.0314	-0.0318	 0.0595	 0.0276	68.7367	99.9744	
    13	 0.0739	 0.0454	 0.1193	 0.0852	 0.0525	 0.1377	 0.0744	 0.0581	 0.1324	68.8578	99.9753	
    14	 0.1529	 0.0491	 0.2019	 0.1466	 0.0515	 0.1981	 0.1214	 0.0536	 0.1748	68.8598	99.9753	
    15	 0.1057	 0.0500	 0.1557	 0.1119	 0.0431	 0.1550	 0.0914	 0.0461	 0.1374	68.9018	99.9751	
    16	 0.0811	 0.0348	 0.1159	 0.0844	 0.0390	 0.1234	 0.0675	 0.0425	 0.1099	68.8598	99.9753	
    17	 0.0729	 0.0298	 0.1027	 0.0835	 0.0256	 0.1091	 0.0668	 0.0307	 0.0974	68.9018	99.9751	
    18	 0.0411	 0.0252	 0.0663	 0.0560	 0.0215	 0.0775	 0.0600	 0.0150	 0.0749	68.9848	99.9750	
    19	 0.0093	 0.0206	 0.0299	 0.0150	 0.0222	 0.0372	 0.0130	 0.0195	 0.0325	68.9028	99.9750	
    20	 0.0000	-0.0000	 0.0000	-0.0000	-0.0000	-0.0000	 0.0000	 0.0000	-0.0000	68.9039	99.9746	
    21	 0.0483	 0.0146	 0.0629	 0.0827	 0.0121	 0.0948	 0.0947	 0.0028	 0.0973	69.0655	99.9755	
    22	 0.1273	 0.0183	 0.1455	 0.1370	 0.0067	 0.1437	 0.1362	 0.0062	 0.1423	69.0257	99.9745	
    23	 0.0872	 0.0087	 0.0959	 0.0827	 0.0121	 0.0948	 0.0831	 0.0068	 0.0898	68.9438	99.9748	
    24	 0.0554	 0.0041	 0.0595	 0.0818	-0.0014	 0.0805	 0.0824	-0.0050	 0.0773	69.0257	99.9753	
    25	 0.0472	-0.0010	 0.0463	 0.0543	-0.0054	 0.0489	 0.0755	-0.0206	 0.0548	69.0688	99.9745	
    26	 0.0308	-0.0111	 0.0198	 0.0330	-0.0185	 0.0144	 0.0340	-0.0240	 0.0099	68.9879	99.9746	
    27	-0.0092	-0.0207	-0.0299	 0.0188	-0.0273	-0.0085	 0.0156	-0.0356	-0.0201	69.0289	99.9757	
    28	-0.0410	-0.0253	-0.0663	-0.0096	-0.0448	-0.0544	-0.0314	-0.0310	-0.0625	68.9469	99.9750	
    29	-0.0010	-0.0157	-0.0166	 0.0392	-0.0276	 0.0116	 0.0741	-0.0442	 0.0298	69.1914	99.9748	
    30	 0.0852	-0.0226	 0.0626	 0.1140	-0.0334	 0.0806	 0.1041	-0.0367	 0.0673	69.0688	99.9755	
    31	 0.0380	-0.0217	 0.0164	 0.0793	-0.0418	 0.0375	 0.0741	-0.0442	 0.0298	69.1108	99.9754	
    32	 0.0062	-0.0262	-0.0200	 0.0384	-0.0411	-0.0027	 0.0496	-0.0596	-0.0102	69.1539	99.9754	
    33	 0.0062	-0.0262	-0.0200	 0.0384	-0.0411	-0.0027	 0.0496	-0.0596	-0.0102	69.1539	99.9754	
    34	 0.0124	-0.0524	-0.0400	 0.0304	-0.0590	-0.0285	 0.0373	-0.0673	-0.0301	69.0709	99.9750	
    35	-0.0194	-0.0570	-0.0764	 0.0020	-0.0765	-0.0744	 0.0175	-0.1025	-0.0851	69.1993	99.9751	
    36	-0.0440	-0.0722	-0.1162	-0.0255	-0.0805	-0.1060	-0.0118	-0.0982	-0.1101	69.1152	99.9751	
    37	-0.0820	-0.0505	-0.1325	-0.0318	-0.0714	-0.1032	-0.0158	-0.0667	-0.0826	69.1108	99.9746	
    38	 0.0226	-0.0161	 0.0065	 0.0676	-0.0101	 0.0575	 0.1409	-0.0136	 0.1272	69.1824	99.9735	
    39	 0.1119	 0.0238	 0.1357	 0.1591	 0.0333	 0.1924	 0.2153	 0.0445	 0.2596	69.0955	99.9737	
    40	 0.0883	 0.0243	 0.1125	 0.1378	 0.0201	 0.1580	 0.1784	 0.0214	 0.1997	69.1417	99.9743	
    41	 0.0472	-0.0010	 0.0463	 0.0873	-0.0240	 0.0633	 0.1102	-0.0329	 0.0773	69.1914	99.9745	
    42	 0.0022	-0.0887	-0.0865	 0.0049	-0.1395	-0.1345	 0.0028	-0.2479	-0.2453	69.5942	99.9776	
    43	-0.2376	-0.3864	-0.6240	-0.3616	-0.6502	-1.0119	-0.6006	-0.8541	-1.4548	70.1294	99.9795	
    44	-0.7122	-0.9036	-1.6158	-1.0900	-1.2673	-2.3573	-1.3350	-1.5766	-2.9117	70.5895	99.9733	
    45	-1.3426	-1.6366	-2.9792	-2.0868	-2.4643	-4.5510	-2.7371	-2.9909	-5.7281	72.0333	99.9702	
    46	-2.4816	-2.6828	-5.1644	-3.4648	-3.5334	-6.9982	-4.0271	-4.0172	-8.0443	71.9996	99.9522	
    47	-3.2115	-3.3722	-6.5837	-4.4416	-4.0833	-8.5250	-4.9127	-4.3127	-9.2255	70.1358	99.9217	
    48	-3.2527	-3.1576	-6.4103	-4.3155	-4.0315	-8.3470	-5.0592	-4.5863	-9.6456	71.8134	99.9623	
    49	-4.6653	-4.6572	-9.3225	-6.2678	-5.7653	-12.0330	-7.3193	-6.4264	-13.7459	72.0249	99.9486	
    50	-7.0781	-6.2776	-13.3558	-8.7318	-6.9464	-15.6783	-9.3517	-7.1362	-16.4880	68.8116	99.9036	
    51	-7.2025	-6.0092	-13.2118	-8.5951	-6.6161	-15.2111	-9.1717	-6.7961	-15.9679	68.9210	99.9223	
    52	-7.0068	-5.7837	-12.7905	-8.4575	-6.2723	-14.7297	-8.9224	-6.4806	-15.4031	68.5268	99.9224	
    53	-6.5355	-5.0735	-11.6090	-7.8636	-5.6214	-13.4850	-8.2940	-5.9495	-14.2437	69.3214	99.9338	
    54	-5.8623	-4.0441	-9.9064	-6.9693	-4.6430	-11.6123	-7.1128	-4.8668	-11.9797	69.7340	99.9139	
    55	-5.1510	-3.1562	-8.3072	-5.9046	-3.7799	-9.6845	-5.9852	-3.9880	-9.9733	70.3326	99.9278	
    56	-4.4938	-2.6166	-7.1104	-4.9540	-3.1036	-8.0577	-4.9991	-3.3002	-8.2994	70.3449	99.9489	
    57	-3.9248	-2.1013	-6.0261	-4.1283	-2.3489	-6.4771	-4.1287	-2.3788	-6.5075	69.2075	99.9595	
    58	-3.6070	-1.8156	-5.4226	-3.6959	-2.0954	-5.7913	-3.8077	-2.2452	-6.0530	69.7438	99.9739	
    59	-3.4339	-1.5740	-5.0078	-3.4338	-1.7267	-5.1605	-3.3747	-1.7234	-5.0982	69.0890	99.9670	
    60	-2.5612	-0.9918	-3.5530	-2.4643	-0.8575	-3.3218	-2.1344	-0.4447	-2.5792	67.2225	99.9464	
    61	-1.6368	 0.1474	-1.4894	-1.1327	 0.7789	-0.3539	-0.4094	 1.3315	 0.9220	66.2311	99.9598	
    62	-1.8143	 0.2031	-1.6113	-1.3534	 0.5264	-0.8271	-0.9450	 0.8701	-0.0750	67.1352	99.9698	
    63	-1.8892	 0.1420	-1.7472	-1.5410	 0.4756	-1.0654	-1.1274	 0.8803	-0.2472	66.6508	99.9631	
    64	-2.1253	 0.2667	-1.8587	-1.8032	 0.6508	-1.1523	-1.2938	 1.2524	-0.0415	65.6750	99.9482	
    65	-2.1667	 0.6012	-1.5655	-1.6639	 1.0216	-0.6423	-1.0770	 1.6156	 0.5385	65.8365	99.9542	
    66	-1.9641	 0.2009	-1.7633	-1.3025	 0.4671	-0.8354	-0.6777	 0.7998	 0.1220	68.2018	99.9658	
    67	-1.3677	-0.0770	-1.4447	-0.9978	 0.0978	-0.9000	-0.7072	 0.2138	-0.4936	68.5565	99.9763	
    68	-1.2547	-0.1575	-1.4122	-1.0317	-0.1174	-1.1492	-0.9270	-0.0038	-0.9309	68.4737	99.9741	
    69	-1.3357	-0.3123	-1.6479	-1.1237	-0.2777	-1.4014	-1.0288	-0.1244	-1.1533	68.3942	99.9720	
    70	-1.4269	-0.3835	-1.8104	-1.2035	-0.3528	-1.5563	-1.0894	-0.1512	-1.2407	68.3078	99.9690	
    71	-1.3778	-0.2332	-1.6110	-1.0585	-0.1080	-1.1665	-0.8307	 0.1249	-0.7059	68.1940	99.9698	
    72	-1.2075	-0.1584	-1.3660	-0.8755	-0.0212	-0.8966	-0.6357	 0.2247	-0.4112	68.1855	99.9696	
    73	-1.0619	-0.0988	-1.1606	-0.7760	 0.0401	-0.7360	-0.5133	 0.1995	-0.3139	68.4776	99.9714	
    74	-1.0526	-0.1980	-1.2506	-0.7895	-0.1755	-0.9650	-0.6687	-0.1251	-0.7940	69.0547	99.9768	
    75	-0.8473	-0.1917	-1.0390	-0.5973	 0.0595	-0.5377	-0.1732	 0.3564	 0.1831	68.0370	99.9608	
    76	-1.0661	-0.0413	-1.1074	-0.7625	 0.2556	-0.5069	-0.3325	-0.1295	-0.4621	70.2648	99.9873	
    77	-2.1282	-3.0653	-5.1936	-3.5186	-4.9396	-8.4582	-5.2575	-6.4019	-11.6595	78.5948	99.9946	
    78	-6.1102	-6.5369	-12.6471	-7.9540	-7.5036	-15.4575	-9.0449	-7.9193	-16.9643	70.5541	99.9251	
    79	-7.4284	-6.9433	-14.3717	-8.9661	-7.6348	-16.6009	-9.5790	-7.8691	-17.4483	70.0193	99.9131	
    80	-7.8469	-7.0810	-14.9279	-9.4552	-7.7030	-17.1582	-9.9113	-7.8963	-17.8077	69.5801	99.8969	
    81	-7.9177	-7.0795	-14.9973	-9.5229	-7.6928	-17.2157	-9.9698	-7.8877	-17.8576	69.5261	99.8973	
    82	-7.9832	-7.2399	-15.2231	-9.5731	-7.8403	-17.4134	-10.0881	-8.0869	-18.1751	69.7103	99.9107	
    83	-7.6767	-7.0061	-14.6828	-9.0020	-7.5533	-16.5552	-9.4916	-7.9844	-17.4760	71.0992	99.9455	
    84	-6.2086	-5.6224	-11.8310	-7.2642	-6.3014	-13.5656	-7.6641	-6.5637	-14.2279	71.2755	99.9317	
    85	-4.0562	-3.1572	-7.2134	-4.3550	-3.6802	-8.0352	-4.5696	-3.8134	-8.3832	71.0380	99.9583	
    86	-3.1079	-2.2584	-5.3663	-3.3825	-2.6537	-6.0362	-3.5744	-2.7795	-6.3539	70.2435	99.9641	
    87	-2.5493	-1.6595	-4.2087	-2.5781	-1.9120	-4.4901	-2.5808	-1.8714	-4.4523	69.7383	99.9614	
    88	-1.5997	-0.9849	-2.5846	-1.3655	-1.0873	-2.4529	-1.2607	-1.0305	-2.2913	69.8257	99.9716	
    89	-1.0223	-0.7044	-1.7267	-0.7982	-0.7508	-1.5489	-0.5877	-0.8345	-1.4223	70.4222	99.9757	
    90	-1.1926	-1.7543	-2.9470	-1.4595	-2.6997	-4.1592	-2.4593	-3.9626	-6.4220	76.3521	99.9957	
    91	-3.3800	-4.1510	-7.5311	-4.8164	-5.8168	-10.6332	-6.6952	-6.9421	-13.6375	75.7870	99.9920	
    92	-6.4333	-6.6608	-13.0941	-8.1854	-7.4907	-15.6760	-9.0980	-7.9186	-17.0167	70.6072	99.9298	
    93	-7.5594	-7.2640	-14.8234	-9.1324	-7.8927	-17.0252	-9.7110	-8.0996	-17.8108	69.8619	99.9103	
    94	-8.0416	-7.4108	-15.4524	-9.6053	-8.0286	-17.6339	-10.0620	-8.2407	-18.3028	70.0262	99.9023	
    95	-8.2088	-7.4387	-15.6475	-9.7628	-8.0349	-17.7977	-10.1620	-8.2355	-18.3976	69.9635	99.8988	
    96	-8.2108	-7.4700	-15.6808	-9.8338	-8.0787	-17.9125	-10.3010	-8.2888	-18.5899	69.7215	99.8995	
    97	-8.3635	-7.6390	-16.0026	-9.8593	-8.1592	-18.0185	-10.3771	-8.4728	-18.8500	70.1033	99.9297	
    98	-7.4295	-6.8390	-14.2685	-8.6740	-7.4419	-16.1160	-9.1045	-7.8320	-16.9366	71.5222	99.9391	
    99	-4.8985	-4.3658	-9.2642	-5.3516	-4.6569	-10.0085	-5.4040	-4.7235	-10.1276	70.5188	99.9512	
   100	-2.3867	-2.0694	-4.4562	-2.4134	-2.4453	-4.8586	-2.4816	-2.6715	-5.1532	71.6650	99.9735	
   101	-1.9948	-1.9782	-3.9730	-2.2041	-2.4848	-4.6889	-2.4837	-2.7069	-5.1908	71.4362	99.9704	
   102	-1.5857	-1.7413	-3.3269	-1.7067	-2.5022	-4.2089	-2.1861	-3.3483	-5.5344	74.9023	99.9939	
   103	-2.3129	-3.1190	-5.4319	-3.1951	-4.5719	-7.7671	-4.6521	-6.0555	-10.7077	78.3521	99.9981	
   104	-5.0038	-5.7507	-10.7545	-7.0019	-7.0206	-14.0225	-8.5043	-7.8633	-16.3677	72.5676	99.9597	
   105	-7.3050	-7.2274	-14.5324	-8.9616	-7.8911	-16.8527	-9.6727	-8.2457	-17.9185	70.2984	99.9268	
   106	-7.9224	-7.5175	-15.4399	-9.4316	-8.0900	-17.5216	-9.9157	-8.2623	-18.1781	69.8994	99.9082	
   107	-8.1543	-7.5702	-15.7245	-9.6735	-8.1353	-17.8088	-10.0807	-8.3546	-18.4354	70.1746	99.9067	
   108	-8.3369	-7.5926	-15.9295	-9.8539	-8.1817	-18.0357	-10.2536	-8.3838	-18.6376	70.1293	99.9023	
   109	-8.3143	-7.6087	-15.9230	-9.8493	-8.2178	-18.0671	-10.2544	-8.3956	-18.6501	70.0787	99.8969	
   110	-8.2998	-7.7498	-16.0496	-9.7558	-8.2508	-18.0066	-10.2145	-8.5181	-18.7328	70.2377	99.9249	
   111	-7.6117	-7.3412	-14.9529	-8.9829	-7.9043	-16.8872	-9.4549	-8.2564	-17.7114	71.1593	99.9340	
   112	-5.3678	-5.0447	-10.4125	-5.9138	-5.4566	-11.3704	-6.1050	-5.6747	-11.7798	71.5667	99.9581	
   113	-2.5414	-2.3896	-4.9310	-2.5618	-2.7440	-5.3058	-2.5580	-2.9578	-5.5159	71.9301	99.9710	
   114	-1.9660	-2.1404	-4.1064	-2.1935	-2.9705	-5.1640	-2.7475	-3.5536	-6.3011	73.8621	99.9849	
   115	-2.1863	-2.3811	-4.5674	-2.4957	-3.3250	-5.8207	-3.0959	-4.2377	-7.3337	75.6679	99.9921	
   116	-2.7650	-3.5324	-6.2973	-3.6580	-4.7664	-8.4244	-4.8497	-6.1002	-10.9499	77.3248	99.9968	
   117	-4.4605	-5.2662	-9.7267	-6.3722	-6.6716	-13.0439	-7.9270	-7.5913	-15.5184	73.5703	99.9642	
   118	-6.9367	-7.1356	-14.0724	-8.6846	-7.7205	-16.4051	-9.2592	-8.1448	-17.4041	70.5377	99.9230	
   119	-7.9131	-7.6167	-15.5298	-9.4463	-8.2156	-17.6619	-9.9250	-8.4156	-18.3407	70.2377	99.9065	
   120	-8.2075	-7.6630	-15.8705	-9.7111	-8.3010	-18.0122	-10.1037	-8.5392	-18.6430	70.7834	99.9019	
   121	-8.3725	-7.8996	-16.2721	-9.9477	-8.5893	-18.5370	-10.3338	-8.8314	-19.1654	71.0457	99.8913	
   122	-8.2842	-7.9952	-16.2794	-9.8320	-8.5957	-18.4277	-10.2241	-8.7738	-18.9980	70.5240	99.8951	
   123	-8.0166	-7.7555	-15.7720	-9.3582	-8.2261	-17.5843	-9.8201	-8.6334	-18.4536	71.2936	99.9455	
   124	-6.6182	-6.4746	-13.0928	-7.6755	-6.9823	-14.6578	-7.8875	-7.3282	-15.2157	72.0415	99.9376	
   125	-3.9694	-3.7638	-7.7332	-4.2441	-4.0912	-8.3353	-4.2642	-4.1322	-8.3965	71.0126	99.9534	
   126	-1.9579	-2.0154	-3.9733	-1.9670	-2.6236	-4.5906	-2.2274	-3.0565	-5.2841	73.2871	99.9820	
   127	-2.0448	-2.2640	-4.3088	-2.3072	-3.0405	-5.3477	-2.8110	-3.6275	-6.4386	73.7658	99.9843	
   128	-2.2277	-3.1416	-5.3692	-3.1868	-4.6575	-7.8443	-4.5188	-5.6086	-10.1275	76.1968	99.9840	
   129	-4.2033	-4.8229	-9.0262	-5.7004	-6.1930	-11.8933	-7.0663	-7.2207	-14.2871	75.1982	99.9794	
   130	-6.3451	-6.6364	-12.9816	-8.1984	-7.5893	-15.7877	-9.3180	-8.2385	-17.5566	71.5250	99.9487	
   131	-7.9510	-7.7151	-15.6660	-9.4314	-8.4137	-17.8450	-10.0219	-8.7489	-18.7709	71.3308	99.9240	
   132	-8.3796	-8.0089	-16.3885	-9.9044	-8.7698	-18.6742	-10.3045	-9.0286	-19.3331	71.7146	99.8911	
   133	-8.5263	-8.0842	-16.6105	-10.0393	-8.8529	-18.8923	-10.3817	-9.1338	-19.5156	72.0435	99.8885	
   134	-8.4441	-8.1536	-16.5977	-9.9796	-8.8809	-18.8605	-10.3217	-9.1189	-19.4407	71.7022	99.8858	
   135	-8.2666	-8.0894	-16.3560	-9.7001	-8.6699	-18.3699	-10.1258	-8.9049	-19.0308	71.0566	99.9139	
   136	-7.8279	-7.6393	-15.4672	-9.1326	-8.1130	-17.2456	-9.5331	-8.4758	-18.0089	71.3509	99.9398	
   137	-6.1478	-5.8999	-12.0477	-6.9924	-6.4319	-13.4242	-7.1966	-6.8373	-14.0340	72.6398	99.9512	
   138	-3.7297	-3.3462	-7.0759	-3.8984	-3.6969	-7.5954	-3.9406	-3.7586	-7.6992	71.1102	99.9592	
   139	-1.9182	-1.6460	-3.5642	-1.7369	-2.0026	-3.7396	-1.6961	-2.1779	-3.8741	71.9299	99.9739	
   140	-1.2885	-1.2883	-2.5769	-0.9823	-1.5119	-2.4942	-0.7886	-1.6190	-2.4077	71.7387	99.9735	
   141	-0.7550	-1.1999	-1.9550	-0.5651	-1.5010	-2.0661	-0.5645	-1.8187	-2.3833	72.4251	99.9831	
   142	-0.9293	-1.3372	-2.2666	-0.8362	-1.5773	-2.4135	-0.7640	-1.6036	-2.3677	71.0162	99.9664	
   143	-0.6597	-1.0663	-1.7260	-0.3686	-1.1986	-1.5672	-0.1825	-1.2608	-1.4434	71.3006	99.9744	
   144	-0.4680	-0.9032	-1.3712	-0.1593	-1.0178	-1.1771	 0.0135	-1.0469	-1.0336	71.0674	99.9746	
   145	-0.4691	-0.7989	-1.2680	-0.0238	-0.8178	-0.8416	 0.2628	-0.7314	-0.4687	70.6976	99.9725	
   146	-0.1503	-0.4976	-0.6479	 0.5161	-0.2650	 0.2511	 1.0828	-0.0572	 1.0255	70.2603	99.9723	
   147	 0.1266	-0.3571	-0.2305	 0.9502	 0.0154	 0.9656	 1.6120	 0.2980	 1.9099	70.0247	99.9749	
   148	 0.1390	-0.4095	-0.2706	 1.0091	-0.0261	 0.9830	 1.6438	 0.2386	 1.8823	70.1408	99.9782	
   149	 0.1451	-0.4357	-0.2906	 1.0408	 0.0453	 1.0862	 1.7340	 0.3634	 2.0973	69.8010	99.9779	
   150	 0.1390	-0.4095	-0.2706	 1.0755	 0.0537	 1.1293	 1.7362	 0.3987	 2.1348	69.7596	99.9785	
   151	 0.2066	-0.3379	-0.1313	 1.1863	 0.1867	 1.3730	 1.9354	 0.5693	 2.5046	69.6503	99.9771	
   152	 0.4333	-0.2433	 0.1900	 1.4394	 0.3038	 1.7433	 2.1964	 0.6880	 2.8843	69.6718	99.9781	
   153	 0.4907	-0.2080	 0.2827	 1.4937	 0.2984	 1.7922	 2.1950	 0.6644	 2.8592	69.7597	99.9793	
   154	 0.4917	-0.1924	 0.2994	 1.4679	 0.3213	 1.7892	 2.1827	 0.6567	 2.8393	69.8020	99.9795	
   155	 0.4702	-0.1606	 0.3095	 1.4570	 0.3665	 1.8235	 2.1747	 0.7197	 2.8943	69.6815	99.9794	
   156	 0.4752	-0.0825	 0.3927	 1.4842	 0.4739	 1.9581	 2.2295	 0.8450	 3.0744	69.5532	99.9793	
   157	 0.5521	 0.0098	 0.5619	 1.5870	 0.5891	 2.1761	 2.3659	 0.9534	 3.3192	69.5773	99.9798	
   158	 0.7244	 0.1159	 0.8402	 1.7842	 0.6846	 2.4689	 2.5425	 1.0416	 3.5840	69.6466	99.9810	
   159	 0.8126	 0.1402	 0.9527	 1.8419	 0.7331	 2.5750	 2.5515	 1.0927	 3.6440	69.4223	99.9822	
   160	 0.8566	 0.2123	 1.0689	 1.8950	 0.8176	 2.7126	 2.6150	 1.1666	 3.7815	69.4166	99.9828	
   161	 0.8771	 0.2849	 1.1620	 1.9222	 0.9251	 2.8473	 2.6698	 1.2918	 3.9615	69.2534	99.9825	
   162	 0.9704	 0.3873	 1.3577	 2.0054	 1.0540	 3.0594	 2.7484	 1.4207	 4.1690	69.0962	99.9830	
   163	 1.0636	 0.4897	 1.5534	 2.1579	 1.1998	 3.3577	 2.9321	 1.6269	 4.5589	68.8844	99.9826	
   164	 1.2954	 0.6624	 1.9578	 2.4161	 1.3977	 3.8139	 3.2042	 1.8320	 5.0361	68.8308	99.9832	
   165	 1.4255	 0.8475	 2.2730	 2.5712	 1.5839	 4.1551	 3.3475	 1.9560	 5.3035	68.9768	99.9858	
   166	 1.4603	 0.8990	 2.3593	 2.5260	 1.5173	 4.0433	 3.1823	 1.7614	 4.9436	69.3953	99.9882	
   167	 1.4203	 0.8893	 2.3097	 2.3928	 1.4611	 3.8538	 2.9982	 1.6457	 4.6438	69.4627	99.9882	
   168	 1.3105	 0.8967	 2.2073	 2.2566	 1.4679	 3.7245	 2.8453	 1.7539	 4.5992	68.9661	99.9855	
   169	 1.3627	 1.0939	 2.4565	 2.4619	 1.8016	 4.2634	 3.2282	 2.1307	 5.3589	68.8730	99.9857	
   170	 1.4017	 1.0879	 2.4895	 2.4894	 1.8056	 4.2950	 3.2445	 2.1069	 5.3513	68.9135	99.9867	
   171	 1.2397	 0.8982	 2.1379	 2.0794	 1.2551	 3.3345	 2.3679	 1.1816	 3.5495	70.1222	99.9942	
   172	 0.7761	 0.6728	 1.4489	 1.3617	 0.9166	 2.2782	 1.5064	 0.9920	 2.4983	69.1232	99.9885	
   173	 0.9349	 0.9355	 1.8705	 1.5206	 1.2735	 2.7941	 1.8038	 1.2243	 3.0280	69.3774	99.9899	
   174	 0.8949	 0.9259	 1.8208	 1.4291	 1.2301	 2.6592	 1.6193	 1.1991	 2.8183	69.1190	99.9902	
   175	 0.6396	 0.7537	 1.3933	 1.1621	 1.0008	 2.1629	 1.2879	 0.9909	 2.2787	69.1022	99.9901	
   176	 0.3904	 0.5553	 0.9458	 0.8888	 0.7807	 1.6695	 0.9811	 0.7981	 1.7790	68.9988	99.9894	
   177	 0.2428	 0.4644	 0.7072	 0.7146	 0.7252	 1.4398	 0.8341	 0.8078	 1.6418	68.6319	99.9872	
   178	 0.0253	 0.3905	 0.4159	 0.4898	 0.6256	 1.1154	 0.5990	 0.7282	 1.3271	68.5598	99.9862	
   179	-0.0947	 0.3617	 0.2669	 0.3946	 0.6317	 1.0263	 0.5441	 0.7958	 1.3398	68.3069	99.9846	
   180	-0.1759	 0.4467	 0.2708	 0.3780	 0.8028	 1.1808	 0.6013	 1.0588	 1.6600	67.8422	99.9831	
   181	-0.1062	 0.5496	 0.4434	 0.4361	 0.9682	 1.4043	 0.7088	 1.2738	 1.9825	67.4720	99.9813	
   182	 0.0322	 0.7398	 0.7719	 0.6434	 1.2254	 1.8688	 0.9477	 1.5147	 2.4623	67.4202	99.9843	
   183	 0.0084	 0.8602	 0.8686	 0.6507	 1.4500	 2.1007	 1.0493	 1.8282	 2.8774	66.8946	99.9821	
   184	 0.0175	 1.0008	 1.0183	 0.6846	 1.6653	 2.3499	 1.1398	 2.0553	 3.1950	66.6542	99.9825	
   185	 0.0410	 1.1203	 1.1613	 0.8468	 1.8558	 2.7026	 1.3732	 2.3042	 3.6773	66.5672	99.9836	
   186	 0.2769	 1.2355	 1.5124	 1.0644	 1.9511	 3.0155	 1.5575	 2.2270	 3.7844	67.1502	99.9883	
   187	 0.3631	 1.2285	 1.5917	 1.0719	 1.8520	 2.9239	 1.4406	 2.0514	 3.4919	67.3602	99.9898	
   188	 0.2893	 1.1831	 1.4724	 0.8563	 1.6803	 2.5366	 1.0891	 1.7057	 2.7947	67.8272	99.9918	
   189	-0.0543	 0.9866	 0.9323	 0.3528	 1.3832	 1.7360	 0.4974	 1.3907	 1.8880	67.6987	99.9900	
   190	-0.2083	 1.0418	 0.8336	 0.2297	 1.4886	 1.7183	 0.4121	 1.5413	 1.9533	67.3687	99.9896	
   191	-0.2668	 1.1108	 0.8440	 0.1842	 1.5254	 1.7095	 0.3272	 1.6014	 1.9285	67.2496	99.9897	
   192	-0.2833	 1.2206	 0.9373	 0.1746	 1.7009	 1.8755	 0.4032	 1.7854	 2.1885	67.0807	99.9888	
   193	-0.1808	 1.3437	 1.1629	 0.2808	 1.8699	 2.1507	 0.5317	 1.9569	 2.4885	66.9159	99.9890	
   194	-0.1327	 1.4783	 1.3456	 0.3461	 2.0396	 2.3857	 0.6146	 2.1565	 2.7710	66.6724	99.9889	
   195	-0.1769	 1.5261	 1.3492	 0.2755	 2.1127	 2.3883	 0.5365	 2.2323	 2.7687	66.4340	99.9890	
   196	-0.2181	 1.6208	 1.4028	 0.2484	 2.2256	 2.4740	 0.5205	 2.3584	 2.8789	66.2738	99.9890	
   197	-0.2684	 1.6948	 1.4264	 0.2205	 2.3250	 2.5455	 0.4937	 2.5005	 2.9941	65.9950	99.9889	
   198	-0.2449	 1.8143	 1.5694	 0.2770	 2.4634	 2.7403	 0.5698	 2.6844	 3.2541	65.7969	99.9884	
   199	-0.1506	 1.9323	 1.7817	 0.3698	 2.6371	 3.0069	 0.6819	 2.8798	 3.5616	65.5218	99.9884	
   200	-0.1672	 2.0422	 1.8750	 0.3569	 2.7587	 3.1156	 0.6966	 3.0252	 3.7217	65.3658	99.9874	
   201	-0.1939	 2.1157	 1.9218	 0.3156	 2.8628	 3.1784	 0.6500	 3.1320	 3.7819	65.1308	99.9878	
   202	-0.2525	 2.1847	 1.9322	 0.2513	 2.9268	 3.1782	 0.5698	 3.1724	 3.7421	65.0905	99.9885	
   203	-0.3356	 2.2385	 1.9028	 0.1666	 2.9912	 3.1578	 0.4809	 3.2641	 3.7448	64.8554	99.9882	
   204	-0.2998	 2.3055	 2.0058	 0.1858	 3.0808	 3.2666	 0.5090	 3.3385	 3.8474	64.7776	99.9884	
   205	-0.3286	 2.3478	 2.0193	 0.1341	 3.1266	 3.2607	 0.4234	 3.3868	 3.8101	64.5793	99.9888	
   206	-0.4189	 2.4122	 1.9933	 0.0510	 3.2179	 3.2689	 0.3666	 3.5213	 3.8878	64.3083	99.9878	
   207	-0.4621	 2.4756	 2.0136	-0.0062	 3.2863	 3.2801	 0.3073	 3.5182	 3.8254	64.4227	99.9892	
   208	-0.5709	 2.4987	 1.9278	-0.1290	 3.2884	 3.1594	 0.1610	 3.5397	 3.7007	64.2622	99.9888	
   209	-0.5966	 2.5878	 1.9912	-0.1419	 3.4100	 3.2681	 0.1873	 3.6811	 3.8683	64.1108	99.9883	
   210	-0.5187	 2.6958	 2.1771	-0.0996	 3.5397	 3.4400	 0.2114	 3.7870	 3.9983	63.9529	99.9889	
   211	-0.5619	 2.7592	 2.1973	-0.1451	 3.5764	 3.4313	 0.1229	 3.7881	 3.9110	63.9863	99.9900	
   212	-0.6687	 2.8135	 2.1448	-0.2478	 3.6815	 3.4337	 0.0445	 3.9544	 3.9988	63.5608	99.9892	
   213	-0.6790	 2.8971	 2.2181	-0.2845	 3.7496	 3.4650	-0.0133	 3.9749	 3.9614	63.5937	99.9899	
   214	-0.7796	 2.9252	 2.1456	-0.3843	 3.7917	 3.4074	-0.0990	 4.0232	 3.9241	63.4764	99.9897	
   215	-0.7684	 2.9771	 2.2088	-0.3676	 3.8409	 3.4733	-0.0893	 4.0860	 3.9967	63.3994	99.9897	
   216	-0.8145	 2.9937	 2.1792	-0.4611	 3.8740	 3.4128	-0.2002	 4.1071	 3.9069	63.1963	99.9897	
   217	-0.9295	 3.0429	 2.1134	-0.5601	 3.9296	 3.3695	-0.2981	 4.1477	 3.8496	63.1561	99.9903	
   218	-0.9707	 3.1376	 2.1670	-0.6068	 4.0562	 3.4494	-0.3459	 4.3333	 3.9874	62.7299	99.9897	
   219	-1.0128	 3.2167	 2.2039	-0.6364	 4.1287	 3.4922	-0.3716	 4.3966	 4.0250	62.7309	99.9899	
   220	-1.0662	 3.2438	 2.1776	-0.6899	 4.1475	 3.4577	-0.4409	 4.4211	 3.9801	62.6493	99.9900	
   221	-1.0714	 3.2856	 2.2143	-0.7320	 4.2382	 3.5061	-0.4583	 4.5237	 4.0652	62.3786	99.9893	
   222	-1.1709	 3.3293	 2.1584	-0.8201	 4.2487	 3.4285	-0.5822	 4.5253	 3.9430	62.3698	99.9900	
   223	-1.2623	 3.3781	 2.1158	-0.9103	 4.3356	 3.4253	-0.6404	 4.6362	 3.9957	62.1419	99.9895	
   224	-1.2973	 3.4466	 2.1493	-0.9604	 4.4084	 3.4480	-0.7015	 4.6999	 3.9983	62.0205	99.9897	
   225	-1.3732	 3.4898	 2.1166	-1.0389	 4.4636	 3.4247	-0.7456	 4.7517	 4.0060	61.9849	99.9892	
   226	-1.3620	 3.5417	 2.1797	-1.0560	 4.5179	 3.4619	-0.7958	 4.7995	 4.0036	61.8203	99.9895	
   227	-1.4052	 3.6052	 2.2000	-1.1106	 4.6267	 3.5160	-0.8357	 4.9220	 4.0863	61.5519	99.9894	
   228	-1.4729	 3.6535	 2.1805	-1.1937	 4.7180	 3.5243	-0.8925	 5.0566	 4.1640	61.2090	99.9884	
   229	-1.4905	 3.7477	 2.2572	-1.1949	 4.8079	 3.6130	-0.9167	 5.1435	 4.2267	61.1307	99.9892	
   230	-1.5654	 3.8065	 2.2411	-1.2487	 4.9302	 3.6815	-0.9433	 5.3878	 4.4444	60.5363	99.9877	
   231	-1.4589	 3.9921	 2.5332	-1.0355	 5.2818	 4.2462	-0.6193	 5.8637	 5.2443	60.0131	99.9871	
   232	-1.3103	 4.2186	 2.9083	-0.7593	 5.6592	 4.9000	-0.2925	 6.3869	 6.0943	59.3907	99.9877	
   233	-1.4161	 4.2885	 2.8724	-0.8611	 5.7778	 4.9167	-0.4703	 6.5702	 6.0998	58.7498	99.9891	
   234	-1.8213	 4.2340	 2.4127	-1.3144	 5.6281	 4.3138	-0.8742	 6.2369	 5.3627	59.4354	99.9893	
   235	-1.7813	 4.2436	 2.4623	-1.3144	 5.6281	 4.3138	-0.9226	 6.2179	 5.2952	59.3374	99.9898	
   236	-1.7791	 4.0350	 2.2559	-1.5549	 4.9489	 3.3940	-1.4413	 4.9613	 3.5199	61.7501	99.9931	
   237	-2.1634	 3.5734	 1.4100	-2.1479	 4.3115	 2.1637	-2.1889	 4.4122	 2.2232	61.3306	99.9912	
   238	-2.4693	 3.7151	 1.2457	-2.4221	 4.6219	 2.1997	-2.3220	 4.7484	 2.4263	60.7661	99.9904	
   239	-2.4849	 3.8405	 1.3557	-2.4245	 4.8017	 2.3772	-2.3259	 5.0750	 2.7491	59.9930	99.9891	
   240	-2.4091	 4.0372	 1.6281	-2.3400	 5.0611	 2.7210	-2.2495	 5.3613	 3.1117	59.5773	99.9898	
   241	-2.5148	 3.9871	 1.4724	-2.4545	 4.9776	 2.5230	-2.3404	 5.2248	 2.8843	59.8802	99.9896	
   242	-2.7156	 3.6835	 0.9679	-2.7433	 4.6183	 1.8750	-2.7075	 4.9147	 2.2071	59.6165	99.9883	
   243	-2.9055	 3.7916	 0.8861	-2.7866	 5.0191	 2.2326	-2.5837	 5.5939	 3.0101	58.2683	99.9860	
   244	-2.7989	 3.8572	 1.0584	-2.6541	 5.0619	 2.4077	-2.4818	 5.5217	 3.0398	58.7264	99.9892	
   245	-2.8317	 3.8370	 1.0054	-2.6207	 5.1602	 2.5395	-2.4275	 5.7375	 3.3099	58.1596	99.9894	
   246	-2.9219	 3.7815	 0.8596	-2.6863	 5.0939	 2.4076	-2.7553	 5.5882	 2.8329	57.8668	99.9952	
   247	-3.0522	 3.7163	 0.6641	-2.7928	 5.0282	 2.2354	-2.9344	 5.5551	 2.6206	57.6074	99.9961	
   248	-3.1302	 3.7283	 0.5981	-2.8943	 5.0434	 2.1491	-3.1717	 5.6329	 2.4611	56.9275	99.9971	
   249	-3.2800	 3.7261	 0.4461	-3.0660	 5.0284	 1.9624	-3.3562	 5.6078	 2.2514	56.8182	99.9971	
   250	-3.3539	 3.8005	 0.4466	-3.1127	 5.1550	 2.0423	-3.3687	 5.7929	 2.4241	56.5031	99.9969	
   251	-3.3244	 4.0138	 0.6894	-3.0027	 5.4948	 2.4922	-3.1844	 6.2037	 3.0192	56.1047	99.9969	
   252	-3.1676	 4.2453	 1.0777	-2.8622	 5.7757	 2.9135	-3.0543	 6.5011	 3.4468	55.7466	99.9970	
   253	-3.0016	 4.4975	 1.4958	-2.6611	 6.0420	 3.3809	-2.7807	 6.7298	 3.9490	56.0055	99.9967	
   254	-3.2611	 4.3827	 1.1216	-3.1294	 5.8701	 2.7407	-3.3931	 6.5606	 3.1674	55.1998	99.9963	
   255	-3.4932	 4.5699	 1.0766	-3.2274	 6.1595	 2.9320	-3.3846	 6.8950	 3.5102	55.0479	99.9965	
   256	-3.3108	 4.8322	 1.5213	-3.0502	 6.3723	 3.3220	-3.1980	 6.9555	 3.7575	55.6192	99.9965	
   257	-3.2913	 4.7692	 1.4779	-3.2634	 6.0207	 2.7573	-3.6938	 6.3716	 2.6778	56.0524	99.9969	
   258	-3.6296	 4.5309	 0.9012	-3.6419	 5.8653	 2.2234	-3.9758	 6.2966	 2.3207	55.6230	99.9963	
   259	-3.3847	 4.7867	 1.4020	-3.2090	 6.2356	 3.0266	-3.5051	 6.6604	 3.1552	55.8155	99.9964	
   260	-3.4584	 4.6213	 1.1629	-3.3570	 6.0538	 2.6968	-3.7177	 6.5608	 2.8430	55.3222	99.9970	
   261	-3.4687	 4.7049	 1.2362	-3.3252	 6.1252	 2.8000	-3.6823	 6.5604	 2.8779	55.6429	99.9967	
   262	-3.5785	 4.7124	 1.1338	-3.4154	 6.2121	 2.7967	-3.7247	 6.7380	 3.0132	55.1844	99.9969	
   263	-3.5571	 4.8006	 1.2435	-3.4220	 6.3246	 2.9026	-3.7537	 6.8446	 3.0909	54.9384	99.9967	
   264	-3.6238	 4.8645	 1.2407	-3.4846	 6.4156	 2.9310	-3.7975	 6.9987	 3.2011	54.6126	99.9969	
   265	-3.6772	 4.8916	 1.2144	-3.5460	 6.4166	 2.8706	-3.9037	 7.0001	 3.0963	54.5002	99.9972	
   266	-3.7029	 4.9808	 1.2778	-3.5313	 6.5422	 3.0109	-3.8427	 7.1291	 3.2863	54.5118	99.9970	
   267	-3.6527	 5.0267	 1.3740	-3.5137	 6.6049	 3.0912	-3.7969	 7.2033	 3.4063	54.4077	99.9968	
   268	-3.6641	 5.0947	 1.4307	-3.5513	 6.6595	 3.1082	-3.8562	 7.2001	 3.3439	54.4501	99.9965	
   269	-3.7134	 5.1844	 1.4710	-3.5587	 6.7585	 3.1997	-3.8808	 7.3775	 3.4966	54.1306	99.9972	
   270	-3.7402	 5.2579	 1.5177	-3.6188	 6.8899	 3.2711	-3.8853	 7.4996	 3.6142	53.9596	99.9965	
   271	-3.8028	 5.2644	 1.4616	-3.6819	 6.8640	 3.1821	-3.9950	 7.4420	 3.4469	53.9928	99.9967	
   272	-3.8767	 5.3388	 1.4621	-3.7553	 7.0001	 3.2447	-4.0218	 7.5840	 3.5621	53.7940	99.9963	
   273	-3.9229	 5.3554	 1.4325	-3.8193	 6.9607	 3.1414	-4.1472	 7.5620	 3.4148	53.6640	99.9968	
   274	-3.9024	 5.4280	 1.5256	-3.7707	 7.0813	 3.3105	-4.0400	 7.6747	 3.6347	53.7228	99.9964	
   275	-3.7702	 5.5244	 1.7543	-3.6796	 7.2281	 3.5484	-3.9257	 7.9055	 3.9797	53.2666	99.9963	
   276	-3.7006	 5.7473	 2.0467	-3.5721	 7.5274	 3.9553	-3.7070	 8.2017	 4.4946	53.3045	99.9956	
   277	-3.6730	 5.8093	 2.1363	-3.5625	 7.5722	 4.0098	-3.7334	 8.2532	 4.5197	53.1678	99.9958	
   278	-3.7274	 5.8208	 2.0934	-3.6310	 7.5689	 3.9379	-3.7887	 8.2185	 4.4298	53.2646	99.9956	
   279	-3.7828	 5.8167	 2.0339	-3.7066	 7.5612	 3.8546	-3.8934	 8.2435	 4.3500	53.0102	99.9958	
   280	-3.8864	 5.7979	 1.9115	-3.8311	 7.5363	 3.7053	-4.0086	 8.1938	 4.1851	53.0206	99.9955	
   281	-3.9562	 5.8149	 1.8588	-3.8870	 7.5148	 3.6277	-4.0945	 8.1398	 4.0452	53.1407	99.9958	
   282	-3.9696	 5.8517	 1.8822	-3.8678	 7.6044	 3.7366	-3.9967	 8.2920	 4.2952	53.0346	99.9954	
   283	-3.8373	 5.9481	 2.1109	-3.7354	 7.6471	 3.9117	-3.9314	 8.2991	 4.3676	53.1543	99.9960	
   284	-3.8793	 5.9073	 2.0280	-3.8269	 7.6037	 3.7768	-4.0317	 8.2020	 4.1702	53.1800	99.9956	
   285	-3.9081	 5.9496	 2.0415	-3.8556	 7.6896	 3.8340	-4.0307	 8.3161	 4.2853	52.9814	99.9954	
   286	-3.9625	 5.9611	 1.9986	-3.9233	 7.6997	 3.7764	-4.1314	 8.3095	 4.1780	52.8700	99.9955	
   287	-3.9933	 5.9721	 1.9788	-3.9784	 7.6917	 3.7132	-4.2206	 8.2989	 4.0781	52.7538	99.9957	
   288	-4.0682	 6.0310	 1.9627	-4.0427	 7.7557	 3.7130	-4.2980	 8.3864	 4.0883	52.5613	99.9959	
   289	-4.1247	 6.0112	 1.8866	-4.1200	 7.7210	 3.6010	-4.3752	 8.2812	 3.9059	52.7511	99.9955	
   290	-4.1647	 6.0016	 1.8370	-4.1476	 7.7170	 3.5694	-4.4099	 8.2934	 3.8834	52.6763	99.9956	
   291	-4.1524	 6.0692	 1.9167	-4.0828	 7.7698	 3.6870	-4.3016	 8.3274	 4.0258	52.9941	99.9956	
   292	-4.1238	 6.1468	 2.0230	-4.0698	 7.8685	 3.7987	-4.2510	 8.3819	 4.1307	53.0851	99.9949	
   293	-4.0028	 6.3113	 2.3084	-3.9511	 8.0194	 4.0683	-4.1728	 8.6013	 4.4283	52.7564	99.9957	
   294	-3.9138	 6.5911	 2.6772	-3.7629	 8.4073	 4.6444	-3.9272	 9.0506	 5.1233	52.4917	99.9957	
   295	-3.9323	 6.5497	 2.6174	-3.8444	 8.3053	 4.4608	-4.0141	 8.8825	 4.8683	52.7228	99.9953	
   296	-3.9754	 6.6131	 2.6377	-3.8698	 8.4451	 4.5752	-4.0114	 9.1226	 5.1110	52.2207	99.9955	
   297	-3.9335	 6.7740	 2.8404	-3.7933	 8.6865	 4.8933	-3.9098	 9.4361	 5.5262	51.8196	99.9956	
   298	-3.8772	 6.9136	 3.0364	-3.8183	 8.7229	 4.9046	-3.9894	 9.1931	 5.2036	52.5711	99.9938	
   299	-4.1336	 6.7258	 2.5922	-4.1810	 8.3829	 4.2019	-4.4266	 8.8957	 4.4691	52.4001	99.9952	
   300	-4.2097	 6.8890	 2.6793	-4.1646	 8.7558	 4.5912	-4.2248	 9.4992	 5.2743	51.6035	99.9945	
   301	-4.0721	 6.8237	 2.7516	-3.9274	 8.6169	 4.6895	-4.0428	 9.0915	 5.0486	52.9157	99.9940	
   302	-4.1499	 6.5958	 2.4459	-4.0569	 8.5112	 4.4543	-4.1636	 9.2426	 5.0789	51.7533	99.9952	
   303	-4.0977	 6.7929	 2.6952	-3.9817	 8.6223	 4.6406	-4.1329	 9.2619	 5.1289	52.1303	99.9954	
   304	-4.2301	 6.8164	 2.5863	-4.2190	 8.5409	 4.3219	-4.3725	 9.0092	 4.6366	52.5953	99.9943	
   305	-4.3539	 6.4851	 2.1312	-4.3353	 8.2102	 3.8749	-4.5193	 8.8261	 4.3067	52.2379	99.9954	
   306	-4.1366	 6.6789	 2.5423	-4.0410	 8.5469	 4.5058	-4.1636	 9.2426	 5.0789	51.9199	99.9953	
   307	-4.2604	 6.3477	 2.0873	-4.2209	 8.0734	 3.8525	-4.3762	 8.6550	 4.2787	52.6430	99.9951	
   308	-4.2201	 7.0926	 2.8724	-4.0165	 9.1578	 5.1414	-3.9351	 9.8968	 5.9617	51.6478	99.9941	
   309	-3.9628	 7.2960	 3.3332	-3.8845	 9.0837	 5.1992	-4.0421	 9.5913	 5.5491	52.2638	99.9945	
   310	-3.9350	 7.2381	 3.3031	-3.9790	 8.8830	 4.9040	-4.1967	 9.0856	 4.8888	53.2443	99.9912	
   311	-4.3799	 6.8142	 2.4342	-4.5386	 8.3440	 3.8054	-4.6986	 8.4978	 3.7991	53.6409	99.9916	
   312	-3.9171	 6.7841	 2.8669	-3.8228	 8.2150	 4.3922	-3.9969	 7.9969	 3.9999	56.1421	99.9828	
   313	-3.5195	 5.2587	 1.7392	-3.5759	 5.8282	 2.2523	-4.2498	 4.6945	 0.4446	62.2852	99.9538	
   314	-3.8608	 1.6884	-2.1724	-4.5419	 1.4119	-3.1300	-5.8192	 0.1222	-5.6971	66.3586	99.9747	
   315	-4.7982	-0.8688	-5.6671	-5.7737	-1.2511	-7.0249	-7.4865	-2.4575	-9.9442	66.5386	99.9752	
   316	-6.4996	-2.9363	-9.4359	-7.8101	-3.1273	-10.9374	-9.4058	-3.8338	-13.2396	63.7098	99.9960	
   317	-6.8537	-2.8093	-9.6630	-7.9034	-2.6537	-10.5571	-9.1543	-2.9948	-12.1492	61.9354	99.9971	
   318	-5.7083	-0.9341	-6.6424	-6.3168	-0.6530	-6.9698	-7.4383	-1.2697	-8.7081	63.1486	99.9890	
   319	-4.9372	-0.4593	-5.3965	-5.6392	-0.3003	-5.9395	-6.9538	-1.0674	-8.0212	63.5639	99.9843	
   320	-5.0075	-0.9377	-5.9452	-5.9173	-0.9250	-6.8423	-7.4029	-1.7581	-9.1611	63.8465	99.9854	
   321	-5.5365	-1.4433	-6.9798	-6.4479	-1.3296	-7.7776	-7.7787	-2.0169	-9.7957	63.3552	99.9908	
   322	-5.4596	-1.3510	-6.8106	-6.2974	-1.1074	-7.4048	-7.4683	-1.7651	-9.2335	63.3018	99.9899	
   323	-5.3098	-1.3488	-6.6586	-6.2336	-1.2883	-7.5219	-7.5717	-2.0117	-9.5836	63.7557	99.9909	
   324	-5.5518	-1.5577	-7.1095	-6.4722	-1.5001	-7.9723	-7.7887	-2.1821	-9.9709	63.7009	99.9924	
   325	-5.5538	-1.5890	-7.1428	-6.4614	-1.5452	-8.0066	-7.7948	-2.1859	-9.9809	63.6012	99.9937	
   326	-5.4266	-1.5707	-6.9972	-6.3193	-1.4577	-7.7770	-7.5655	-2.2007	-9.7663	64.1141	99.9897	
   327	-5.5207	-1.8087	-7.3294	-6.4624	-1.7789	-8.2413	-7.8268	-2.4217	-10.2485	63.7410	99.9938	
   328	-5.8252	-2.1311	-7.9563	-6.7774	-2.0119	-8.7893	-8.0640	-2.5367	-10.6007	63.1453	99.9955	
   329	-5.8027	-2.0273	-7.8300	-6.6766	-1.8203	-8.4969	-7.9258	-2.3023	-10.2282	62.8266	99.9950	
   330	-5.7588	-1.8352	-7.5940	-6.5299	-1.5485	-8.0784	-7.7162	-2.0571	-9.7734	62.9111	99.9928	
   331	-5.6635	-1.7015	-7.3650	-6.4530	-1.4105	-7.8634	-7.6437	-1.9321	-9.5759	62.8151	99.9925	
   332	-5.5539	-1.4691	-7.0230	-6.2653	-1.1394	-7.4047	-7.4196	-1.6438	-9.0635	62.7488	99.9921	
   333	-5.3294	-1.2858	-6.6152	-6.0480	-0.9408	-6.9888	-7.2135	-1.4575	-8.6712	62.6619	99.9913	
   334	-5.1766	-1.1168	-6.2934	-5.8929	-0.7546	-6.6475	-7.0476	-1.2511	-8.2988	62.4841	99.9918	
   335	-5.0865	-0.9413	-6.0278	-5.7220	-0.5327	-6.2547	-6.8400	-1.0413	-7.8814	62.5617	99.9901	
   336	-5.0639	-0.9574	-6.0213	-5.7296	-0.6540	-6.3835	-6.9310	-1.1778	-8.1089	62.7741	99.9914	
   337	-5.1346	-1.0759	-6.2105	-5.8236	-0.7378	-6.5614	-6.9742	-1.3071	-8.2814	62.9651	99.9897	
   338	-5.2074	-1.1058	-6.3132	-5.8921	-0.7411	-6.6332	-7.0107	-1.2280	-8.2388	62.5913	99.9922	
   339	-5.0670	-1.0043	-6.0712	-5.7475	-0.6132	-6.3607	-6.8219	-1.1320	-7.9540	62.7496	99.9910	
   340	-4.9806	-1.1311	-6.1118	-5.8420	-0.8139	-6.6559	-7.0016	-1.3698	-8.3715	62.6514	99.9919	
   341	-5.1664	-1.0805	-6.2469	-5.8457	-0.7644	-6.6101	-6.9763	-1.3425	-8.3190	63.1586	99.9902	
   342	-5.1152	-1.0189	-6.1341	-5.7730	-0.6937	-6.4667	-6.8822	-1.2493	-8.1316	63.1214	99.9908	
   343	-5.0783	-0.9363	-6.0146	-5.7529	-0.5906	-6.3436	-6.8743	-1.1195	-7.9939	62.7877	99.9912	
   344	-4.9975	-0.6615	-5.6590	-5.6505	-0.3721	-6.0226	-6.8037	-0.9276	-7.7314	62.8840	99.9912	
   345	-4.7896	-0.2485	-5.0381	-5.4635	 0.1058	-5.3577	-6.5125	-0.5064	-7.0190	62.8172	99.9893	
   346	-4.6042	 0.0607	-4.5435	-5.2116	 0.3128	-4.8987	-6.2985	-0.3832	-6.6817	63.4849	99.9879	
   347	-4.4739	 0.1259	-4.3481	-5.1042	 0.3919	-4.7122	-6.1642	-0.3101	-6.4744	63.4906	99.9880	
   348	-4.4667	 0.1153	-4.3515	-5.1476	 0.3522	-4.7954	-6.2364	-0.3328	-6.5693	63.3377	99.9895	
   349	-4.4566	 0.2715	-4.1851	-5.0557	 0.5125	-4.5432	-6.1296	-0.1296	-6.2593	63.2610	99.9904	
   350	-4.3972	 0.3381	-4.0591	-4.9830	 0.5832	-4.3998	-6.0473	-0.1346	-6.1819	63.5931	99.9875	
   351	-4.4474	 0.2922	-4.1552	-5.0381	 0.5751	-4.4630	-6.0718	-0.1500	-6.2219	63.5484	99.9866	
   352	-4.5367	 0.2523	-4.2844	-5.0937	 0.4502	-4.6435	-6.2035	-0.2782	-6.4818	63.7729	99.9873	
   353	-4.5613	 0.2371	-4.3242	-5.1062	 0.4684	-4.6378	-6.1707	-0.2235	-6.3943	63.6397	99.9884	
   354	-4.3871	 0.4943	-3.8927	-4.8692	 0.8735	-3.9957	-5.8323	 0.2956	-5.5369	62.8904	99.9896	
   355	-4.0655	 1.0824	-2.9831	-4.4595	 1.5274	-2.9321	-5.3965	 0.8645	-4.5321	62.9268	99.9841	
   356	-3.9363	 1.2519	-2.6845	-4.3112	 1.6058	-2.7054	-5.2783	 0.7685	-4.5099	63.8821	99.9777	
   357	-4.1228	 0.9271	-3.1957	-4.5645	 1.2684	-3.2961	-5.5533	 0.5163	-5.0372	63.5436	99.9829	
   358	-4.1845	 1.0691	-3.1154	-4.5811	 1.4395	-3.1416	-5.5155	 0.6535	-4.8621	63.6471	99.9807	
   359	-4.1967	 1.0016	-3.1952	-4.6338	 1.2516	-3.3822	-5.6388	 0.3718	-5.2672	64.2770	99.9792	
   360	-4.3000	 0.6230	-3.6770	-4.8876	 0.7974	-4.0902	-5.9604	 0.0335	-5.9269	63.8288	99.9877	
   361	-4.4280	 0.3492	-4.0788	-4.9279	 0.3710	-4.5570	-6.0466	-0.6107	-6.6574	65.6782	99.9802	
   362	-4.6752	-0.7931	-5.4683	-5.6140	-0.8807	-6.4947	-6.8934	-1.6309	-8.5244	64.5209	99.9941	
   363	-4.8998	-0.8564	-5.7562	-5.7593	-0.8018	-6.5611	-6.9061	-1.5481	-8.4543	64.3896	99.9920	
   364	-4.8312	-0.7691	-5.6003	-5.6599	-0.7406	-6.4004	-6.8313	-1.5805	-8.4120	64.8800	99.9891	
   365	-4.8405	-0.6699	-5.5104	-5.6026	-0.5887	-6.1912	-6.7658	-1.2783	-8.0443	64.1097	99.9924	
   366	-4.7708	-0.5670	-5.3378	-5.4906	-0.5456	-6.0362	-6.6856	-1.3187	-8.0045	64.6929	99.9905	
   367	-4.9781	-0.6045	-5.5826	-5.7112	-0.5778	-6.2890	-6.9128	-1.2686	-8.1815	64.1528	99.9930	
   368	-4.7802	-0.4677	-5.2479	-5.5457	-0.5537	-6.0994	-6.8128	-1.2738	-8.0867	64.4875	99.9941	
   369	-4.7349	-0.6198	-5.3547	-5.5107	-0.6487	-6.1594	-6.7220	-1.4324	-8.1545	64.8339	99.9916	
   370	-4.8463	-1.0035	-5.8498	-5.6730	-1.0595	-6.7325	-6.9605	-1.7638	-8.7244	64.5759	99.9940	
   371	-4.8742	-0.8256	-5.6998	-5.5905	-0.7237	-6.3143	-6.7586	-1.3532	-8.1119	64.0174	99.9934	
   372	-4.6519	-0.4338	-5.0857	-5.3029	-0.2745	-5.5775	-6.4262	-1.0309	-7.4571	64.3718	99.9878	
   373	-4.5944	-0.5183	-5.1127	-5.3528	-0.5255	-5.8782	-6.6080	-1.3040	-7.9121	64.6396	99.9907	
   374	-4.7227	-0.4323	-5.1551	-5.3626	-0.2466	-5.6092	-6.4552	-0.9242	-7.3795	63.9937	99.9904	
   375	-4.5876	-0.1691	-4.7567	-5.1582	 0.0737	-5.0846	-6.2282	-0.5887	-6.8171	63.7745	99.9892	
   376	-4.4317	-0.0731	-4.5048	-5.0258	 0.1164	-4.9094	-6.1513	-0.5858	-6.7372	63.9574	99.9887	
   377	-4.3917	-0.0635	-4.4552	-4.9527	 0.0837	-4.8691	-6.1173	-0.6098	-6.7273	64.0994	99.9892	
   378	-4.3076	 0.0182	-4.2894	-4.9063	 0.2807	-4.6256	-5.9752	-0.4070	-6.3823	63.7338	99.9882	
   379	-4.1766	 0.3389	-3.8377	-4.6885	 0.5962	-4.0923	-5.7566	-0.1108	-5.8674	63.8434	99.9867	
   380	-4.1170	 0.2856	-3.8314	-4.7174	 0.4618	-4.2556	-5.8489	-0.2709	-6.1199	63.9659	99.9880	
   381	-4.2749	 0.1584	-4.1165	-4.8352	 0.3244	-4.5108	-5.9575	-0.4073	-6.3649	64.1550	99.9880	
   382	-4.3323	 0.1230	-4.2093	-4.9242	 0.3215	-4.6027	-5.9943	-0.4304	-6.4248	64.1557	99.9874	
   383	-4.4491	-0.0989	-4.5480	-5.1061	-0.0756	-5.1817	-6.3284	-0.8786	-7.2072	64.6545	99.9885	
   384	-4.6730	-0.8818	-5.5548	-5.6550	-1.1003	-6.7553	-7.1059	-1.9233	-9.0293	64.9008	99.9936	
   385	-5.3054	-1.6461	-6.9515	-6.3062	-1.9030	-8.2092	-7.7313	-3.0879	-10.8194	67.1086	99.9792	
   386	-6.5270	-3.2382	-9.7652	-8.0045	-3.5062	-11.5106	-9.5832	-4.2289	-13.8122	64.0039	99.9965	
   387	-6.9476	-3.2871	-10.2348	-8.2223	-3.0574	-11.2797	-9.2789	-3.4930	-12.7720	62.3685	99.9930	
   388	-6.0180	-2.1898	-8.2078	-7.0226	-2.1111	-9.1338	-8.2365	-2.6564	-10.8930	63.3874	99.9957	
   389	-5.9359	-2.2592	-8.1951	-7.1464	-2.3428	-9.4892	-8.5248	-3.0305	-11.5554	63.7829	99.9953	
   390	-6.1802	-2.1396	-8.3198	-7.1399	-1.9114	-9.0512	-8.1868	-2.4210	-10.6079	63.0258	99.9945	
   391	-5.6237	-1.4520	-7.0757	-6.4542	-1.3205	-7.7747	-7.5910	-1.8423	-9.4334	63.3018	99.9956	
   392	-5.1595	-0.8512	-6.0107	-5.8583	-0.7462	-6.6045	-7.0550	-1.4714	-8.5265	64.2004	99.9896	
   393	-5.0599	-0.8949	-5.9548	-5.9010	-0.9927	-6.8937	-7.2866	-1.7872	-9.0739	64.5603	99.9912	
   394	-5.3388	-1.0666	-6.4054	-6.2297	-0.8973	-7.1269	-7.3197	-1.4562	-8.7760	63.0716	99.9946	
   395	-4.8972	-0.4497	-5.3469	-5.6187	-0.3007	-5.9194	-6.8091	-0.9197	-7.7289	63.2954	99.9926	
   396	-4.7487	-0.1033	-4.8520	-5.3453	 0.1398	-5.2056	-6.4349	-0.4916	-6.9266	63.3398	99.9903	
   397	-4.5099	 0.1787	-4.3312	-5.1380	 0.3970	-4.7410	-6.2661	-0.2380	-6.5041	63.1510	99.9907	
   398	-4.5120	 0.2674	-4.2446	-5.0707	 0.4903	-4.5804	-6.1700	-0.2117	-6.3818	63.5877	99.9878	
   399	-4.5529	 0.1222	-4.4307	-5.1615	 0.2400	-4.9214	-6.3984	-0.5708	-6.9692	64.0804	99.9843	
   400	-4.5540	 0.1066	-4.4474	-5.2241	 0.3310	-4.8931	-6.3642	-0.2997	-6.6640	62.9988	99.9909	
   401	-4.4310	 0.3023	-4.1287	-5.0937	 0.4502	-4.6435	-6.2790	-0.2575	-6.5366	63.4205	99.9895	
   402	-4.5930	 0.1126	-4.4804	-5.3002	 0.2064	-5.0937	-6.5543	-0.6121	-7.1665	63.8730	99.9858	
   403	-4.9209	-0.3293	-5.2502	-5.7398	-0.2717	-6.0115	-7.0232	-1.0428	-8.0661	63.6480	99.9894	
   404	-5.2396	-0.7505	-5.9901	-6.2567	-0.7844	-7.0412	-7.6126	-1.5154	-9.1280	63.2963	99.9934	
   405	-5.5186	-0.8023	-6.3210	-6.4634	-0.7045	-7.1679	-7.6571	-1.3731	-9.0303	62.9844	99.9933	
   406	-5.3894	-0.7527	-6.1421	-6.3549	-0.7153	-7.0702	-7.6517	-1.3811	-9.0328	62.9175	99.9939	
   407	-5.4468	-0.7881	-6.2349	-6.3983	-0.7550	-7.1534	-7.7097	-1.4630	-9.1728	63.1103	99.9927	
   408	-5.5298	-0.9742	-6.5039	-6.6603	-0.9035	-7.5637	-7.9849	-1.5224	-9.5074	62.1313	99.9948	
   409	-5.5095	-0.6617	-6.1712	-6.4730	-0.5290	-7.0020	-7.7155	-1.0693	-8.7849	61.9549	99.9954	
   410	-5.3320	-0.7174	-6.0494	-6.5115	-0.7082	-7.2197	-7.8799	-1.4450	-9.3250	62.5146	99.9931	
   411	-5.6264	-0.7637	-6.3901	-6.7111	-0.6239	-7.3350	-7.9602	-1.2118	-9.1721	61.7677	99.9945	
   412	-5.3755	-0.2941	-5.6696	-6.3019	-0.0868	-6.3887	-7.5142	-0.6705	-8.1849	61.7432	99.9934	
   413	-4.9070	 0.1293	-4.7777	-5.8238	 0.3501	-5.4737	-7.0591	-0.2711	-7.3303	61.7245	99.9920	
   414	-4.6958	 0.3493	-4.3465	-5.5176	 0.5518	-4.9658	-6.8122	-0.0932	-6.9055	61.9368	99.9904	
   415	-4.5339	 0.5390	-3.9949	-5.3157	 0.8316	-4.4841	-6.5138	 0.2532	-6.2607	61.6104	99.9914	
   416	-4.3751	 0.8018	-3.5733	-5.0871	 1.1019	-3.9852	-6.3016	 0.4433	-5.8584	61.9129	99.9875	
   417	-4.3802	 0.8436	-3.5367	-5.0971	 1.1605	-3.9365	-6.3197	 0.5340	-5.7858	61.6321	99.9883	
   418	-4.3710	 0.8643	-3.5068	-5.1576	 1.1751	-3.9826	-6.3525	 0.4793	-5.8733	61.8064	99.9869	
   419	-4.4377	 0.8082	-3.6294	-5.2721	 1.0916	-4.1806	-6.5399	 0.4070	-6.1330	61.5369	99.9875	
   420	-4.6355	 0.5515	-4.0840	-5.5806	 0.7461	-4.8344	-6.9478	 0.1053	-6.8426	61.2264	99.9910	
   421	-4.7381	 0.5483	-4.1898	-5.5851	 0.7822	-4.8030	-6.9272	 0.1522	-6.7751	61.3028	99.9898	
   422	-4.6704	 0.6199	-4.0505	-5.5383	 0.8758	-4.6625	-6.8269	 0.2493	-6.5777	61.2709	99.9903	
   423	-4.7503	 0.4807	-4.2696	-5.7389	 0.7263	-5.0125	-7.0988	 0.1466	-6.9523	60.6409	99.9922	
   424	-4.8807	 0.5355	-4.3452	-5.7977	 0.7678	-5.0299	-7.1674	 0.1829	-6.9846	60.7447	99.9916	
   425	-4.9187	 0.5571	-4.3616	-5.8737	 0.8635	-5.0102	-7.2120	 0.3251	-6.8869	60.1784	99.9921	
   426	-4.6840	 0.8966	-3.7874	-5.5766	 1.1372	-4.4394	-7.0211	 0.6493	-6.3719	59.9522	99.9935	
   427	-4.5252	 1.1593	-3.3659	-5.2489	 1.5722	-3.6767	-6.4601	 0.9451	-5.5151	60.8432	99.9858	
   428	-4.3672	 1.1666	-3.2006	-5.1253	 1.5836	-3.5417	-6.4068	 1.0467	-5.3601	60.2749	99.9886	
   429	-4.2031	 1.2676	-2.9355	-4.9590	 1.6213	-3.3378	-6.3465	 1.1640	-5.1826	59.9343	99.9916	
   430	-4.0505	 1.5566	-2.4939	-4.6413	 2.1149	-2.5264	-5.7409	 1.6127	-4.1283	60.4230	99.9873	
   431	-3.7593	 1.7959	-1.9635	-4.3312	 2.4873	-1.8439	-5.2890	 2.0555	-3.2336	60.0648	99.9884	
   432	-3.2796	 2.2712	-1.0084	-3.6188	 3.0687	-0.5501	-4.4159	 2.7290	-1.6870	60.2815	99.9892	
   433	-2.6571	 2.6394	-0.0177	-3.0213	 3.4497	 0.4284	-3.7366	 3.2240	-0.5127	60.0590	99.9930	
   434	-2.2325	 2.8708	 0.6383	-2.3976	 3.7044	 1.3068	-3.0314	 3.4628	 0.4313	60.8394	99.9920	
   435	-1.9474	 3.0163	 1.0690	-1.9668	 3.9309	 1.9640	-2.4452	 3.7858	 1.3405	61.0235	99.9933	
   436	-1.5873	 3.1030	 1.5157	-1.5809	 3.9873	 2.4064	-2.0768	 3.8244	 1.7474	61.3715	99.9933	
   437	-1.6345	 3.1040	 1.4694	-1.5491	 4.0587	 2.5096	-1.8819	 3.9242	 2.0422	61.5872	99.9932	
   438	-1.4005	 3.0680	 1.6675	-1.3503	 3.9609	 2.6106	-1.6731	 3.8624	 2.1892	61.7946	99.9945	
   439	-1.2496	 2.9659	 1.7163	-1.1123	 3.8355	 2.7232	-1.3177	 3.8815	 2.5636	62.0450	99.9956	
   440	-1.1100	 2.9318	 1.8218	-0.7878	 3.8930	 3.1052	-0.7292	 4.0470	 3.3177	62.5287	99.9943	
   441	-0.7969	 2.7796	 1.9827	-0.4395	 3.7837	 3.3442	-0.2625	 3.9545	 3.6918	62.9923	99.9931	
   442	-0.8983	 2.5522	 1.6539	-0.5786	 3.6332	 3.0545	-0.3305	 4.0026	 3.6720	62.2631	99.9898	
   443	-0.3197	 2.7283	 2.4086	 0.2481	 3.8575	 4.1055	 0.5956	 4.3802	 4.9757	62.5755	99.9896	
   444	-0.2734	 2.5918	 2.3184	 0.2564	 3.7719	 4.0283	 0.6404	 4.3403	 4.9806	62.3903	99.9879	
   445	-0.3954	 2.5317	 2.1362	 0.2609	 3.7359	 3.9968	 0.7086	 4.3945	 5.1030	62.4175	99.9872	
   446	-0.2610	 2.5394	 2.2784	 0.3658	 3.7746	 4.1404	 0.7924	 4.4131	 5.2054	62.3406	99.9881	
   447	-0.2949	 2.5036	 2.2087	 0.3979	 3.7426	 4.1405	 0.8372	 4.3732	 5.2103	62.5373	99.9893	
   448	-0.2598	 2.3152	 2.0554	 0.2904	 3.4432	 3.7336	 0.6117	 4.0613	 4.6729	62.5331	99.9878	
   449	-0.4372	 2.2509	 1.8137	 0.2345	 3.4216	 3.6561	 0.6648	 4.0606	 4.7253	62.7867	99.9878	
   450	-0.4505	 2.1678	 1.7173	 0.2373	 3.3586	 3.5960	 0.6811	 4.0367	 4.7177	62.7162	99.9872	
   451	-0.5108	 1.9656	 1.4548	 0.1219	 3.0414	 3.1633	 0.4683	 3.6420	 4.1102	63.1412	99.9882	
   452	-0.7794	 1.7102	 0.9308	-0.1882	 2.6690	 2.4808	 0.0330	 3.2777	 3.3106	63.1855	99.9880	
   453	-0.8388	 1.5237	 0.6850	-0.2761	 2.3558	 2.0797	-0.0602	 2.8106	 2.7504	64.1825	99.9890	
   454	-1.0058	 1.2559	 0.2501	-0.3610	 2.1999	 1.8390	-0.0238	 2.9243	 2.9004	63.4670	99.9821	
   455	-0.5749	 1.3411	 0.7663	 0.0505	 2.3368	 2.3873	 0.4428	 3.0245	 3.4672	63.6737	99.9825	
   456	-0.3020	 1.4191	 1.1171	 0.4047	 2.3218	 2.7265	 0.6675	 2.8367	 3.5041	64.5547	99.9902	
   457	-0.2443	 1.2146	 0.9703	 0.4990	 2.0820	 2.5809	 0.7317	 2.4344	 3.1661	65.4456	99.9939	
   458	-0.4142	 0.7800	 0.3657	 0.0429	 1.4513	 1.4943	-0.0154	 1.7947	 1.7793	65.1524	99.9928	
   459	-0.2769	 0.9545	 0.6776	 0.4441	 1.7502	 2.1943	 0.6103	 2.0858	 2.6960	65.7576	99.9941	
   460	-0.3239	 0.7156	 0.3917	 0.2267	 1.3313	 1.5580	 0.1206	 1.5057	 1.6262	66.1598	99.9965	
   461	-0.2233	 0.6875	 0.4642	 0.3165	 1.3478	 1.6643	 0.3397	 1.7115	 2.0511	65.6768	99.9917	
   462	-0.0027	 0.6883	 0.6856	 0.4296	 1.3009	 1.7306	 0.2766	 1.5470	 1.8235	65.7557	99.9949	
   463	-0.0755	 0.6585	 0.5830	 0.3336	 1.2936	 1.6271	 0.2398	 1.5238	 1.7636	65.7962	99.9941	
   464	 0.1357	 0.8785	 1.0142	 0.7719	 1.6413	 2.4132	 0.8396	 2.0710	 2.9105	65.4423	99.9925	
   465	 0.4690	 1.0387	 1.5077	 1.3078	 1.8031	 3.1109	 1.4406	 2.0514	 3.4919	66.6951	99.9965	
   466	 0.1914	 0.5228	 0.7142	 0.6850	 0.7976	 1.4826	 0.1764	 0.2811	 0.4574	69.4144	99.9921	
   467	-0.5737	 0.1418	-0.4319	-0.2386	 0.5525	 0.3139	-0.4923	 1.1319	 0.6395	64.9760	99.9818	
   468	-0.3313	-0.1290	-0.4603	-0.3744	 0.4559	 0.0814	-0.3906	 0.7646	 0.3739	65.3823	99.9804	
   469	-0.1991	 0.0874	-0.1117	 0.0320	 0.5119	 0.5439	-0.2043	 0.9157	 0.7112	65.6307	99.9858	
   470	-0.2568	 0.2919	 0.0351	 0.5141	 0.7960	 1.3102	 0.3143	 0.9011	 1.2153	67.4968	99.9988	
   471	-0.5335	-0.0885	-0.6219	-0.0412	 0.3244	 0.2832	-0.2369	 0.4753	 0.2384	67.2360	99.9955	
   472	-0.2110	-0.3400	-0.5510	-0.2976	-0.3906	-0.6882	-1.3830	-0.2222	-1.6053	65.9213	99.9951	
   473	-1.2124	-0.4764	-1.6888	-0.8681	-0.3405	-1.2086	-1.3553	-0.5452	-1.9006	68.5851	99.9987	
   474	-1.2594	-0.5954	-1.8548	-1.1493	-0.5785	-1.7278	-1.9794	-0.5175	-2.4970	66.7542	99.9972	
   475	-0.8100	-0.5887	-1.3987	-0.8481	-0.4577	-1.3058	-1.5427	-0.1296	-1.6724	65.5322	99.9872	
   476	-0.1947	-0.2099	-0.4047	 0.1930	 0.0282	 0.2212	-0.2777	-0.0043	-0.2820	68.0232	99.9984	
   477	 0.2072	 0.1575	 0.3646	 0.9414	 0.7483	 1.6897	 1.0720	 0.9346	 2.0065	67.9035	99.9946	
   478	 0.7672	 0.4122	 1.1794	 1.5331	 1.2553	 2.7884	 1.9111	 1.6322	 3.5432	67.0341	99.9903	
   479	 0.9836	 0.4705	 1.4541	 1.6926	 1.1852	 2.8778	 1.9287	 1.3368	 3.2654	67.9135	99.9941	
   480	 1.0280	 0.1828	 1.2108	 1.3953	 0.4709	 1.8662	 0.9589	 0.4324	 1.3912	68.2378	99.9980	
   481	 0.2329	 0.0683	 0.3012	 0.9276	 0.6362	 1.5637	 1.2685	 0.8652	 2.1336	68.2853	99.9885	
   482	 0.3161	 0.0145	 0.3306	 0.8982	 0.3849	 1.2831	 0.8866	 0.6025	 1.4890	68.1381	99.9911	
   483	 0.3263	 0.0508	 0.3771	 0.9626	 0.5412	 1.5038	 1.0496	 0.9546	 2.0041	67.3095	99.9869	
   484	 0.9918	 0.4755	 1.4674	 2.0043	 1.3642	 3.3685	 2.5044	 1.7780	 4.2823	67.5826	99.9917	
   485	 1.2820	 0.6992	 1.9812	 2.2563	 1.5713	 3.8275	 2.7195	 2.0153	 4.7346	67.3522	99.9909	
   486	 1.2183	 0.8099	 2.0282	 1.9472	 1.6529	 3.6001	 2.3540	 2.0239	 4.3778	66.9499	99.9891	
   487	 1.3442	 1.0525	 2.3968	 2.0526	 1.8085	 3.8610	 2.4522	 2.0856	 4.5377	67.3772	99.9894	
   488	 1.3743	 0.7860	 2.1602	 2.0924	 1.3538	 3.4462	 2.3819	 1.3152	 3.6971	69.1706	99.9940	
   489	 0.2017	-0.5359	-0.3343	 0.2384	-0.2288	 0.0095	 0.0103	-0.2205	-0.2102	67.8963	99.9903	
   490	 0.2190	-0.3903	-0.1713	 0.5504	-0.1532	 0.3972	 0.2976	 0.0395	 0.3370	67.9500	99.9901	
   491	 0.0558	-0.3557	-0.2999	 0.6445	 0.1509	 0.7955	 0.7379	 0.4864	 1.2242	67.6428	99.9886	
   492	 1.2885	 0.3132	 1.6017	 2.0246	 1.1436	 3.1682	 2.4158	 1.4840	 3.8997	67.5331	99.9899	
   493	 1.5714	 0.6673	 2.2387	 2.4445	 1.4152	 3.8598	 2.8760	 1.7732	 4.6491	67.9757	99.9896	
   494	 1.3293	 0.5783	 1.9076	 2.0197	 1.2831	 3.3028	 2.4663	 1.5384	 4.0046	68.0799	99.9875	
   495	 1.3032	 0.0521	 1.3553	 1.8321	 0.4680	 2.3002	 1.8281	 0.6494	 2.4774	68.5209	99.9915	
   496	 0.9186	-0.1696	 0.7490	 1.4185	 0.1873	 1.6058	 1.2869	 0.3888	 1.6756	68.3093	99.9923	
   497	 0.8672	-0.1112	 0.7560	 1.5932	 0.3597	 1.9529	 1.7343	 0.4657	 2.1999	69.2182	99.9940	
   498	 1.3043	-0.0522	 1.2521	 1.9032	 0.5118	 2.4150	 2.2227	 0.8293	 3.0519	68.4258	99.9842	
   499	 0.9833	-0.2648	 0.7186	 1.4936	 0.0782	 1.5718	 1.4152	 0.2651	 1.6802	68.6697	99.9914	
   500	 1.0407	-0.2294	 0.8113	 1.5533	 0.0502	 1.6035	 1.4680	 0.1622	 1.6300	69.1654	99.9922	
   501	 0.7874	-0.3704	 0.4171	 1.2024	-0.1012	 1.1012	 1.0838	 0.0569	 1.1406	68.7396	99.9900	
   502	 0.7566	-0.3593	 0.3973	 1.2388	-0.0659	 1.1729	 1.1834	 0.1422	 1.3255	68.7205	99.9888	
   503	 0.8531	-0.3299	 0.5231	 1.3962	-0.0596	 1.3367	 1.3849	 0.1554	 1.5402	69.0310	99.9881	
   504	 0.8552	-0.4186	 0.4366	 1.3590	-0.1084	 1.2506	 1.3687	 0.1792	 1.5477	68.6623	99.9854	
   505	 0.6982	-0.4103	 0.2879	 1.3186	 0.0092	 1.3278	 1.4556	 0.3473	 1.8027	68.5096	99.9856	
   506	 0.8161	-0.2927	 0.5234	 1.5797	 0.1441	 1.7238	 1.7350	 0.4775	 2.2124	68.7652	99.9886	
   507	 0.7566	-0.3593	 0.3973	 1.4260	 0.0883	 1.5143	 1.5476	 0.4051	 1.9526	68.5434	99.9884	
   508	 0.7843	-0.2973	 0.4870	 1.5271	 0.1765	 1.7036	 1.7310	 0.5090	 2.2399	68.6814	99.9879	
   509	 0.9781	-0.2229	 0.7552	 1.7803	 0.2936	 2.0739	 2.0671	 0.6975	 2.7645	68.6132	99.9857	
   510	 1.2028	-0.1596	 1.0432	 1.9034	 0.1881	 2.0915	 1.9280	 0.3491	 2.2769	69.3924	99.9929	
   511	 0.8398	-0.4131	 0.4267	 1.4351	 0.0162	 1.4513	 1.5181	 0.3071	 1.8251	68.5566	99.9882	
   512	 0.8274	-0.3607	 0.4667	 1.6068	 0.0313	 1.6381	 1.6691	 0.2658	 1.9348	69.1838	99.9926	
   513	 0.5926	-0.4603	 0.1322	 1.3533	 0.0176	 1.3708	 1.5365	 0.3187	 1.8551	68.8106	99.9898	
   514	 0.9024	-0.4196	 0.4828	 1.5837	-0.2291	 1.3546	 1.4449	-0.3177	 1.1271	70.5727	99.9973	
   515	 0.3518	-0.8935	-0.5417	 0.4711	-0.8756	-0.4045	-0.1228	-0.8602	-0.9831	68.7511	99.9940	
   516	 0.0380	-0.9968	-0.9588	 0.1310	-1.0722	-0.9412	-0.6322	-1.1803	-1.8126	69.0632	99.9974	
   517	 0.1446	-0.9311	-0.7865	 0.2568	-0.9169	-0.6602	-0.3109	-0.9444	-1.2554	68.8881	99.9944	
   518	 0.1138	-0.9201	-0.8062	 0.2664	-0.8722	-0.6057	-0.2399	-0.8430	-1.0829	68.7412	99.9931	
   519	 0.1312	-0.8943	-0.7631	 0.3028	-0.8368	-0.5340	-0.1969	-0.8160	-1.0130	68.7800	99.9936	
   520	-0.0257	-1.0059	-1.0316	 0.1005	-1.0132	-0.9127	-0.5120	-1.0480	-1.5601	68.9006	99.9952	
   521	-0.2440	-1.2153	-1.4594	-0.2722	-1.2946	-1.5668	-1.1875	-1.3817	-2.5693	68.4016	99.9979	
   522	-0.8368	-1.4903	-2.3271	-1.1599	-1.6213	-2.7812	-2.3316	-1.8510	-4.1827	67.7579	99.9993	
   523	-1.7201	-1.7490	-3.4691	-2.3802	-2.0232	-4.4034	-3.9073	-2.3305	-6.2379	66.5931	99.9998	
   524	-2.2382	-1.8430	-4.0811	-2.9040	-2.0998	-5.0038	-4.3453	-2.4468	-6.7922	66.6435	99.9996	
   525	-2.5982	-1.9296	-4.5279	-3.3171	-2.2637	-5.5808	-4.8572	-2.7118	-7.5691	66.8512	99.9997	
   526	-2.8455	-1.9768	-4.8223	-3.6292	-2.3393	-5.9685	-5.1807	-2.7902	-7.9711	66.6596	99.9997	
   527	-2.9461	-1.9488	-4.8948	-3.7031	-2.3201	-6.0232	-5.2432	-2.7501	-7.9934	66.6093	99.9997	
   528	-2.9369	-1.9281	-4.8649	-3.6863	-2.2709	-5.9573	-5.2260	-2.6598	-7.8859	66.3117	99.9997	
   529	-2.9513	-1.9069	-4.8582	-3.6767	-2.2261	-5.9028	-5.1639	-2.6094	-7.7734	66.3594	99.9996	
   530	-2.8774	-1.8615	-4.7389	-3.5480	-2.1339	-5.6819	-4.9668	-2.4742	-7.4411	66.3074	99.9994	
   531	-2.6271	-1.7674	-4.3945	-3.1900	-1.9781	-5.1681	-4.5300	-2.2792	-6.8092	66.4464	99.9994	
   532	-2.2794	-1.6283	-3.9078	-2.7371	-1.7250	-4.4621	-3.8856	-1.8743	-5.7600	66.2008	99.9978	
   533	-1.6722	-1.3745	-3.0467	-1.9429	-1.3653	-3.3082	-2.8906	-1.4306	-4.3213	66.5561	99.9969	
   534	-1.3163	-1.2304	-2.5467	-1.4871	-1.1752	-2.6623	-2.3700	-1.2169	-3.5870	66.7715	99.9971	
   535	-1.0558	-1.1001	-2.1558	-1.1078	-1.0063	-2.1141	-1.8711	-0.9715	-2.8427	66.9336	99.9959	
   536	-0.8835	-0.9940	-1.8775	-0.8868	-0.8572	-1.7439	-1.5711	-0.7943	-2.3655	66.9675	99.9952	
   537	-0.8087	-0.9329	-1.7416	-0.8007	-0.7912	-1.5919	-1.4769	-0.7011	-2.1781	66.8775	99.9947	
   538	-0.5235	-0.7874	-1.3109	-0.4276	-0.6132	-1.0408	-1.0184	-0.5378	-1.5562	67.2536	99.9952	
   539	-0.5481	-0.8025	-1.3507	-0.4970	-0.6300	-1.1269	-1.1708	-0.5201	-1.6910	66.8279	99.9953	
   540	-0.4805	-0.7309	-1.2114	-0.4155	-0.5280	-0.9434	-1.0126	-0.4434	-1.4562	66.9953	99.9951	
   541	-0.4713	-0.7102	-1.1815	-0.3996	-0.4923	-0.8918	-0.9314	-0.3697	-1.3012	66.9475	99.9934	
   542	-0.4385	-0.6900	-1.1285	-0.2663	-0.4361	-0.7024	-0.6943	-0.2547	-0.9490	67.0628	99.9921	
   543	-0.0805	-0.5147	-0.5952	 0.2756	-0.1800	 0.0956	 0.0690	 0.0661	 0.1349	67.4891	99.9902	
   544	 0.2733	-0.2819	-0.0086	 0.9152	 0.1104	 1.0256	 0.8763	 0.3351	 1.2113	68.3409	99.9929	
   545	 0.1584	-0.3526	-0.1942	 0.7514	 0.1132	 0.8646	 0.7990	 0.4226	 1.2215	67.8481	99.9896	
   546	 0.1768	-0.3112	-0.1344	 0.8847	 0.1694	 1.0541	 0.9509	 0.4954	 1.4463	67.9957	99.9910	
   547	 0.0927	-0.2730	-0.1804	 0.8827	 0.2458	 1.1285	 1.0404	 0.6084	 1.6487	68.0186	99.9903	
   548	 0.0691	-0.2726	-0.2035	 0.8710	 0.2775	 1.1485	 1.0664	 0.6474	 1.7137	67.9734	99.9901	
   549	 0.0947	-0.2418	-0.1471	 0.9082	 0.3263	 1.2345	 1.1545	 0.7368	 1.8912	67.8856	99.9883	
   550	 0.0013	-0.2243	-0.2230	 0.8138	 0.3459	 1.1597	 1.0566	 0.7774	 1.8339	67.7285	99.9879	
   551	-0.1147	-0.1907	-0.3054	 0.7211	 0.3924	 1.1135	 1.0269	 0.8723	 1.8990	67.6033	99.9855	
   552	-0.2717	-0.1823	-0.4540	 0.5494	 0.3773	 0.9268	 0.9023	 0.8621	 1.7642	67.6438	99.9831	
   553	-0.3661	-0.1804	-0.5465	 0.4818	 0.3875	 0.8692	 0.8506	 0.8863	 1.7368	67.6022	99.9830	
   554	-0.3805	-0.1593	-0.5398	 0.4826	 0.4009	 0.8835	 0.8650	 0.9294	 1.7944	67.5601	99.9816	
   555	-0.2759	-0.1249	-0.4007	 0.6363	 0.4568	 1.0931	 0.9679	 0.9714	 1.9392	67.5579	99.9853	
   556	-0.0789	-0.1236	-0.2025	 0.7683	 0.3826	 1.1509	 0.9681	 0.7786	 1.7465	67.9317	99.9892	
   557	-0.0183	-0.1613	-0.1796	 0.6371	 0.2500	 0.8870	 0.6620	 0.5975	 1.2594	67.7261	99.9890	
   558	-0.0911	-0.1912	-0.2822	 0.4683	 0.1719	 0.6402	 0.4118	 0.4630	 0.8747	67.7048	99.9898	
   559	-0.0449	-0.2077	-0.2526	 0.4516	 0.1227	 0.5743	 0.3421	 0.3852	 0.7273	67.7152	99.9899	
   560	-0.0633	-0.2491	-0.3124	 0.3254	 0.0709	 0.3963	 0.1649	 0.2852	 0.4500	67.6066	99.9903	
   561	-0.2028	-0.3349	-0.5377	 0.1186	-0.0694	 0.0491	-0.1712	 0.0967	-0.0746	67.5445	99.9922	
   562	-0.2643	-0.4328	-0.6970	-0.0544	-0.2149	-0.2693	-0.4643	-0.0648	-0.5293	67.3114	99.9924	
   563	-0.4027	-0.5030	-0.9057	-0.2232	-0.2929	-0.5162	-0.6850	-0.1013	-0.7864	66.9786	99.9918	
   564	-0.3515	-0.4415	-0.7929	-0.1346	-0.1865	-0.3212	-0.4839	 0.0023	-0.4817	67.1380	99.9910	
   565	-0.2458	-0.3914	-0.6373	-0.0431	-0.1431	-0.1862	-0.4442	 0.0727	-0.3717	66.9287	99.9910	
   566	-0.2674	-0.3597	-0.6271	-0.0539	-0.0980	-0.1519	-0.4182	 0.1117	-0.3067	66.9685	99.9908	
   567	-0.3218	-0.3482	-0.6700	-0.1082	-0.0926	-0.2008	-0.4822	 0.1282	-0.3540	66.8852	99.9906	
   568	-0.3618	-0.3578	-0.7196	-0.1634	-0.1006	-0.2640	-0.5598	 0.1135	-0.4464	66.8032	99.9911	
   569	-0.4254	-0.3670	-0.7924	-0.2319	-0.1040	-0.3359	-0.6183	 0.1221	-0.4963	66.7191	99.9906	
   570	-0.3526	-0.3371	-0.6898	-0.1617	-0.0737	-0.2354	-0.5577	 0.1489	-0.4089	66.7188	99.9908	
   571	-0.3926	-0.3468	-0.7394	-0.2160	-0.0683	-0.2843	-0.6108	 0.1496	-0.4613	66.6352	99.9910	
   572	-0.4634	-0.3454	-0.8088	-0.2632	-0.0585	-0.3217	-0.6433	 0.1972	-0.4462	66.5077	99.9902	
   573	-0.5024	-0.3394	-0.8418	-0.2962	-0.0400	-0.3361	-0.6426	 0.2090	-0.4337	66.5488	99.9900	
   574	-0.5332	-0.3283	-0.8615	-0.2882	-0.0221	-0.3103	-0.6152	 0.2716	-0.3437	66.4629	99.9891	
   575	-0.4532	-0.3091	-0.7623	-0.2314	 0.0129	-0.2185	-0.5376	 0.2864	-0.2513	66.5042	99.9891	
   576	-0.4522	-0.2934	-0.7456	-0.2581	 0.0223	-0.2358	-0.5838	 0.3027	-0.2812	66.3798	99.9887	
   577	-0.5076	-0.2975	-0.8051	-0.3124	 0.0277	-0.2847	-0.6416	 0.3231	-0.3186	66.2543	99.9886	
   578	-0.5620	-0.2860	-0.8480	-0.3801	 0.0379	-0.3422	-0.7192	 0.3084	-0.4109	66.2551	99.9894	
   579	-0.6338	-0.3002	-0.9340	-0.4636	 0.0123	-0.4513	-0.8214	 0.2782	-0.5433	66.2140	99.9895	
   580	-0.6574	-0.2998	-0.9572	-0.4903	 0.0218	-0.4686	-0.8561	 0.2905	-0.5657	66.1301	99.9898	
   581	-0.6328	-0.2846	-0.9174	-0.4832	 0.0261	-0.4571	-0.8861	 0.2830	-0.6032	66.0886	99.9904	
   582	-0.7128	-0.3039	-1.0167	-0.5802	 0.0053	-0.5749	-0.9991	 0.2687	-0.7305	65.9624	99.9903	
   583	-0.7836	-0.3025	-1.0861	-0.6674	 0.0292	-0.6382	-1.0453	 0.2850	-0.7604	65.9202	99.9897	
   584	-0.8298	-0.2859	-1.1157	-0.6933	 0.0522	-0.6412	-1.0724	 0.3247	-0.7478	65.8359	99.9898	
   585	-0.8688	-0.2799	-1.1487	-0.7280	 0.0438	-0.6842	-1.1371	 0.3295	-0.8077	65.7514	99.9899	
   586	-0.8432	-0.2491	-1.0923	-0.6845	 0.0835	-0.6010	-1.0580	 0.3678	-0.6903	65.8359	99.9896	
   587	-0.7950	-0.2344	-1.0294	-0.6695	 0.1057	-0.5638	-1.0566	 0.3914	-0.6653	65.7095	99.9895	
   588	-0.8648	-0.2174	-1.0822	-0.7363	 0.1293	-0.6070	-1.1028	 0.4078	-0.6952	65.7096	99.9894	
   589	-0.9110	-0.2008	-1.1118	-0.7701	 0.1344	-0.6357	-1.1498	 0.4123	-0.7376	65.7095	99.9897	
   590	-0.9582	-0.1999	-1.1581	-0.8307	 0.1489	-0.6818	-1.2191	 0.4368	-0.7824	65.5407	99.9897	
   591	-1.0043	-0.1833	-1.1877	-0.8779	 0.1587	-0.7192	-1.2892	 0.4495	-0.8398	65.4558	99.9900	
   592	-0.9869	-0.1576	-1.1445	-0.8486	 0.1897	-0.6590	-1.2340	 0.4842	-0.7499	65.4988	99.9896	
   593	-0.9059	-0.1227	-1.0286	-0.8256	 0.2297	-0.5959	-1.2264	 0.5117	-0.7148	65.3714	99.9894	
   594	-0.9316	-0.0336	-0.9652	-0.7763	 0.3638	-0.4125	-1.0767	 0.7419	-0.3349	65.1681	99.9863	
   595	-0.8086	 0.0422	-0.7664	-0.5586	 0.4590	-0.0996	-0.6676	 0.7721	 0.1044	66.0016	99.9857	
   596	-0.9737	-0.0744	-1.0481	-0.6614	 0.3438	-0.3176	-0.7889	 0.7186	-0.0704	65.8777	99.9856	
   597	-0.8435	 0.1107	-0.7329	-0.4524	 0.6280	 0.1756	-0.4518	 1.0212	 0.5693	65.8366	99.9857	
   598	-0.6590	 0.2843	-0.3747	-0.1888	 0.8034	 0.6146	-0.1853	 1.1319	 0.9464	66.2014	99.9892	
   599	-1.1745	-0.3781	-1.5526	-1.6989	-0.4119	-2.1108	-3.2343	-0.6706	-3.9049	64.7060	99.9993	
   600	-2.7125	-0.5299	-3.2424	-2.7388	-0.2235	-2.9623	-3.2291	-0.2929	-3.5221	65.6580	99.9962	
   601	-2.0517	-0.5431	-2.5947	-2.4027	-0.4180	-2.8206	-3.3086	-0.2407	-3.5494	63.9931	99.9917	
   602	-1.7503	-0.2675	-2.0178	-1.7981	-0.0326	-1.8307	-2.3920	 0.1765	-2.2156	64.9238	99.9913	
   603	-1.3390	 0.0006	-1.3384	-1.1839	 0.3976	-0.7863	-1.4408	 0.7742	-0.6667	64.9993	99.9853	
   604	-1.0385	 0.1406	-0.8979	-0.8296	 0.6029	-0.2267	-0.9303	 1.0155	 0.0851	65.1766	99.9824	
   605	-1.0448	 0.2868	-0.7580	-0.6331	 0.9053	 0.2722	-0.5214	 1.4313	 0.9098	65.0309	99.9811	
   606	-0.9311	 0.4618	-0.4693	-0.3636	 1.1750	 0.8114	-0.0897	 1.7367	 1.6468	65.2028	99.9813	
   607	-0.9650	 0.5459	-0.4191	-0.3142	 1.3090	 0.9948	 0.0225	 1.9320	 1.9543	65.0508	99.9806	
   608	-1.0543	 0.5060	-0.5483	-0.3719	 1.2605	 0.8886	-0.0642	 1.8662	 1.8019	65.1282	99.9827	
   609	-1.8218	 0.4535	-1.3682	-1.2498	 1.4192	 0.1695	-1.1425	 2.2894	 1.1468	62.3938	99.9828	
   610	-2.7274	 1.0661	-1.6613	-1.9035	 2.1046	 0.2011	-1.6587	 2.9296	 1.2708	62.1559	99.9882	
   611	-2.7368	 1.2853	-1.4516	-1.8570	 2.3016	 0.4446	-1.5793	 3.0702	 1.4908	62.4382	99.9896	
   612	-2.6446	 1.3721	-1.2725	-1.8808	 2.2481	 0.3672	-1.6691	 2.8550	 1.1857	63.0273	99.9903	
   613	-2.3950	 1.0907	-1.3042	-1.7337	 1.6522	-0.0816	-1.6157	 1.9806	 0.3648	65.0275	99.9914	
   614	-2.4752	 0.2163	-2.2589	-1.8516	 0.7506	-1.1010	-1.8322	 1.2318	-0.6006	64.9800	99.9882	
   615	-1.4296	 0.3049	-1.1247	-0.9335	 0.7980	-0.1355	-1.1583	 1.2467	 0.0883	64.9341	99.9913	
   616	-1.3179	 0.4487	-0.8693	-0.7801	 0.9572	 0.1771	-0.8554	 1.2782	 0.4228	65.7143	99.9923	
   617	-1.5906	 0.1308	-1.4597	-1.4035	 0.5991	-0.8044	-1.8076	 1.0544	-0.7533	63.9080	99.9892	
   618	-1.5272	 0.3798	-1.1473	-1.0169	 0.9927	-0.0242	-1.1281	 1.3565	 0.2283	64.9797	99.9935	
   619	-1.4738	 0.3527	-1.1211	-0.9493	 0.9826	 0.0333	-1.0877	 1.4386	 0.3508	64.6158	99.9925	
   620	-1.3487	 0.4597	-0.8890	-0.7299	 1.1047	 0.3748	-0.8180	 1.5060	 0.6879	65.0682	99.9943	
   621	-1.5088	 0.4212	-1.0876	-0.9141	 1.1079	 0.1937	-0.9614	 1.5747	 0.6132	64.6658	99.9926	
   622	-1.5273	 0.4998	-1.0275	-0.8681	 1.1880	 0.3199	-0.8856	 1.6564	 0.7707	64.7910	99.9930	
   623	-1.6289	 0.5122	-1.1167	-0.9412	 1.2207	 0.2795	-0.9344	 1.7279	 0.7933	64.6333	99.9924	
   624	-1.6649	 0.5651	-1.0998	-0.9433	 1.2972	 0.3539	-0.9103	 1.8338	 0.9234	64.5177	99.9922	
   625	-1.6342	 0.6740	-0.9602	-0.8709	 1.4713	 0.6004	-0.7184	 2.0793	 1.3608	64.3333	99.9897	
   626	-1.4907	 0.8224	-0.6683	-0.6954	 1.6571	 0.9617	-0.4946	 2.2653	 1.7706	64.3423	99.9899	
   627	-1.3584	 0.9188	-0.4396	-0.5417	 1.7130	 1.1713	-0.3993	 2.2798	 1.8804	64.5368	99.9918	
   628	-1.2968	 0.8967	-0.4001	-0.5768	 1.5877	 1.0109	-0.6349	 1.9955	 1.3606	64.8351	99.9956	
   629	-1.4281	 0.8159	-0.6122	-0.7422	 1.5635	 0.8213	-0.7365	 2.1700	 1.4334	64.0048	99.9906	
   630	-1.3821	 1.0392	-0.3429	-0.6038	 1.9208	 1.3170	-0.4511	 2.4969	 2.0457	64.0285	99.9923	
   631	-1.5442	 0.9694	-0.5748	-0.8344	 1.7269	 0.8925	-0.8214	 2.2301	 1.4086	64.2018	99.9935	
   632	-1.5391	 1.0475	-0.4916	-0.7345	 1.9050	 1.1705	-0.5919	 2.5105	 1.9185	63.9488	99.9919	
   633	-1.3771	 1.1173	-0.2598	-0.5674	 1.9561	 1.3887	-0.4511	 2.4969	 2.0457	64.2224	99.9935	
   634	-1.3935	 1.1072	-0.2863	-0.5950	 1.9521	 1.3571	-0.4904	 2.5289	 2.0383	64.0257	99.9929	
   635	-1.3987	 1.1490	-0.2496	-0.5925	 1.9925	 1.4001	-0.4944	 2.5604	 2.0659	64.0257	99.9933	
   636	-1.4151	 1.1389	-0.2761	-0.6192	 2.0020	 1.3828	-0.5060	 2.5645	 2.0584	63.9869	99.9933	
   637	-1.4130	 1.1702	-0.2429	-0.6309	 2.0336	 1.4028	-0.5223	 2.5883	 2.0660	63.9464	99.9934	
   638	-1.4274	 1.1913	-0.2361	-0.6371	 2.0427	 1.4056	-0.5577	 2.5888	 2.0310	63.9440	99.9940	
   639	-1.4356	 1.1863	-0.2494	-0.6576	 2.0431	 1.3855	-0.5692	 2.5929	 2.0235	63.9046	99.9937	
   640	-1.3762	 1.2529	-0.1233	-0.5911	 2.1229	 1.5317	-0.5158	 2.6945	 2.1785	63.7503	99.9938	
   641	-1.4347	 1.3218	-0.1129	-0.6404	 2.2091	 1.5688	-0.5524	 2.7737	 2.2212	63.6737	99.9941	
   642	-1.4471	 1.3742	-0.0729	-0.6236	 2.2583	 1.6347	-0.5304	 2.8442	 2.3137	63.6385	99.9939	
   643	-1.4533	 1.4004	-0.0529	-0.6299	 2.2674	 1.6375	-0.5257	 2.8245	 2.2987	63.7941	99.9941	
   644	-1.5179	 1.3756	-0.1423	-0.7064	 2.2462	 1.5399	-0.6142	 2.8256	 2.2113	63.6351	99.9937	
   645	-1.6791	 1.4414	-0.2376	-0.9239	 2.3713	 1.4474	-0.8184	 3.0604	 2.2419	62.8151	99.9912	
   646	-1.8434	 1.5803	-0.2631	-1.0613	 2.4680	 1.4067	-0.8885	 3.0731	 2.1846	63.2456	99.9915	
   647	-1.7232	 1.4892	-0.2340	-0.9185	 2.3487	 1.4302	-0.7443	 3.0162	 2.2718	63.3295	99.9897	
   648	-1.5160	 1.5268	 0.0108	-0.6749	 2.4210	 1.7461	-0.4829	 3.0443	 2.5613	63.5729	99.9917	
   649	-1.2922	 1.4546	 0.1623	-0.4566	 2.3094	 1.8529	-0.2718	 2.8251	 2.5532	64.2319	99.9933	
   650	-1.1360	 1.1907	 0.0547	-0.5884	 1.8396	 1.2512	-0.7662	 2.2648	 1.4986	64.1003	99.9945	
   651	-1.2438	 1.2294	-0.0144	-0.6956	 1.9808	 1.2852	-0.6851	 2.5314	 1.8462	63.6425	99.9896	
   652	-1.1269	 1.3313	 0.2044	-0.5314	 2.0949	 1.5635	-0.5385	 2.6121	 2.0735	63.7667	99.9919	
   653	-1.0521	 1.3924	 0.3403	-0.4098	 2.1828	 1.7729	-0.3858	 2.6968	 2.3108	63.8552	99.9925	
   654	-1.1033	 1.3308	 0.2275	-0.5536	 2.0683	 1.5147	-0.6110	 2.4871	 1.8760	63.9936	99.9938	
   655	-1.2386	 1.1875	-0.0511	-0.8231	 1.7986	 0.9755	-1.0503	 2.1544	 1.1040	64.0003	99.9944	
   656	-1.4611	 1.0356	-0.4256	-1.1482	 1.6243	 0.4761	-1.4381	 1.9901	 0.5520	63.6530	99.9936	
   657	-1.5217	 1.0733	-0.4484	-1.1247	 1.7812	 0.6566	-1.3053	 2.2324	 0.9270	63.3138	99.9929	
   658	-1.4808	 1.2185	-0.2624	-0.9111	 2.0294	 1.1183	-0.9520	 2.5112	 1.5591	63.4746	99.9938	
   659	-1.4008	 1.2377	-0.1631	-0.8238	 2.0054	 1.1816	-0.9331	 2.4323	 1.4990	63.7064	99.9954	
   660	-1.4306	 1.2644	-0.1662	-0.8338	 2.0640	 1.2302	-0.9104	 2.5146	 1.6041	63.5932	99.9951	
   661	-1.4614	 1.2754	-0.1859	-0.8606	 2.0735	 1.2129	-0.9520	 2.5112	 1.5591	63.5910	99.9956	
   662	-1.4994	 1.2970	-0.2023	-0.8856	 2.1099	 1.2243	-0.9545	 2.5663	 1.6117	63.5154	99.9953	
   663	-1.5055	 1.3232	-0.1823	-0.8902	 2.1459	 1.2557	-0.9571	 2.6215	 1.6643	63.3978	99.9951	
   664	-1.5097	 1.3807	-0.1290	-0.8521	 2.2082	 1.3561	-0.8882	 2.6875	 1.7992	63.4853	99.9951	
   665	-1.4215	 1.4050	-0.0165	-0.7820	 2.2385	 1.4565	-0.8113	 2.6904	 1.8791	63.5649	99.9953	
   666	-1.3671	 1.3935	 0.0264	-0.8041	 2.2119	 1.4078	-0.8611	 2.6478	 1.7866	63.4754	99.9948	
   667	-1.3887	 1.4252	 0.0365	-0.8300	 2.2348	 1.4048	-0.8766	 2.6834	 1.8067	63.4362	99.9943	
   668	-1.4102	 1.4569	 0.0467	-0.8204	 2.2796	 1.4592	-0.8785	 2.7503	 1.8717	63.3203	99.9947	
   669	-1.4092	 1.4725	 0.0633	-0.8258	 2.3022	 1.4764	-0.8723	 2.7542	 1.8817	63.3602	99.9948	
   670	-1.4534	 1.5203	 0.0669	-0.8358	 2.3608	 1.5250	-0.8605	 2.8524	 1.9918	63.2488	99.9944	
   671	-1.4360	 1.5461	 0.1101	-0.8057	 2.4052	 1.5996	-0.8060	 2.8753	 2.0692	63.3324	99.9947	
   672	-1.3724	 1.5552	 0.1829	-0.7363	 2.4220	 1.6857	-0.7623	 2.9141	 2.1517	63.2149	99.9949	
   673	-1.4329	 1.5929	 0.1600	-0.8006	 2.4861	 1.6854	-0.7873	 2.9892	 2.2018	63.1011	99.9944	
   674	-1.4637	 1.6040	 0.1402	-0.8202	 2.4999	 1.6796	-0.8097	 3.0092	 2.1994	63.0624	99.9945	
   675	-1.5161	 1.6467	 0.1306	-0.8561	 2.5814	 1.7253	-0.8195	 3.1392	 2.3195	62.7959	99.9940	
   676	-1.5449	 1.6890	 0.1442	-0.8820	 2.6043	 1.7223	-0.8203	 3.1274	 2.3070	62.9923	99.9940	
   677	-1.6147	 1.7061	 0.0914	-0.9755	 2.6374	 1.6618	-0.8868	 3.1991	 2.3122	62.7584	99.9926	
   678	-1.6188	 1.7635	 0.1447	-0.9028	 2.7081	 1.8052	-0.7774	 3.3472	 2.5696	62.6614	99.9916	
   679	-1.6754	 1.8637	 0.1883	-0.9675	 2.8755	 1.9080	-0.8632	 3.5883	 2.7250	62.0055	99.9915	
   680	-2.3459	 2.3360	-0.0099	-1.6609	 3.4716	 1.8107	-1.4928	 4.3048	 2.8119	60.5075	99.9893	
   681	-2.3769	 2.5869	 0.2100	-1.6500	 3.6468	 1.9968	-1.4860	 4.3205	 2.8344	61.1529	99.9925	
   682	-2.3122	 2.4918	 0.1796	-1.6020	 3.4302	 1.8281	-1.4312	 3.9577	 2.5264	62.1407	99.9931	
   683	-2.3024	 1.9128	-0.3896	-1.7495	 2.6010	 0.8515	-1.7613	 2.9899	 1.2285	63.1731	99.9932	
   684	-1.9575	 1.7651	-0.1924	-1.2362	 2.6193	 1.3831	-1.1150	 3.1351	 2.0200	63.1880	99.9930	
   685	-1.5151	 1.6624	 0.1473	-0.9577	 2.3763	 1.4186	-1.1057	 2.8005	 1.6947	63.3401	99.9952	
   686	-1.4967	 1.7037	 0.2070	-0.9268	 2.4343	 1.5075	-1.0172	 2.7993	 1.7820	63.6261	99.9955	
   687	-1.5642	 1.5121	-0.0521	-1.2506	 2.1700	 0.9194	-1.5024	 2.5852	 1.0827	62.8498	99.9930	
   688	-1.5305	 1.6679	 0.1374	-1.0709	 2.4232	 1.3523	-1.1498	 2.8522	 1.7023	63.0987	99.9931	
   689	-1.6074	 1.5756	-0.0318	-1.2226	 2.2909	 1.0683	-1.4054	 2.7256	 1.3201	62.8308	99.9933	
   690	-1.4546	 1.7446	 0.2900	-0.9414	 2.5289	 1.5876	-1.0303	 2.9727	 1.9422	63.0292	99.9942	
   691	-1.4249	 1.7179	 0.2931	-0.9928	 2.4713	 1.4786	-1.1538	 2.8837	 1.7299	62.9283	99.9945	
   692	-1.4546	 1.7446	 0.2900	-0.9911	 2.4983	 1.5072	-1.1469	 2.8994	 1.7524	63.0118	99.9950	
   693	-1.5121	 1.7092	 0.1972	-1.0897	 2.4505	 1.3608	-1.2505	 2.8456	 1.5950	62.9630	99.9945	
   694	-1.5172	 1.7511	 0.2338	-1.0445	 2.5172	 1.4726	-1.1979	 2.9355	 1.7375	62.8927	99.9949	
   695	-1.5398	 1.7672	 0.2273	-1.0437	 2.5306	 1.4870	-1.2026	 2.9552	 1.7525	62.8947	99.9952	
   696	-1.4896	 1.8131	 0.3235	-0.9826	 2.6330	 1.6504	-1.0716	 3.0716	 1.9999	62.8308	99.9947	
   697	-1.4004	 1.8530	 0.4526	-0.8698	 2.6895	 1.8197	-0.9611	 3.1410	 2.1798	62.7986	99.9950	
   698	-1.4055	 1.8948	 0.4893	-0.8665	 2.7434	 1.8770	-0.9554	 3.2354	 2.2799	62.6052	99.9945	
   699	-1.4271	 1.9266	 0.4994	-0.8631	 2.7973	 1.9342	-0.9273	 3.3098	 2.3824	62.5351	99.9944	
   700	-1.3923	 1.9780	 0.5857	-0.8029	 2.8862	 2.0833	-0.8215	 3.3989	 2.5773	62.5488	99.9944	
   701	-1.3974	 2.0198	 0.6224	-0.7995	 2.9401	 2.1406	-0.7988	 3.4813	 2.6823	62.4377	99.9939	
   702	-1.3790	 2.0612	 0.6821	-0.7481	 2.9977	 2.2495	-0.7108	 3.5706	 2.8597	62.4124	99.9933	
   703	-1.2960	 2.1273	 0.8313	-0.6595	 3.1041	 2.4445	-0.6008	 3.7306	 3.1297	62.1536	99.9925	
   704	-1.2673	 2.2049	 0.9376	-0.6315	 3.2250	 2.5935	-0.5113	 3.8435	 3.3322	62.1285	99.9921	
   705	-1.3043	 2.2422	 0.9379	-0.6423	 3.2701	 2.6278	-0.5294	 3.9343	 3.4048	61.9409	99.9919	
   706	-1.3105	 2.2684	 0.9579	-0.6344	 3.2880	 2.6536	-0.5178	 3.9302	 3.4123	62.0576	99.9923	
   707	-1.2612	 2.2987	 1.0374	-0.5980	 3.3233	 2.7253	-0.4803	 3.9651	 3.4847	62.0199	99.9922	
   708	-1.2326	 2.3763	 1.1437	-0.5424	 3.4482	 2.9058	-0.3962	 4.0860	 3.6897	61.9567	99.9929	
   709	-1.0479	 2.4300	 1.3820	-0.3795	 3.4320	 3.0525	-0.3120	 4.0141	 3.7020	62.2110	99.9940	
   710	-1.2089	 2.2559	 1.0470	-0.6687	 3.1762	 2.5075	-0.6102	 3.7700	 3.1598	62.1777	99.9907	
   711	-1.4541	 2.2400	 0.7859	-0.8591	 3.1884	 2.3292	-0.7362	 3.7362	 3.0000	62.3797	99.9918	
   712	-1.3186	 2.1434	 0.8248	-0.8141	 3.0348	 2.2206	-0.7974	 3.5049	 2.7073	62.5435	99.9931	
   713	-1.2580	 2.1057	 0.8477	-0.8109	 2.8684	 2.0575	-0.9641	 3.2866	 2.3224	62.7025	99.9945	
   714	-1.4128	 2.0253	 0.6125	-0.9930	 2.7950	 1.8020	-1.1692	 3.2145	 2.0452	62.5302	99.9947	
   715	-1.4600	 2.0263	 0.5662	-1.0155	 2.8718	 1.8563	-1.0967	 3.3395	 2.2427	62.3538	99.9935	
   716	-1.3616	 2.0869	 0.7253	-0.9010	 2.9553	 2.0543	-0.9902	 3.4404	 2.4501	62.2431	99.9939	
   717	-1.3545	 2.1963	 0.8417	-0.8366	 3.1116	 2.2749	-0.8603	 3.6355	 2.7751	62.1508	99.9934	
   718	-1.3525	 2.2275	 0.8750	-0.8270	 3.1564	 2.3294	-0.8405	 3.6707	 2.8301	62.1543	99.9937	
   719	-1.3587	 2.2537	 0.8950	-0.8057	 3.1695	 2.3638	-0.8438	 3.7140	 2.8701	62.0777	99.9938	
   720	-1.3495	 2.2744	 0.9249	-0.8245	 3.1968	 2.3723	-0.8568	 3.6945	 2.8376	62.1508	99.9942	
   721	-1.3659	 2.2643	 0.8984	-0.8742	 3.1661	 2.2920	-0.9174	 3.6677	 2.7502	62.1029	99.9936	
   722	-1.3023	 2.2734	 0.9712	-0.8287	 3.1294	 2.3007	-0.8802	 3.6004	 2.7201	62.3330	99.9934	
   723	-1.2469	 2.2775	 1.0307	-0.8329	 3.0620	 2.2292	-0.9744	 3.5071	 2.5327	62.3470	99.9937	
   724	-1.2971	 2.2316	 0.9345	-0.9449	 3.0190	 2.0741	-1.0780	 3.4534	 2.3753	62.2564	99.9929	
   725	-1.3269	 2.2583	 0.9314	-0.9449	 3.0190	 2.0741	-1.0895	 3.4575	 2.3678	62.3368	99.9931	
   726	-1.3996	 2.1085	 0.7089	-1.1451	 2.7661	 1.6211	-1.4522	 3.0253	 1.5730	62.7178	99.9958	
   727	-1.6631	 1.9313	 0.2681	-1.4513	 2.5645	 1.1132	-1.7734	 2.7894	 1.0159	62.7773	99.9958	
   728	-1.7185	 1.9272	 0.2086	-1.4701	 2.5918	 1.1217	-1.7417	 2.9228	 1.1809	62.4685	99.9942	
   729	-1.6067	 1.9510	 0.3443	-1.4150	 2.5998	 1.1849	-1.7576	 2.8561	 1.0984	62.5306	99.9956	
   730	-1.6017	 2.0291	 0.4275	-1.3940	 2.7164	 1.3224	-1.6952	 3.0088	 1.3134	62.3407	99.9951	
   731	-1.5566	 2.1169	 0.5603	-1.3171	 2.8544	 1.5374	-1.5368	 3.1877	 1.6508	62.2451	99.9941	
   732	-1.5956	 2.1229	 0.5273	-1.3191	 2.9309	 1.6118	-1.4907	 3.3642	 1.8734	61.8259	99.9929	
   733	-1.5557	 2.2524	 0.6967	-1.1791	 3.0949	 1.9157	-1.3132	 3.5666	 2.2533	61.8184	99.9934	
   734	-1.5363	 2.3094	 0.7731	-1.1093	 3.2286	 2.1193	-1.1678	 3.7261	 2.5582	61.7301	99.9934	
   735	-1.5342	 2.3406	 0.8064	-1.0579	 3.2861	 2.2282	-1.0573	 3.7955	 2.7381	61.8303	99.9931	
   736	-1.4942	 2.3503	 0.8560	-1.0153	 3.3124	 2.2971	-1.0382	 3.8188	 2.7806	61.7511	99.9939	
   737	-1.5506	 2.3305	 0.7799	-1.0658	 3.2683	 2.2024	-1.1187	 3.7569	 2.6382	61.8200	99.9944	
   738	-1.6235	 2.3007	 0.6772	-1.1448	 3.2067	 2.0619	-1.2407	 3.6916	 2.4508	61.8058	99.9948	
   739	-1.6665	 2.2442	 0.5777	-1.2380	 3.1363	 1.8983	-1.3479	 3.5788	 2.2309	61.8676	99.9949	
   740	-1.7239	 2.2088	 0.4849	-1.3374	 3.0751	 1.7376	-1.4822	 3.5058	 2.0236	61.8092	99.9948	
   741	-1.7414	 2.1831	 0.4418	-1.3800	 3.0488	 1.6688	-1.4973	 3.4509	 1.9535	61.9261	99.9944	
   742	-1.7085	 2.2033	 0.4948	-1.3400	 3.0346	 1.6947	-1.5218	 3.4355	 1.9136	61.9158	99.9952	
   743	-1.7188	 2.1670	 0.4483	-1.4252	 2.9821	 1.5569	-1.6229	 3.3266	 1.7036	61.9751	99.9951	
   744	-1.7854	 2.1110	 0.3256	-1.5263	 2.8939	 1.3676	-1.7893	 3.2107	 1.4213	61.9507	99.9958	
   745	-1.8285	 2.0545	 0.2261	-1.6329	 2.8283	 1.1954	-1.9141	 3.0982	 1.1839	61.9710	99.9958	
   746	-1.9033	 1.9934	 0.0901	-1.7223	 2.7084	 0.9861	-2.0758	 2.9625	 0.8866	62.0290	99.9963	
   747	-1.9771	 1.9480	-0.0292	-1.8155	 2.6381	 0.8226	-2.1755	 2.8772	 0.7017	62.1003	99.9962	
   748	-1.9710	 1.9218	-0.0492	-1.8314	 2.6024	 0.7710	-2.1974	 2.8067	 0.6091	62.2161	99.9963	
   749	-1.9924	 1.8336	-0.1589	-1.9029	 2.4418	 0.5389	-2.3551	 2.6395	 0.2842	62.2283	99.9965	
   750	-2.0929	 1.7417	-0.3512	-2.0324	 2.3361	 0.3036	-2.4963	 2.5508	 0.0544	62.1331	99.9960	
   751	-2.1503	 1.7063	-0.4440	-2.0821	 2.3054	 0.2233	-2.5392	 2.5238	-0.0155	62.1331	99.9960	
   752	-2.2077	 1.6710	-0.5367	-2.1594	 2.2708	 0.1113	-2.6074	 2.4696	-0.1380	62.1688	99.9959	
   753	-2.2744	 1.6150	-0.6594	-2.2472	 2.1778	-0.0693	-2.7500	 2.3573	-0.3928	62.1908	99.9964	
   754	-2.3410	 1.5589	-0.7821	-2.3128	 2.1115	-0.2013	-2.8312	 2.2836	-0.5478	62.2257	99.9966	
   755	-2.3420	 1.5433	-0.7987	-2.3216	 2.0802	-0.2414	-2.8688	 2.2486	-0.6202	62.2181	99.9968	
   756	-2.3913	 1.5130	-0.8782	-2.3713	 2.0496	-0.3217	-2.9525	 2.2300	-0.7226	62.0841	99.9971	
   757	-2.4775	 1.5199	-0.9575	-2.4344	 2.0237	-0.4107	-3.0370	 2.1996	-0.8375	62.1628	99.9974	
   758	-2.5205	 1.4634	-1.0571	-2.5259	 1.9802	-0.5456	-3.1298	 2.1300	-0.9999	62.1084	99.9973	
   759	-2.6077	 1.4548	-1.1529	-2.6094	 1.9547	-0.6547	-3.2150	 2.0878	-1.1273	62.1876	99.9974	
   760	-2.7021	 1.4566	-1.2455	-2.6859	 1.9335	-0.7524	-3.3219	 2.0774	-1.2446	62.1382	99.9977	
   761	-2.6549	 1.4557	-1.1992	-2.6504	 1.9554	-0.6950	-3.2551	 2.1080	-1.1472	62.1032	99.9973	
   762	-2.6385	 1.4658	-1.1727	-2.6575	 1.9510	-0.7065	-3.2973	 2.0928	-1.2046	62.0497	99.9975	
   763	-2.6837	 1.4980	-1.1857	-2.6808	 2.0143	-0.6665	-3.2815	 2.1595	-1.1221	62.0188	99.9974	
   764	-2.6735	 1.5343	-1.1392	-2.6553	 2.0948	-0.5605	-3.2111	 2.2491	-0.9621	61.9495	99.9973	
   765	-2.6232	 1.5802	-1.0430	-2.5780	 2.1295	-0.4485	-3.1606	 2.3035	-0.8572	61.9110	99.9976	
   766	-2.6294	 1.6064	-1.0230	-2.5826	 2.1655	-0.4171	-3.1393	 2.3623	-0.7771	61.8342	99.9971	
   767	-2.5300	 1.6826	-0.8473	-2.4380	 2.2935	-0.1445	-2.8733	 2.5635	-0.3099	61.7955	99.9955	
   768	-2.3669	 1.7680	-0.5988	-2.2729	 2.4210	 0.1481	-2.6524	 2.7023	 0.0498	61.7772	99.9949	
   769	-2.3024	 1.9128	-0.3896	-2.0932	 2.6742	 0.5810	-2.3172	 3.0719	 0.7546	61.5618	99.9931	
   770	-2.1793	 1.9885	-0.1908	-1.9528	 2.7348	 0.7820	-2.2034	 3.0980	 0.8944	61.7260	99.9942	
   771	-2.1117	 2.0602	-0.0515	-1.8634	 2.8547	 0.9913	-2.0648	 3.2418	 1.1768	61.6267	99.9938	
   772	-2.0881	 2.0597	-0.0284	-1.8546	 2.8860	 1.0314	-2.0245	 3.3239	 1.2993	61.3951	99.9925	
   773	-2.1004	 2.1121	 0.0117	-1.7919	 3.0153	 1.2234	-1.8797	 3.4716	 1.5917	61.3926	99.9929	
   774	-2.1824	 1.9416	-0.2407	-1.9099	 2.6577	 0.7478	-2.1610	 2.9203	 0.7592	62.3348	99.9959	
   775	-2.2889	 1.7560	-0.5328	-2.1757	 2.3385	 0.1628	-2.5702	 2.4022	-0.1681	62.8857	99.9969	
   776	-2.5749	 1.4750	-1.0999	-2.5347	 1.9489	-0.5857	-3.0626	 2.0701	-0.9926	62.6298	99.9968	
   777	-2.7984	 1.3074	-1.4911	-2.8030	 1.5893	-1.2137	-3.5515	 1.5019	-2.0498	63.4672	99.9989	
   778	-3.0313	 1.2390	-1.7923	-3.0276	 1.7100	-1.3176	-3.5832	 1.8564	-1.7268	62.3025	99.9966	
   779	-2.6510	 1.6381	-1.0129	-2.5190	 2.3083	-0.2107	-2.8997	 2.6150	-0.2848	61.6475	99.9953	
   780	-2.3906	 1.8884	-0.5022	-2.1500	 2.6392	 0.4892	-2.4182	 2.9630	 0.5447	61.7932	99.9954	
   781	-2.2727	 2.0060	-0.2667	-2.0163	 2.8123	 0.7960	-2.2591	 3.1538	 0.8946	61.6099	99.9955	
   782	-2.2563	 2.0161	-0.2402	-2.0259	 2.7675	 0.7416	-2.2893	 3.0440	 0.7545	61.9195	99.9958	
   783	-2.3106	 1.9077	-0.4029	-2.1605	 2.5810	 0.4205	-2.4560	 2.8257	 0.3696	62.0940	99.9949	
   784	-2.3791	 1.7005	-0.6786	-2.3649	 2.2607	-0.1042	-2.7436	 2.4635	-0.2802	62.2493	99.9939	
   785	-2.5339	 1.5002	-1.0337	-2.5634	 2.0348	-0.5286	-2.9707	 2.3208	-0.6500	61.9382	99.9917	
   786	-2.6149	 1.4653	-1.1496	-2.6194	 2.0133	-0.6061	-2.9707	 2.3208	-0.6500	61.9925	99.9907	
   787	-2.5687	 1.4488	-1.1199	-2.5981	 2.0264	-0.5717	-2.9414	 2.3165	-0.6250	61.9503	99.9910	
   788	-2.6733	 1.4144	-1.2590	-2.6512	 1.9419	-0.7093	-3.0471	 2.2273	-0.8199	62.1087	99.9923	
   789	-2.7780	 1.3799	-1.3980	-2.7435	 1.8850	-0.8585	-3.1291	 2.1418	-0.9874	62.3142	99.9925	
   790	-2.8713	 1.2775	-1.5937	-2.8543	 1.7520	-1.1023	-3.2936	 1.9590	-1.3348	62.4614	99.9939	
   791	-3.0055	 1.1498	-1.8557	-3.0662	 1.5308	-1.5353	-3.6104	 1.6010	-2.0095	62.8841	99.9958	
   792	-3.3048	 0.7856	-2.5192	-3.5347	 0.9184	-2.6163	-4.3307	 0.8193	-3.5115	63.5415	99.9973	
   793	-3.7497	 0.3617	-3.3881	-4.0792	 0.4016	-3.6776	-4.9945	 0.2887	-4.7059	63.4937	99.9973	
   794	-3.9240	 0.2244	-3.6997	-4.2656	 0.2609	-4.0047	-5.1590	 0.1059	-5.0533	63.7144	99.9974	
   795	-4.0737	 0.1022	-3.9715	-4.4573	 0.1427	-4.3146	-5.3424	 0.0020	-5.3406	63.5686	99.9967	
   796	-4.1045	 0.1133	-3.9913	-4.4352	 0.1693	-4.2659	-5.3089	 0.0684	-5.2405	63.4865	99.9967	
   797	-4.0543	 0.1592	-3.8951	-4.3625	 0.2400	-4.1224	-5.2031	 0.1576	-5.0456	63.4517	99.9965	
   798	-4.0553	 0.1436	-3.9117	-4.3437	 0.2127	-4.1309	-5.1692	 0.1335	-5.0357	63.5914	99.9963	
   799	-3.9599	 0.1573	-3.8026	-4.2292	 0.2962	-3.9330	-4.9898	 0.2690	-4.7209	63.3838	99.9955	
   800	-3.8932	 0.2133	-3.6799	-4.1369	 0.3531	-3.7838	-4.9031	 0.3347	-4.5685	63.3894	99.9958	
   801	-3.8922	 0.2290	-3.6633	-4.1227	 0.3619	-3.7608	-4.8779	 0.3620	-4.5160	63.3931	99.9954	
   802	-3.8922	 0.2290	-3.6633	-4.1218	 0.3753	-3.7465	-4.8826	 0.3817	-4.5010	63.3038	99.9955	
   803	-3.8902	 0.2602	-3.6300	-4.1051	 0.4245	-3.6806	-4.8342	 0.4008	-4.4336	63.4436	99.9959	
   804	-3.8882	 0.2914	-3.5967	-4.0767	 0.4420	-3.6347	-4.8082	 0.4398	-4.3686	63.4472	99.9958	
   805	-3.7856	 0.2946	-3.4910	-3.9806	 0.4494	-3.5312	-4.7313	 0.4427	-4.2887	63.4472	99.9961	
   806	-3.7784	 0.2840	-3.4944	-4.0011	 0.4497	-3.5514	-4.7728	 0.4393	-4.3336	63.3076	99.9963	
   807	-3.7826	 0.3415	-3.4411	-3.9827	 0.5258	-3.4568	-4.7101	 0.5015	-4.2087	63.4059	99.9963	
   808	-3.7579	 0.3566	-3.4013	-3.9818	 0.5393	-3.4425	-4.7270	 0.5135	-4.2136	63.3124	99.9963	
   809	-3.7805	 0.3727	-3.4078	-3.9881	 0.5484	-3.4397	-4.7317	 0.5332	-4.1986	63.3143	99.9962	
   810	-3.7887	 0.3677	-3.4211	-4.0014	 0.5531	-3.4483	-4.7263	 0.5253	-4.2011	63.3601	99.9962	
   811	-3.7415	 0.3667	-3.3748	-3.9613	 0.5390	-3.4224	-4.6924	 0.5012	-4.1912	63.4481	99.9962	
   812	-3.7271	 0.3456	-3.3816	-3.9568	 0.5029	-3.4539	-4.7353	 0.4742	-4.2612	63.3517	99.9965	
   813	-3.7990	 0.3314	-3.4676	-4.0190	 0.4905	-3.5285	-4.7721	 0.4511	-4.3211	63.4427	99.9964	
   814	-3.8144	 0.3369	-3.4775	-4.0190	 0.4905	-3.5285	-4.7891	 0.4631	-4.3261	63.3977	99.9966	
   815	-3.8226	 0.3318	-3.4907	-4.0324	 0.4952	-3.5372	-4.8007	 0.4672	-4.3336	63.3526	99.9966	
   816	-3.8472	 0.3167	-3.5305	-4.0813	 0.4780	-3.6032	-4.8491	 0.4482	-4.4010	63.3038	99.9964	
   817	-3.8400	 0.3061	-3.5339	-4.0545	 0.4686	-3.5859	-4.8144	 0.4359	-4.3786	63.3968	99.9965	
   818	-3.8000	 0.3158	-3.4842	-4.0474	 0.4730	-3.5744	-4.8151	 0.4241	-4.3911	63.3921	99.9964	
   819	-3.8164	 0.3057	-3.5107	-4.0813	 0.4780	-3.6032	-4.8389	 0.4205	-4.4185	63.3461	99.9964	
   820	-3.8554	 0.3116	-3.5437	-4.0955	 0.4693	-3.6262	-4.8628	 0.4169	-4.4460	63.3912	99.9966	
   821	-3.8780	 0.3277	-3.5502	-4.1088	 0.4740	-3.6348	-4.8967	 0.4409	-4.4559	63.3000	99.9966	
   822	-3.9077	 0.3544	-3.5533	-4.1268	 0.5148	-3.6120	-4.9000	 0.4842	-4.4159	63.2587	99.9966	
   823	-3.8985	 0.3751	-3.5235	-4.1109	 0.5505	-3.5604	-4.8509	 0.5151	-4.3359	63.3095	99.9964	
   824	-3.8031	 0.3888	-3.4143	-4.0282	 0.5626	-3.4656	-4.7787	 0.5378	-4.2410	63.2655	99.9963	
   825	-3.8021	 0.4044	-3.3977	-4.0336	 0.5851	-3.4485	-4.7943	 0.5734	-4.2210	63.1305	99.9962	
   826	-3.8175	 0.4100	-3.4075	-4.0532	 0.5989	-3.4543	-4.8167	 0.5934	-4.2234	63.0406	99.9962	
   827	-3.8483	 0.4210	-3.4273	-4.0666	 0.6037	-3.4629	-4.8167	 0.5934	-4.2234	63.1326	99.9962	
   828	-3.8719	 0.4215	-3.4504	-4.0808	 0.5949	-3.4859	-4.8466	 0.5859	-4.2609	63.1305	99.9965	
   829	-3.8955	 0.4220	-3.4735	-4.1217	 0.5956	-3.5261	-4.8766	 0.5784	-4.2983	63.1285	99.9962	
   830	-3.8637	 0.4265	-3.4372	-4.0799	 0.6084	-3.4715	-4.8221	 0.6013	-4.2209	63.1336	99.9961	
   831	-3.8155	 0.4412	-3.3743	-4.0515	 0.6259	-3.4256	-4.8044	 0.6011	-4.2034	63.1305	99.9963	
   832	-3.8545	 0.4472	-3.4073	-4.0728	 0.6128	-3.4601	-4.8282	 0.5974	-4.2309	63.1755	99.9962	
   833	-3.8637	 0.4265	-3.4372	-4.1129	 0.6269	-3.4860	-4.8568	 0.6135	-4.2433	62.9956	99.9960	
   834	-3.8853	 0.4582	-3.4270	-4.1112	 0.6539	-3.4574	-4.8553	 0.6371	-4.2183	63.0427	99.9963	
   835	-3.8843	 0.4739	-3.4104	-4.1238	 0.6721	-3.4517	-4.8702	 0.6846	-4.1857	62.8640	99.9958	
   836	-3.8997	 0.4794	-3.4203	-4.1087	 0.6943	-3.4144	-4.8456	 0.7000	-4.1457	62.9144	99.9963	
   837	-3.8114	 0.5037	-3.3077	-4.0465	 0.7067	-3.3397	-4.7741	 0.7109	-4.0634	62.9593	99.9957	
   838	-3.8186	 0.5143	-3.3044	-4.0598	 0.7114	-3.3484	-4.8027	 0.7270	-4.0758	62.8674	99.9956	
   839	-3.8422	 0.5147	-3.3275	-4.0991	 0.7391	-3.3600	-4.8081	 0.7349	-4.0733	62.8696	99.9955	
   840	-3.8648	 0.5308	-3.3340	-4.1053	 0.7482	-3.3572	-4.8298	 0.7667	-4.0632	62.7810	99.9955	
   841	-3.8874	 0.5469	-3.3405	-4.1116	 0.7573	-3.3543	-4.8406	 0.7826	-4.0582	62.7822	99.9956	
   842	-3.9028	 0.5525	-3.3504	-4.1375	 0.7802	-3.3573	-4.8576	 0.7946	-4.0631	62.7374	99.9957	
   843	-3.8936	 0.5731	-3.3205	-4.0957	 0.7930	-3.3027	-4.8031	 0.8175	-3.9857	62.8337	99.9957	
   844	-3.8064	 0.5818	-3.2246	-4.0602	 0.8149	-3.2453	-4.7609	 0.8327	-3.9283	62.7420	99.9951	
   845	-3.8516	 0.6140	-3.2376	-4.0656	 0.8374	-3.2282	-4.7873	 0.8842	-3.9032	62.6560	99.9954	
   846	-3.8506	 0.6296	-3.2209	-4.0764	 0.8826	-3.1939	-4.7728	 0.9273	-3.8457	62.5715	99.9953	
   847	-3.8567	 0.6558	-3.2009	-4.0748	 0.9095	-3.1653	-4.7707	 0.9627	-3.8081	62.5293	99.9952	
   848	-3.8721	 0.6614	-3.2108	-4.0810	 0.9186	-3.1624	-4.7815	 0.9786	-3.8031	62.4860	99.9953	
   849	-3.8875	 0.6669	-3.2207	-4.1077	 0.9280	-3.1797	-4.7924	 0.9944	-3.7981	62.4426	99.9949	
   850	-3.8383	 0.6972	-3.1411	-4.0430	 0.9809	-3.0621	-4.7065	 1.0484	-3.6581	62.4526	99.9950	
   851	-3.7891	 0.7275	-3.0616	-3.9941	 0.9981	-2.9960	-4.6744	 1.0913	-3.5832	62.3650	99.9946	
   852	-3.8117	 0.7436	-3.0681	-4.0191	 1.0344	-2.9847	-4.6899	 1.1269	-3.5631	62.2788	99.9947	
   853	-3.8415	 0.7702	-3.0712	-4.0317	 1.0526	-2.9790	-4.6885	 1.1505	-3.5381	62.3271	99.9945	
   854	-3.8415	 0.7702	-3.0712	-4.0442	 1.0708	-2.9734	-4.6932	 1.1703	-3.5231	62.2397	99.9944	
   855	-3.8558	 0.7914	-3.0645	-4.0630	 1.0981	-2.9648	-4.7026	 1.2097	-3.4930	62.1538	99.9940	
   856	-3.8692	 0.8282	-3.0411	-4.0533	 1.1429	-2.9104	-4.6759	 1.2605	-3.4155	62.1619	99.9940	
   857	-3.7964	 0.8580	-2.9384	-3.9831	 1.1732	-2.8100	-4.5907	 1.3027	-3.2881	62.1686	99.9934	
   858	-3.7708	 0.8888	-2.8820	-3.9664	 1.2224	-2.7441	-4.5796	 1.3892	-3.1905	61.9097	99.9929	
   859	-3.7903	 0.9517	-2.8386	-3.9543	 1.3076	-2.6467	-4.5208	 1.4829	-3.0381	61.9267	99.9926	
   860	-3.7555	 1.0032	-2.7523	-3.9029	 1.3651	-2.5377	-4.4526	 1.5371	-2.9156	61.9789	99.9927	
   861	-3.7627	 1.0138	-2.7489	-3.9191	 1.4329	-2.4862	-4.4162	 1.6507	-2.7656	61.6920	99.9914	
   862	-3.7146	 1.1484	-2.5662	-3.8246	 1.6336	-2.1910	-4.2554	 1.9674	-2.2880	61.2206	99.9889	
   863	-3.5404	 1.4056	-2.1348	-3.5279	 2.0107	-1.5172	-3.8375	 2.4343	-1.4033	60.9688	99.9883	
   864	-3.2830	 1.6090	-1.6740	-3.1898	 2.2837	-0.9061	-3.4296	 2.7360	-0.6938	60.9867	99.9888	
   865	-3.2256	 1.6444	-1.5812	-3.1509	 2.3594	-0.7915	-3.3538	 2.8176	-0.5363	60.8750	99.9882	
   866	-3.2646	 1.6504	-1.6142	-3.1793	 2.3419	-0.8374	-3.3899	 2.8063	-0.5838	60.9133	99.9879	
   867	-3.2800	 1.6559	-1.6241	-3.1856	 2.3510	-0.8346	-3.3715	 2.8179	-0.5538	60.9615	99.9875	
   868	-3.3046	 1.6408	-1.6639	-3.1785	 2.3554	-0.8231	-3.3456	 2.8569	-0.4888	60.8934	99.9871	
   869	-3.2954	 1.6614	-1.6340	-3.1521	 2.4494	-0.7028	-3.2709	 3.0173	-0.2538	60.5542	99.9858	
   870	-3.3058	 1.7451	-1.5607	-3.0702	 2.6683	-0.4019	-3.0306	 3.2818	 0.2511	60.4685	99.9854	
   871	-3.4441	 1.5549	-1.8892	-3.1291	 2.4894	-0.6397	-3.0891	 3.2904	 0.2012	60.0546	99.9811	
   872	-4.0629	 1.6090	-2.4539	-3.6875	 2.6248	-1.0627	-3.6086	 3.4860	-0.1227	59.3816	99.9817	
   873	-4.2160	 1.7998	-2.4162	-3.8783	 2.7404	-1.1379	-3.8077	 3.6105	-0.1972	59.2371	99.9784	
   874	-4.0877	 1.8337	-2.2540	-3.6995	 2.7598	-0.9397	-3.5628	 3.5602	-0.0027	59.8646	99.9798	
   875	-3.8712	 1.7720	-2.0991	-3.4962	 2.6260	-0.8702	-3.3824	 3.3217	-0.0608	60.5671	99.9820	
   876	-3.7376	 1.6442	-2.0934	-3.4316	 2.4586	-0.9730	-3.3898	 3.1014	-0.2885	60.7325	99.9832	
   877	-3.5878	 1.6464	-1.9414	-3.2457	 2.4824	-0.7633	-3.1727	 3.0790	-0.0939	61.0744	99.9852	
   878	-3.3733	 1.5535	-1.8198	-3.3023	 2.1237	-1.1785	-3.5763	 2.3601	-1.2164	61.9845	99.9925	
   879	-3.4748	 1.4460	-2.0288	-3.4758	 1.6412	-1.8347	-4.1827	 1.4116	-2.7712	63.8844	99.9986	
   880	-4.2474	 0.3403	-3.9070	-4.7894	 0.1843	-4.6051	-5.7471	-0.1502	-5.8975	64.1763	99.9966	
   881	-5.0029	-0.3798	-5.3827	-5.6270	-0.9794	-6.6064	-7.0935	-2.1084	-9.2020	68.1583	99.9880	
   882	-6.5261	-2.0076	-8.5337	-7.9211	-2.9366	-10.8577	-9.8392	-3.7770	-13.6163	65.5087	99.9995	
   883	-7.8601	-3.0238	-10.8839	-9.7957	-3.9749	-13.7706	-11.7106	-4.8509	-16.5615	64.1716	99.9942	
   884	-8.8445	-3.7498	-12.5943	-10.6004	-4.3929	-14.9932	-12.2138	-5.1671	-17.3810	63.7486	99.9936	
   885	-9.3007	-4.1057	-13.4065	-10.9668	-4.6834	-15.6502	-12.4956	-5.4350	-17.9307	63.9295	99.9939	
   886	-9.3991	-4.2863	-13.6854	-11.1545	-4.9544	-16.1089	-12.7681	-5.7423	-18.5105	64.1275	99.9937	
   887	-9.3159	-4.3401	-13.6560	-11.1036	-5.0137	-16.1173	-12.6182	-5.7049	-18.3233	64.0257	99.9877	
   888	-8.4527	-3.5387	-11.9914	-9.9161	-4.1527	-14.0688	-11.2606	-4.8291	-16.0898	65.0105	99.9908	
   889	-7.2503	-2.2434	-9.4938	-8.1970	-2.6532	-10.8502	-9.3016	-3.0874	-12.3891	64.6761	99.9925	
   890	-6.1146	-1.0042	-7.1188	-6.6901	-1.2716	-7.9617	-7.5628	-1.4727	-9.0356	64.2718	99.9901	
   891	-5.3868	-0.2261	-5.6130	-5.6842	-0.1467	-5.8309	-6.2726	-0.1513	-6.4241	63.3058	99.9903	
   892	-4.7944	 0.4086	-4.3857	-4.9265	 0.7216	-4.2049	-5.3724	 0.9704	-4.4020	62.0321	99.9876	
   893	-4.2930	 0.8523	-3.4408	-4.3740	 1.2562	-3.1178	-4.7718	 1.5294	-3.2426	61.7863	99.9887	
   894	-4.0593	 1.0562	-3.0031	-4.0857	 1.4986	-2.5871	-4.4015	 1.7961	-2.6055	61.8737	99.9878	
   895	-3.9464	 1.0956	-2.8508	-3.9516	 1.5683	-2.3833	-4.2835	 1.8930	-2.3906	61.7147	99.9885	
   896	-3.9546	 1.0906	-2.8641	-3.9499	 1.5952	-2.3547	-4.2412	 1.9082	-2.3331	61.7676	99.9887	
   897	-3.9464	 1.0956	-2.8508	-3.9090	 1.5945	-2.3145	-4.1766	 1.9034	-2.2732	61.9468	99.9888	
   898	-3.8284	 1.0933	-2.7352	-3.7987	 1.6106	-2.1881	-4.0820	 1.9061	-2.1759	61.9482	99.9898	
   899	-3.7956	 1.1135	-2.6821	-3.7799	 1.5834	-2.1966	-4.1054	 1.8120	-2.2935	62.2292	99.9912	
   900	-3.8171	 1.0253	-2.7918	-3.8560	 1.4588	-2.3973	-4.2616	 1.6684	-2.5933	62.1578	99.9919	
   901	-3.8387	 1.0570	-2.7817	-3.8393	 1.5079	-2.3314	-4.2165	 1.7308	-2.4858	62.1708	99.9919	
   902	-3.8397	 1.0414	-2.7983	-3.8614	 1.4813	-2.3801	-4.2588	 1.7156	-2.5433	62.0781	99.9915	
   903	-3.8305	 1.0620	-2.7684	-3.8518	 1.5261	-2.3257	-4.2321	 1.7664	-2.4658	61.9986	99.9914	
   904	-3.7494	 1.0969	-2.6525	-3.7441	 1.5018	-2.2422	-4.1547	 1.6788	-2.4760	62.4639	99.9929	
   905	-3.7667	 0.9513	-2.8155	-3.8703	 1.2297	-2.6406	-4.4055	 1.3397	-3.0659	62.7161	99.9931	
   906	-3.9553	 0.7152	-3.2401	-4.1612	 0.9469	-3.2143	-4.7509	 0.9978	-3.7531	62.8081	99.9931	
   907	-4.1388	 0.5572	-3.5816	-4.3234	 0.7564	-3.5670	-4.9447	 0.8193	-4.1255	62.8850	99.9933	
   908	-4.1983	 0.4906	-3.7077	-4.3898	 0.6766	-3.7132	-5.0703	 0.6950	-4.3754	62.9582	99.9951	
   909	-4.4251	 0.5160	-3.9091	-4.5759	 0.9764	-3.5995	-5.0025	 1.3277	-3.6749	61.2468	99.9870	
   910	-3.9227	 0.9752	-2.9475	-3.7123	 1.5732	-2.1391	-3.9595	 1.8810	-2.0787	62.1959	99.9933	
   911	-4.7113	 0.4748	-4.2366	-4.7631	 0.8222	-3.9409	-5.0698	 1.0925	-3.9775	62.3827	99.9856	
   912	-4.4888	 0.6267	-3.8621	-4.2500	 1.1642	-3.0858	-4.3360	 1.6103	-2.7258	62.3288	99.9849	
   913	-3.7943	 0.7693	-3.0250	-3.5579	 1.2020	-2.3560	-3.8108	 1.0211	-2.7898	64.9302	99.9968	
   914	-4.5727	-0.6700	-5.2427	-5.1358	-0.9877	-6.1235	-6.2352	-0.8995	-7.1349	63.4440	99.9837	
   915	-4.1366	 0.3486	-3.7880	-4.2756	 0.3195	-3.9561	-5.0386	-0.1476	-5.1862	65.8292	99.9980	
   916	-4.9684	-1.0636	-6.0320	-5.7168	-1.7601	-7.4769	-7.0548	-2.6402	-9.6951	68.2603	99.9987	
   917	-5.7205	-2.0967	-7.8172	-6.8410	-2.9189	-9.7599	-8.4038	-4.0552	-12.4591	69.0436	99.9963	
   918	-7.1333	-3.3564	-10.4897	-8.6736	-4.2681	-12.9417	-10.5178	-5.2361	-15.7540	66.9882	99.9987	
   919	-7.9497	-3.7990	-11.7487	-9.6386	-4.6294	-14.2680	-11.3263	-5.4264	-16.7528	65.6052	99.9937	
   920	-8.4000	-3.9412	-12.3412	-10.1044	-4.7609	-14.8653	-11.7050	-5.5396	-17.2447	65.4881	99.9911	
   921	-8.6123	-4.0569	-12.6692	-10.2970	-4.8925	-15.1895	-11.8674	-5.6871	-17.5546	65.7771	99.9908	
   922	-8.7280	-4.2632	-12.9912	-10.4333	-5.1060	-15.5393	-11.9756	-5.9139	-17.8896	66.0673	99.9898	
   923	-8.8099	-4.4336	-13.2436	-10.4914	-5.2713	-15.7628	-12.0257	-6.0589	-18.0847	66.1839	99.9896	
   924	-8.6499	-4.3951	-13.0450	-10.2880	-5.1849	-15.4728	-11.7946	-5.9477	-17.7425	66.1254	99.9902	
   925	-8.3281	-4.0469	-12.3750	-9.8124	-4.7883	-14.6007	-11.1918	-5.5462	-16.7381	66.5761	99.9908	
   926	-7.8637	-3.5661	-11.4298	-9.2199	-4.2678	-13.4877	-10.4811	-5.0202	-15.5014	66.8947	99.9908	
   927	-7.4506	-3.1467	-10.5973	-8.6838	-3.8858	-12.5696	-9.9354	-4.5864	-14.5219	67.0444	99.9908	
   928	-7.0150	-2.6236	-9.6385	-7.9918	-3.3041	-11.2959	-9.1486	-3.8764	-13.0251	66.9073	99.9911	
   929	-6.5568	-2.1165	-8.6733	-7.3855	-2.6715	-10.0569	-8.3495	-3.1587	-11.5083	66.6762	99.9892	
   930	-6.0729	-1.6986	-7.7715	-6.7679	-2.1874	-8.9553	-7.6714	-2.5850	-10.2565	66.4131	99.9891	
   931	-5.8709	-1.4992	-7.3702	-6.5355	-1.9665	-8.5021	-7.4447	-2.3518	-9.7966	66.2626	99.9900	
   932	-5.8014	-1.2764	-7.0778	-6.3499	-1.6190	-7.9689	-7.1789	-1.9578	-9.1367	65.8698	99.9917	
   933	-5.4367	-0.6319	-6.0686	-5.6322	-0.5162	-6.1484	-6.1298	-0.4247	-6.5546	63.6463	99.9879	
   934	-4.6236	 0.0037	-4.6199	-4.7154	 0.1651	-4.5504	-5.2616	 0.1662	-5.0955	63.9020	99.9941	
   935	-4.4187	 0.2499	-4.1688	-4.4207	 0.6186	-3.8021	-4.7240	 0.8558	-3.8683	62.9595	99.9881	
   936	-3.8567	 0.6558	-3.2009	-3.7134	 1.1192	-2.5942	-3.9602	 1.3812	-2.5791	63.0161	99.9908	
   937	-3.5808	 0.7807	-2.8002	-3.3921	 1.3430	-2.0490	-3.5762	 1.6793	-1.8970	62.7141	99.9901	
   938	-3.3809	 0.9488	-2.4321	-3.1188	 1.5632	-1.5556	-3.2943	 1.9472	-1.3473	62.5330	99.9910	
   939	-3.3307	 0.9947	-2.3360	-3.0498	 1.6834	-1.3664	-3.1435	 2.0987	-1.0449	62.3917	99.9901	
   940	-3.2804	 1.0406	-2.2398	-2.9805	 1.7002	-1.2802	-3.0687	 2.0662	-1.0026	62.7224	99.9910	
   941	-3.3081	 0.9786	-2.3295	-3.0177	 1.6514	-1.3663	-3.1178	 2.0354	-1.0825	62.5957	99.9909	
   942	-3.1830	 1.0856	-2.0974	-2.8142	 1.7379	-1.0763	-2.8976	 2.1624	-0.7353	62.7391	99.9904	
   943	-3.0526	 1.0309	-2.0218	-2.7382	 1.6422	-1.0961	-2.8592	 2.0163	-0.8430	62.9723	99.9908	
   944	-2.9952	 1.0662	-1.9290	-2.6380	 1.7169	-0.9210	-2.7343	 2.1288	-0.6056	62.8639	99.9908	
   945	-2.9070	 1.0905	-1.8165	-2.5678	 1.7472	-0.8206	-2.6574	 2.1318	-0.5257	62.9464	99.9911	
   946	-2.8424	 1.1153	-1.7271	-2.4822	 1.6963	-0.7859	-2.6089	 1.9580	-0.6510	63.6367	99.9935	
   947	-2.9180	 0.7987	-2.1193	-2.7669	 1.1841	-1.5828	-3.0714	 1.3383	-1.7333	64.0465	99.9930	
   948	-2.8810	 0.7615	-2.1195	-2.7080	 1.1427	-1.5654	-2.9829	 1.3371	-1.6459	64.0946	99.9917	
   949	-2.7106	 0.7164	-1.9943	-2.5698	 1.0594	-1.5104	-2.8962	 1.2101	-1.6862	64.3429	99.9926	
   950	-2.7003	 0.6327	-2.0676	-2.5936	 1.0059	-1.5878	-2.9445	 1.1910	-1.7536	64.0427	99.9923	
   951	-2.6151	 0.6102	-2.0049	-2.4529	 0.9630	-1.4899	-2.8651	 1.1388	-1.7263	64.2127	99.9942	
   952	-2.5568	 0.7811	-1.7757	-2.3371	 1.1769	-1.1602	-2.5997	 1.3282	-1.2716	64.5256	99.9933	
   953	-2.7301	 0.6594	-2.0707	-2.5164	 1.0405	-1.4758	-2.8124	 1.2287	-1.5838	64.3514	99.9929	
   954	-2.5700	 0.6979	-1.8721	-2.3377	 0.8397	-1.4980	-2.8325	 0.6032	-2.2294	66.4856	99.9984	
   955	-2.9590	-0.3216	-3.2805	-3.2063	-0.3819	-3.5882	-4.0992	-0.6240	-4.7234	65.8753	99.9981	
   956	-3.0410	-0.3721	-3.4131	-3.2376	-0.3364	-3.5740	-4.0397	-0.5185	-4.5584	65.6038	99.9977	
   957	-2.8863	-0.1718	-3.0581	-2.9592	-0.0354	-2.9947	-3.6157	-0.0478	-3.6637	65.1227	99.9957	
   958	-2.6556	 0.1052	-2.5505	-2.6491	 0.3370	-2.3122	-3.1842	 0.4503	-2.7339	64.6580	99.9936	
   959	-2.5101	 0.2848	-2.2253	-2.4444	 0.5538	-1.8906	-2.9059	 0.6593	-2.2467	64.7983	99.9938	
   960	-2.5061	 0.3473	-2.1588	-2.3762	 0.6605	-1.7157	-2.7890	 0.8348	-1.9543	64.5929	99.9930	
   961	-2.3205	 0.5365	-1.7840	-2.1342	 0.9262	-1.2081	-2.4635	 1.1415	-1.3220	64.4386	99.9926	
   962	-2.1780	 0.6692	-1.5088	-1.9976	 1.0362	-0.9614	-2.3379	 1.2658	-1.0721	64.3983	99.9919	
   963	-2.1842	 0.6954	-1.4888	-2.0084	 1.0814	-0.9271	-2.3173	 1.3128	-1.0046	64.3586	99.9915	
   964	-2.2816	 0.6504	-1.6312	-2.1212	 1.0249	-1.0964	-2.3924	 1.2429	-1.1496	64.4838	99.9905	
   965	-2.4139	 0.5540	-1.8599	-2.2357	 0.9414	-1.2944	-2.4804	 1.1536	-1.3270	64.5683	99.9906	
   966	-2.5514	 0.4994	-2.0520	-2.2846	 0.9242	-1.3604	-2.4974	 1.1656	-1.3319	64.5745	99.9915	
   967	-2.6580	 0.4337	-2.2243	-2.2315	 1.0087	-1.2228	-2.2524	 1.4103	-0.8421	64.2707	99.9888	
   968	-2.5246	 0.4258	-2.0988	-1.9650	 1.1211	-0.8439	-1.8799	 1.7125	-0.1675	63.8138	99.9857	
   969	-2.7760	 0.4361	-2.3399	-2.2402	 1.1977	-1.0425	-2.1003	 1.7783	-0.3220	63.5315	99.9859	
   970	-2.5339	 0.5251	-2.0088	-1.9562	 1.1524	-0.8038	-1.8679	 1.6179	-0.2501	64.4559	99.9883	
   971	-2.2023	 0.2943	-1.9080	-1.9604	 0.3208	-1.6396	-2.5220	 0.1742	-2.3479	67.0527	99.9982	
   972	-2.6696	-0.3534	-3.0230	-2.6899	-0.2063	-2.8962	-3.2430	-0.1313	-3.3744	65.4380	99.9929	
   973	-2.6255	-0.2813	-2.9068	-2.6769	-0.1076	-2.7846	-3.1943	-0.0100	-3.2044	65.2201	99.9915	
   974	-2.4525	 0.0803	-2.3722	-2.3053	 0.4840	-1.8213	-2.5594	 0.9224	-1.6371	63.9796	99.9834	
   975	-2.2281	 0.5034	-1.7248	-1.8489	 1.0113	-0.8377	-1.8609	 1.4407	-0.4203	64.5205	99.9849	
   976	-2.3102	 0.4529	-1.8573	-1.8978	 0.9941	-0.9037	-1.8793	 1.4291	-0.4503	64.5236	99.9855	
   977	-2.2601	 0.6187	-1.6414	-1.8505	 1.2046	-0.6459	-1.7841	 1.6365	-0.1477	64.3659	99.9853	
   978	-2.1421	 0.6164	-1.5257	-1.7909	 0.9563	-0.8346	-1.9682	 1.0328	-0.9355	65.9199	99.9941	
   979	-2.3220	-0.0944	-2.4164	-2.2955	-0.0152	-2.3107	-2.8746	-0.0928	-2.9675	66.3168	99.9959	
   980	-2.4498	-0.4882	-2.9380	-2.6261	-0.3872	-3.0133	-3.2518	-0.3752	-3.6271	65.5660	99.9925	
   981	-2.3352	-0.1776	-2.5128	-2.3490	 0.0037	-2.3453	-2.9087	 0.1241	-2.7847	65.1793	99.9926	
   982	-2.2657	 0.0452	-2.2204	-2.2085	 0.2846	-1.9240	-2.6608	 0.4160	-2.2449	65.1874	99.9923	
   983	-2.2688	 0.1183	-2.1505	-2.1750	 0.3829	-1.7921	-2.6060	 0.5413	-2.0649	65.0614	99.9922	
   984	-2.2361	 0.2584	-1.9777	-2.1198	 0.6112	-1.5086	-2.4358	 0.8185	-1.6174	64.7723	99.9905	
   985	-2.1654	 0.3770	-1.7885	-2.0329	 0.6907	-1.3422	-2.3246	 0.8997	-1.4250	64.9443	99.9893	
   986	-2.1460	 0.4339	-1.7121	-1.9673	 0.7570	-1.2103	-2.2257	 0.9732	-1.2526	65.0326	99.9894	
   987	-2.1142	 0.4385	-1.6757	-1.9610	 0.7479	-1.2131	-2.2231	 0.9181	-1.3052	65.2001	99.9900	
   988	-2.2403	 0.3159	-1.9244	-2.0789	 0.6105	-1.4683	-2.3841	 0.7942	-1.5900	65.1552	99.9905	
   989	-2.3140	 0.1505	-2.1635	-2.2185	 0.3432	-1.8753	-2.5915	 0.3915	-2.2000	65.8348	99.9923	
   990	-2.4954	-0.0962	-2.5916	-2.4530	-0.0215	-2.4745	-2.9204	-0.1670	-3.0875	66.7990	99.9954	
   991	-2.9923	-0.8371	-3.8295	-3.2408	-0.9343	-4.1751	-3.9317	-1.0748	-5.0066	66.6036	99.9928	
   992	-3.1125	-0.7461	-3.8586	-2.9795	-0.3588	-3.3382	-3.2554	 0.0538	-3.2017	64.3798	99.9843	
   993	-2.9140	-0.1139	-3.0279	-2.5025	 0.3884	-2.1141	-2.6106	 0.8561	-1.7546	64.3795	99.9870	
   994	-2.8392	-0.0528	-2.8920	-2.4448	 0.4369	-2.0079	-2.4676	 0.8779	-1.5898	64.6740	99.9848	
   995	-2.5836	-0.1205	-2.7041	-2.1283	 0.2562	-1.8721	-2.1802	 0.4571	-1.7232	66.2540	99.9912	
   996	-2.4047	-0.5204	-2.9250	-2.2577	-0.3934	-2.6512	-2.6754	-0.4102	-3.0857	66.9214	99.9943	
   997	-2.5878	-1.0382	-3.6260	-2.8170	-1.2561	-4.0732	-3.7009	-1.5539	-5.2550	67.7640	99.9974	
   998	-3.3557	-1.7059	-5.0617	-3.7438	-1.8788	-5.6226	-4.5982	-1.8454	-6.4437	66.0599	99.9870	
   999	-2.6259	-0.8966	-3.5225	-2.5704	-0.8062	-3.3766	-3.0983	-0.9596	-4.0580	67.3379	99.9967	
  1000	-2.7025	-1.3487	-4.0512	-3.0331	-1.5447	-4.5778	-3.9417	-1.7279	-5.6697	67.1244	99.9950	
  1001	-2.8574	-1.3091	-4.1666	-3.0126	-1.3247	-4.3373	-3.7094	-1.4004	-5.1098	66.7807	99.9943	
  1002	-2.7108	-1.2339	-3.9446	-2.8918	-1.2504	-4.1422	-3.6166	-1.3307	-4.9474	66.6905	99.9945	
  1003	-2.6523	-1.1829	-3.8352	-2.8270	-1.1975	-4.0245	-3.5668	-1.2881	-4.8550	66.6902	99.9951	
  1004	-2.6379	-1.2040	-3.8420	-2.8329	-1.2918	-4.1248	-3.6346	-1.4328	-5.0675	67.0143	99.9958	
  1005	-2.6646	-1.2504	-3.9150	-2.8534	-1.2915	-4.1449	-3.5963	-1.3861	-4.9825	66.8279	99.9946	
  1006	-2.5323	-1.1540	-3.6863	-2.7105	-1.1905	-3.9010	-3.4545	-1.2856	-4.7402	66.8256	99.9948	
  1007	-2.5139	-1.1126	-3.6265	-2.6733	-1.1417	-3.8150	-3.4162	-1.2389	-4.6552	66.8243	99.9952	
  1008	-2.5231	-1.1333	-3.6564	-2.7034	-1.1861	-3.8895	-3.4776	-1.2774	-4.7551	66.7816	99.9950	
  1009	-2.5221	-1.1177	-3.6398	-2.7009	-1.1457	-3.8466	-3.4462	-1.2463	-4.6926	66.7800	99.9951	
  1010	-2.5057	-1.1076	-3.6133	-2.6804	-1.1460	-3.8265	-3.4285	-1.2466	-4.6752	66.8252	99.9950	
  1011	-2.4021	-1.0888	-3.4909	-2.5827	-1.1117	-3.6944	-3.3202	-1.2125	-4.5328	66.8236	99.9950	
  1012	-2.3456	-1.0691	-3.4147	-2.5338	-1.0946	-3.6284	-3.3180	-1.1772	-4.4953	66.6439	99.9953	
  1013	-2.3436	-1.0378	-3.3814	-2.5187	-1.0723	-3.5911	-3.2812	-1.1540	-4.4353	66.7331	99.9949	
  1014	-2.3272	-1.0277	-3.3549	-2.5170	-1.0454	-3.5624	-3.2628	-1.1425	-4.4054	66.7328	99.9950	
  1015	-2.3108	-1.0176	-3.3284	-2.4957	-1.0323	-3.5280	-3.2437	-1.1191	-4.3629	66.6872	99.9949	
  1016	-2.3098	-1.0020	-3.3118	-2.4949	-1.0188	-3.5137	-3.2484	-1.0993	-4.3478	66.6421	99.9949	
  1017	-2.2134	-0.9726	-3.1860	-2.3909	-0.9936	-3.3845	-3.1401	-1.0653	-4.2055	66.6858	99.9946	
  1018	-2.1416	-0.9584	-3.1000	-2.3286	-0.9812	-3.3098	-3.0801	-1.0504	-4.1306	66.6855	99.9944	
  1019	-2.1251	-0.9483	-3.0735	-2.3136	-0.9589	-3.2725	-3.0679	-1.0426	-4.1106	66.6855	99.9949	
  1020	-2.1323	-0.9378	-3.0701	-2.3128	-0.9455	-3.2582	-3.0549	-1.0231	-4.0781	66.6847	99.9947	
  1021	-2.1077	-0.9226	-3.0303	-2.2710	-0.9327	-3.2037	-3.0466	-0.9839	-4.0306	66.5498	99.9950	
  1022	-2.0985	-0.9019	-3.0004	-2.2622	-0.9014	-3.1635	-3.0105	-0.9725	-3.9831	66.6388	99.9951	
  1023	-2.0175	-0.8670	-2.8845	-2.1653	-0.8805	-3.0458	-2.9022	-0.9385	-3.8408	66.7267	99.9946	
  1024	-1.9693	-0.8524	-2.8216	-2.1172	-0.8768	-2.9941	-2.8783	-0.9349	-3.8133	66.7273	99.9948	
  1025	-1.9611	-0.8473	-2.8084	-2.1093	-0.8590	-2.9683	-2.8599	-0.9233	-3.7834	66.7267	99.9950	
  1026	-1.9601	-0.8317	-2.7917	-2.1014	-0.8411	-2.9425	-2.8516	-0.8841	-3.7358	66.6365	99.9947	
  1027	-1.9375	-0.8478	-2.7852	-2.1085	-0.8455	-2.9540	-2.8639	-0.8918	-3.7558	66.5477	99.9946	
  1028	-1.9590	-0.8161	-2.7751	-2.1201	-0.8138	-2.9340	-2.8556	-0.8525	-3.7083	66.5468	99.9942	
  1029	-1.9180	-0.7908	-2.7088	-2.0571	-0.7879	-2.8450	-2.7834	-0.8299	-3.6134	66.6349	99.9944	
  1030	-1.8380	-0.7716	-2.6096	-1.9940	-0.7620	-2.7560	-2.7228	-0.8031	-3.5260	66.5901	99.9943	
  1031	-1.8380	-0.7716	-2.6096	-1.9940	-0.7620	-2.7560	-2.7343	-0.7990	-3.5335	66.5457	99.9944	
  1032	-1.8452	-0.7610	-2.6062	-2.0073	-0.7573	-2.7646	-2.7398	-0.7911	-3.5309	66.5457	99.9940	
  1033	-1.8524	-0.7504	-2.6028	-2.0270	-0.7435	-2.7704	-2.7452	-0.7831	-3.5284	66.5457	99.9937	
  1034	-1.8678	-0.7449	-2.6127	-2.0403	-0.7388	-2.7791	-2.7737	-0.7670	-3.5409	66.4567	99.9938	
  1035	-1.8822	-0.7237	-2.6059	-2.0528	-0.7206	-2.7734	-2.7662	-0.7396	-3.5058	66.4561	99.9931	
  1036	-1.8576	-0.7086	-2.5662	-2.0040	-0.7034	-2.7074	-2.7286	-0.7046	-3.4334	66.4109	99.9934	
  1037	-1.7857	-0.6944	-2.4801	-1.9488	-0.6954	-2.6442	-2.6925	-0.6933	-3.3859	66.3667	99.9933	
  1038	-1.7929	-0.6838	-2.4768	-1.9613	-0.6772	-2.6385	-2.6911	-0.6697	-3.3609	66.3219	99.9929	
  1039	-1.8073	-0.6627	-2.4700	-1.9676	-0.6681	-2.6357	-2.7019	-0.6538	-3.3559	66.3219	99.9927	
  1040	-1.7991	-0.6576	-2.4567	-1.9801	-0.6499	-2.6300	-2.7128	-0.6379	-3.3508	66.2330	99.9927	
  1041	-1.8217	-0.6415	-2.4632	-1.9864	-0.6408	-2.6272	-2.7291	-0.6141	-3.3433	66.1884	99.9926	
  1042	-1.8443	-0.6254	-2.4697	-1.9926	-0.6317	-2.6243	-2.7453	-0.5903	-3.3357	66.1438	99.9926	
  1043	-1.8515	-0.6149	-2.4663	-2.0123	-0.6179	-2.6301	-2.7446	-0.5785	-3.3232	66.1437	99.9921	
  1044	-1.7951	-0.5951	-2.3902	-1.9554	-0.5829	-2.5383	-2.6771	-0.5361	-3.2133	66.0989	99.9919	
  1045	-1.7623	-0.5749	-2.3372	-1.9412	-0.5741	-2.5154	-2.6710	-0.5322	-3.2033	66.0991	99.9917	
  1046	-1.7777	-0.5694	-2.3471	-1.9671	-0.5512	-2.5183	-2.6703	-0.5204	-3.1908	66.0990	99.9916	
  1047	-1.8003	-0.5533	-2.3536	-1.9734	-0.5421	-2.5155	-2.6981	-0.4925	-3.1907	66.0102	99.9917	
  1048	-1.8003	-0.5533	-2.3536	-2.0010	-0.5461	-2.5471	-2.7226	-0.5080	-3.2307	66.0103	99.9914	
  1049	-1.8228	-0.5372	-2.3600	-2.0135	-0.5279	-2.5414	-2.7321	-0.4685	-3.2006	65.9214	99.9909	
  1050	-1.8382	-0.5317	-2.3699	-2.0402	-0.5185	-2.5587	-2.7729	-0.4601	-3.2331	65.8325	99.9912	
  1051	-1.8690	-0.5206	-2.3897	-2.0803	-0.5043	-2.5846	-2.7899	-0.4481	-3.2380	65.8325	99.9906	
  1052	-1.8516	-0.4949	-2.3465	-2.0235	-0.4693	-2.4928	-2.7346	-0.4134	-3.1481	65.8770	99.9916	
  1053	-1.7952	-0.4752	-2.2704	-2.0084	-0.4471	-2.4555	-2.7039	-0.3941	-3.0981	65.8327	99.9906	
  1054	-1.8106	-0.4697	-2.2803	-2.0218	-0.4424	-2.4642	-2.7448	-0.3857	-3.1305	65.7437	99.9911	
  1055	-1.8332	-0.4536	-2.2868	-2.0343	-0.4242	-2.4585	-2.7372	-0.3582	-3.0955	65.7440	99.9906	
  1056	-1.8394	-0.4274	-2.2667	-2.0593	-0.3878	-2.4471	-2.7412	-0.3267	-3.0680	65.6997	99.9901	
  1057	-1.8548	-0.4219	-2.2766	-2.0664	-0.3922	-2.4586	-2.7704	-0.3224	-3.0929	65.6552	99.9903	
  1058	-1.8774	-0.4058	-2.2831	-2.0986	-0.3602	-2.4588	-2.7799	-0.2829	-3.0629	65.5669	99.9898	
  1059	-1.8763	-0.3901	-2.2665	-2.0977	-0.3467	-2.4444	-2.7968	-0.2709	-3.0678	65.5223	99.9902	
  1060	-1.8999	-0.3897	-2.2896	-2.1111	-0.3420	-2.4531	-2.8077	-0.2550	-3.0628	65.4782	99.9901	
  1061	-1.8507	-0.3594	-2.2101	-2.0614	-0.3113	-2.3727	-2.7463	-0.2164	-2.9629	65.4789	99.9896	
  1062	-1.8497	-0.3437	-2.1934	-2.0739	-0.2931	-2.3671	-2.7402	-0.2126	-2.9529	65.5231	99.9893	
  1063	-1.8723	-0.3276	-2.1999	-2.0802	-0.2840	-2.3642	-2.7687	-0.1965	-2.9653	65.4787	99.9898	
  1064	-1.8651	-0.3382	-2.2033	-2.1069	-0.2746	-2.3815	-2.7857	-0.1844	-2.9703	65.3457	99.9893	
  1065	-1.8949	-0.3115	-2.2064	-2.1194	-0.2564	-2.3758	-2.8020	-0.1606	-2.9627	65.3459	99.9894	
  1066	-1.9103	-0.3060	-2.2163	-2.1257	-0.2473	-2.3730	-2.8128	-0.1447	-2.9577	65.3019	99.9896	
  1067	-1.9247	-0.2849	-2.2096	-2.1570	-0.2018	-2.3588	-2.8168	-0.1132	-2.9301	65.2581	99.9896	
  1068	-1.9483	-0.2844	-2.2327	-2.1854	-0.2193	-2.4047	-2.8753	-0.1046	-2.9800	65.1244	99.9890	
  1069	-1.9391	-0.2637	-2.2028	-2.1758	-0.1745	-2.3503	-2.8208	-0.0817	-2.9026	65.2144	99.9891	
  1070	-1.8898	-0.2334	-2.1233	-2.1135	-0.1621	-2.2756	-2.7717	-0.0508	-2.8227	65.2149	99.9887	
  1071	-1.8980	-0.2385	-2.1365	-2.1607	-0.1523	-2.3130	-2.8125	-0.0424	-2.8551	65.0816	99.9882	
  1072	-1.8858	-0.1709	-2.0567	-2.1022	-0.0904	-2.1926	-2.7389	 0.0038	-2.7352	65.2600	99.9891	
  1073	-1.9380	-0.2481	-2.1862	-2.2104	-0.1829	-2.3934	-2.9093	-0.0805	-2.9899	65.0342	99.9889	
  1074	-1.9606	-0.2320	-2.1927	-2.2284	-0.1422	-2.3706	-2.8786	-0.0613	-2.9400	65.1246	99.9890	
  1075	-1.9986	-0.2104	-2.2090	-2.2543	-0.1193	-2.3735	-2.8812	-0.0061	-2.8874	65.0380	99.9877	
  1076	-1.9884	-0.1741	-2.1625	-2.2321	-0.0927	-2.3248	-2.8852	 0.0254	-2.8599	64.9935	99.9882	
  1077	-1.9956	-0.1635	-2.1591	-2.2509	-0.0654	-2.3163	-2.9015	 0.0492	-2.8523	64.9052	99.9885	
  1078	-1.9946	-0.1479	-2.1425	-2.2421	-0.0341	-2.2762	-2.8516	 0.0919	-2.7599	64.9080	99.9875	
  1079	-1.9279	-0.0919	-2.0198	-2.1569	 0.0185	-2.1384	-2.7726	 0.1302	-2.6425	64.9971	99.9885	
  1080	-1.9433	-0.0864	-2.0297	-2.1907	 0.0235	-2.1672	-2.8188	 0.1465	-2.6724	64.8640	99.9880	
  1081	-1.9741	-0.0753	-2.0494	-2.2174	 0.0330	-2.1845	-2.8188	 0.1465	-2.6724	64.9528	99.9877	
  1082	-1.9813	-0.0647	-2.0461	-2.2362	 0.0603	-2.1759	-2.8344	 0.1822	-2.6523	64.8211	99.9875	
  1083	-2.0039	-0.0486	-2.0526	-2.2362	 0.0603	-2.1759	-2.8575	 0.1903	-2.6673	64.8207	99.9879	
  1084	-2.0347	-0.0376	-2.0723	-2.2825	 0.0835	-2.1990	-2.8976	 0.2105	-2.6872	64.7323	99.9879	
  1085	-2.0501	-0.0321	-2.0822	-2.2897	 0.0791	-2.2105	-2.9146	 0.2225	-2.6921	64.6883	99.9875	
  1086	-2.0501	-0.0321	-2.0822	-2.3093	 0.0930	-2.2163	-2.9261	 0.2266	-2.6996	64.6438	99.9876	
  1087	-2.0481	-0.0008	-2.0489	-2.2800	 0.1239	-2.1561	-2.8709	 0.2613	-2.6097	64.7348	99.9873	
  1088	-2.0091	-0.0068	-2.0159	-2.2675	 0.1057	-2.1618	-2.8955	 0.2459	-2.6496	64.6438	99.9873	
  1089	-2.0471	 0.0148	-2.0323	-2.2925	 0.1421	-2.1504	-2.8933	 0.2813	-2.6121	64.6460	99.9873	
  1090	-2.0440	 0.0617	-1.9824	-2.2687	 0.1957	-2.0730	-2.8482	 0.3437	-2.5046	64.6492	99.9870	
  1091	-2.0194	 0.0768	-1.9426	-2.2545	 0.2044	-2.0501	-2.8598	 0.3478	-2.5121	64.6035	99.9875	
  1092	-2.0758	 0.0571	-2.0188	-2.3238	 0.1876	-2.1362	-2.9266	 0.3171	-2.6095	64.6016	99.9877	
  1093	-2.1087	 0.0369	-2.0718	-2.3727	 0.1705	-2.2023	-2.9804	 0.3060	-2.6744	64.5122	99.9874	
  1094	-2.1313	 0.0530	-2.0783	-2.3923	 0.1843	-2.2081	-2.9858	 0.3140	-2.6719	64.5567	99.9872	
  1095	-2.1477	 0.0429	-2.1048	-2.4262	 0.1893	-2.2368	-3.0089	 0.3221	-2.6869	64.4687	99.9868	
  1096	-2.1066	 0.0681	-2.0385	-2.3639	 0.2018	-2.1622	-2.9544	 0.3451	-2.6094	64.5141	99.9868	
  1097	-2.0984	 0.0732	-2.0253	-2.3836	 0.2156	-2.1680	-2.9605	 0.3412	-2.6194	64.5132	99.9866	
  1098	-2.1292	 0.0842	-2.0450	-2.3969	 0.2203	-2.1766	-2.9837	 0.3494	-2.6344	64.5132	99.9870	
  1099	-2.1364	 0.0948	-2.0416	-2.4023	 0.2429	-2.1595	-2.9931	 0.3888	-2.6043	64.3823	99.9869	
  1100	-2.1282	 0.0998	-2.0284	-2.4086	 0.2520	-2.1566	-2.9924	 0.4006	-2.5918	64.3383	99.9864	
  1101	-2.1426	 0.1210	-2.0216	-2.4140	 0.2745	-2.1395	-3.0086	 0.4245	-2.5843	64.2944	99.9869	
  1102	-2.1570	 0.1421	-2.0149	-2.4265	 0.2927	-2.1338	-3.0133	 0.4442	-2.5692	64.2949	99.9866	
  1103	-2.1724	 0.1477	-2.0247	-2.4524	 0.3157	-2.1368	-3.0242	 0.4601	-2.5642	64.2516	99.9867	
  1104	-2.1622	 0.1840	-1.9782	-2.4240	 0.3332	-2.0908	-3.0105	 0.4914	-2.5192	64.2522	99.9865	
  1105	-2.0986	 0.1931	-1.9054	-2.3805	 0.3729	-2.0077	-2.9498	 0.5181	-2.4318	64.2101	99.9868	
  1106	-2.1293	 0.2042	-1.9252	-2.4073	 0.3823	-2.0249	-2.9729	 0.5263	-2.4467	64.2101	99.9868	
  1107	-2.1355	 0.2304	-1.9052	-2.4002	 0.3867	-2.0135	-2.9899	 0.5383	-2.4517	64.2089	99.9870	
  1108	-2.1355	 0.2304	-1.9052	-2.4056	 0.4093	-1.9963	-2.9769	 0.5578	-2.4192	64.1668	99.9870	
  1109	-2.1581	 0.2464	-1.9117	-2.4386	 0.4278	-2.0108	-2.9993	 0.5778	-2.4216	64.1230	99.9865	
  1110	-2.1643	 0.2726	-1.8917	-2.4244	 0.4366	-1.9878	-3.0048	 0.5858	-2.4191	64.1662	99.9871	
  1111	-2.1951	 0.2837	-1.9114	-2.4440	 0.4504	-1.9936	-3.0210	 0.6096	-2.4116	64.1236	99.9870	
  1112	-2.1869	 0.2887	-1.8982	-2.4628	 0.4777	-1.9851	-3.0203	 0.6214	-2.3991	64.0798	99.9870	
  1113	-2.1387	 0.3034	-1.8353	-2.4139	 0.4948	-1.9191	-2.9719	 0.6404	-2.3316	64.0811	99.9870	
  1114	-2.1531	 0.3246	-1.8285	-2.4139	 0.4948	-1.9191	-3.0005	 0.6565	-2.3441	64.0360	99.9870	
  1115	-2.1695	 0.3145	-1.8550	-2.4548	 0.4955	-1.9593	-3.0243	 0.6529	-2.3715	63.9915	99.9864	
  1116	-2.1839	 0.3356	-1.8483	-2.4469	 0.5134	-1.9335	-3.0290	 0.6726	-2.3565	63.9921	99.9871	
  1117	-2.1839	 0.3356	-1.8483	-2.4602	 0.5181	-1.9422	-3.0467	 0.6729	-2.3740	63.9469	99.9872	
  1118	-2.2147	 0.3467	-1.8680	-2.5012	 0.5188	-1.9824	-3.0821	 0.6733	-2.4089	63.9455	99.9866	
  1119	-2.2383	 0.3471	-1.8911	-2.5279	 0.5282	-1.9997	-3.1005	 0.6618	-2.4389	63.9887	99.9872	
  1120	-2.2454	 0.3577	-1.8878	-2.5271	 0.5417	-1.9854	-3.0915	 0.7128	-2.3788	63.8607	99.9860	
  1121	-2.1880	 0.3931	-1.7950	-2.4560	 0.5854	-1.8706	-3.0248	 0.7434	-2.2814	63.9066	99.9871	
  1122	-2.1788	 0.4137	-1.7651	-2.4615	 0.6080	-1.8534	-3.0240	 0.7552	-2.2689	63.9059	99.9870	
  1123	-2.2004	 0.4454	-1.7549	-2.4723	 0.6532	-1.8191	-3.0089	 0.8101	-2.1989	63.8664	99.9865	
  1124	-2.1676	 0.4656	-1.7019	-2.4422	 0.6976	-1.7446	-2.9938	 0.8650	-2.1289	63.6932	99.9872	
  1125	-2.1655	 0.4969	-1.6687	-2.4200	 0.7242	-1.6958	-2.9855	 0.9043	-2.0813	63.6512	99.9874	
  1126	-2.1543	 0.5488	-1.6055	-2.4096	 0.7825	-1.6271	-2.9527	 0.9589	-1.9938	63.6543	99.9871	
  1127	-2.1533	 0.5644	-1.5889	-2.4275	 0.8232	-1.6043	-2.9560	 1.0023	-1.9538	63.5253	99.9868	
  1128	-2.1349	 0.6058	-1.5291	-2.3911	 0.8586	-1.5326	-2.8953	 1.0290	-1.8664	63.6599	99.9867	
  1129	-2.0856	 0.6361	-1.4496	-2.3343	 0.8936	-1.4407	-2.8632	 1.0719	-1.7914	63.5737	99.9874	
  1130	-2.0774	 0.6411	-1.4363	-2.3531	 0.9209	-1.4322	-2.8802	 1.0839	-1.7963	63.4852	99.9878	
  1131	-2.0918	 0.6623	-1.4295	-2.3790	 0.9438	-1.4352	-2.8957	 1.1195	-1.7763	63.3991	99.9869	
  1132	-2.0908	 0.6779	-1.4129	-2.3648	 0.9525	-1.4122	-2.9059	 1.1472	-1.7587	63.3122	99.9871	
  1133	-2.0980	 0.6885	-1.4095	-2.3898	 0.9889	-1.4009	-2.9052	 1.1590	-1.7462	63.3131	99.9874	
  1134	-2.1124	 0.7096	-1.4028	-2.3961	 0.9980	-1.3981	-2.9160	 1.1749	-1.7412	63.3131	99.9872	
  1135	-2.1196	 0.7202	-1.3994	-2.3819	 1.0068	-1.3751	-2.9092	 1.1906	-1.7187	63.3149	99.9876	
  1136	-2.0632	 0.7399	-1.3232	-2.3393	 1.0330	-1.3062	-2.8832	 1.2296	-1.6537	63.1847	99.9875	
  1137	-2.0694	 0.7661	-1.3032	-2.3455	 1.0421	-1.3034	-2.9002	 1.2416	-1.6587	63.1828	99.9873	
  1138	-2.0765	 0.7767	-1.2999	-2.3509	 1.0647	-1.2862	-2.9042	 1.2731	-1.6311	63.0979	99.9873	
  1139	-2.0837	 0.7873	-1.2965	-2.3635	 1.0829	-1.2806	-2.9096	 1.2811	-1.6286	63.0979	99.9875	
  1140	-2.0909	 0.7978	-1.2931	-2.3760	 1.1011	-1.2749	-2.9258	 1.3049	-1.6211	63.0111	99.9875	
  1141	-2.1053	 0.8190	-1.2863	-2.3822	 1.1102	-1.2721	-2.9313	 1.3128	-1.6185	63.0545	99.9874	
  1142	-2.1125	 0.8296	-1.2830	-2.3885	 1.1193	-1.2692	-2.9360	 1.3326	-1.6035	63.0121	99.9870	
  1143	-2.0489	 0.8387	-1.2102	-2.3459	 1.1455	-1.2004	-2.9169	 1.3559	-1.5610	62.8799	99.9877	
  1144	-2.0879	 0.8447	-1.2432	-2.3868	 1.1462	-1.2406	-2.9414	 1.3405	-1.6010	62.9656	99.9876	
  1145	-2.1207	 0.8245	-1.2962	-2.4161	 1.1152	-1.3008	-2.9782	 1.3174	-1.6609	62.9636	99.9874	
  1146	-2.1279	 0.8351	-1.2928	-2.4286	 1.1334	-1.2951	-2.9775	 1.3292	-1.6484	62.9646	99.9873	
  1147	-2.1433	 0.8406	-1.3027	-2.4420	 1.1382	-1.3038	-2.9945	 1.3412	-1.6534	62.9212	99.9872	
  1148	-2.1587	 0.8461	-1.3126	-2.4687	 1.1476	-1.3211	-3.0122	 1.3414	-1.6709	62.9201	99.9871	
  1149	-2.1413	 0.8719	-1.2694	-2.4323	 1.1830	-1.2494	-2.9855	 1.3922	-1.5934	62.8375	99.9875	
  1150	-2.1003	 0.8971	-1.2032	-2.4173	 1.2052	-1.2121	-2.9787	 1.4079	-1.5709	62.7909	99.9873	
  1151	-2.1157	 0.9026	-1.2130	-2.4235	 1.2143	-1.2093	-2.9895	 1.4238	-1.5658	62.7485	99.9875	
  1152	-2.1372	 0.9343	-1.2029	-2.4352	 1.2459	-1.1893	-2.9928	 1.4671	-1.5258	62.7085	99.9871	
  1153	-2.1198	 0.9601	-1.1598	-2.4256	 1.2907	-1.1348	-2.9791	 1.4984	-1.4808	62.6662	99.9877	
  1154	-2.1352	 0.9656	-1.1696	-2.4389	 1.2955	-1.1435	-3.0022	 1.5066	-1.4957	62.6217	99.9879	
  1155	-2.1414	 0.9918	-1.1496	-2.4444	 1.3180	-1.1263	-3.0062	 1.5381	-1.4682	62.5795	99.9875	
  1156	-2.1004	 1.0170	-1.0833	-2.4009	 1.3578	-1.0432	-2.9394	 1.5687	-1.3708	62.6286	99.9876	
  1157	-2.0922	 1.0221	-1.0701	-2.3946	 1.3487	-1.0460	-2.9802	 1.5771	-1.4032	62.4928	99.9879	
  1158	-2.1076	 1.0276	-1.0800	-2.4205	 1.3716	-1.0490	-2.9795	 1.5889	-1.3907	62.4952	99.9877	
  1159	-2.1220	 1.0488	-1.0732	-2.4268	 1.3807	-1.0461	-2.9958	 1.6127	-1.3831	62.4519	99.9874	
  1160	-2.1210	 1.0644	-1.0566	-2.4385	 1.4123	-1.0261	-3.0059	 1.6404	-1.3656	62.3652	99.9876	
  1161	-2.1435	 1.0805	-1.0631	-2.4510	 1.4305	-1.0205	-3.0283	 1.6604	-1.3680	62.3219	99.9881	
  1162	-2.1579	 1.1016	-1.0563	-2.4572	 1.4396	-1.0176	-3.0215	 1.6760	-1.3455	62.3677	99.9875	
  1163	-2.1097	 1.1163	-0.9934	-2.4280	 1.4706	-0.9574	-2.9731	 1.6951	-1.2781	62.3702	99.9873	
  1164	-2.1169	 1.1269	-0.9900	-2.4280	 1.4706	-0.9574	-3.0085	 1.6956	-1.3130	62.3219	99.9881	
  1165	-2.1579	 1.1016	-1.0563	-2.4840	 1.4491	-1.0349	-3.0691	 1.6688	-1.4004	62.2735	99.9882	
  1166	-2.1579	 1.1016	-1.0563	-2.4973	 1.4538	-1.0435	-3.0746	 1.6767	-1.3979	62.2301	99.9877	
  1167	-2.1877	 1.1283	-1.0594	-2.5161	 1.4811	-1.0350	-3.0847	 1.7044	-1.3804	62.2327	99.9877	
  1168	-2.1959	 1.1232	-1.0727	-2.5562	 1.4952	-1.0610	-3.1255	 1.7128	-1.4128	62.0987	99.9877	
  1169	-2.2103	 1.1444	-1.0659	-2.5554	 1.5087	-1.0466	-3.1010	 1.7282	-1.3728	62.1907	99.9872	
  1170	-2.1929	 1.1701	-1.0228	-2.5065	 1.5259	-0.9806	-3.0804	 1.7752	-1.3053	62.1080	99.9875	
  1171	-2.1837	 1.1908	-0.9929	-2.5119	 1.5484	-0.9635	-3.0858	 1.7831	-1.3028	62.1053	99.9877	
  1172	-2.1991	 1.1963	-1.0028	-2.5307	 1.5757	-0.9550	-3.0905	 1.8029	-1.2878	62.0647	99.9880	
  1173	-2.1981	 1.2119	-0.9861	-2.5432	 1.5939	-0.9493	-3.1061	 1.8385	-1.2677	61.9349	99.9873	
  1174	-2.2114	 1.2487	-0.9627	-2.5344	 1.6252	-0.9092	-3.0870	 1.8618	-1.2252	62.0255	99.9876	
  1175	-2.2032	 1.2537	-0.9495	-2.5461	 1.6569	-0.8892	-3.0971	 1.8895	-1.2077	61.8958	99.9879	
  1176	-2.2186	 1.2593	-0.9594	-2.5595	 1.6616	-0.8978	-3.1318	 1.9018	-1.2301	61.8065	99.9883	
  1177	-2.2494	 1.2703	-0.9791	-2.5603	 1.6482	-0.9121	-3.1379	 1.8979	-1.2401	61.8944	99.9882	
  1178	-2.2176	 1.2749	-0.9427	-2.5524	 1.6660	-0.8863	-3.1195	 1.9095	-1.2101	61.8512	99.9879	
  1179	-2.2494	 1.2703	-0.9791	-2.5870	 1.6576	-0.9294	-3.1726	 1.9102	-1.2625	61.7603	99.9880	
  1180	-2.2648	 1.2758	-0.9890	-2.6263	 1.6852	-0.9410	-3.1896	 1.9222	-1.2675	61.7170	99.9879	
  1181	-2.2792	 1.2970	-0.9822	-2.6254	 1.6987	-0.9267	-3.1943	 1.9419	-1.2525	61.7185	99.9880	
  1182	-2.2946	 1.3025	-0.9921	-2.6459	 1.6991	-0.9468	-3.2174	 1.9501	-1.2674	61.6738	99.9876	
  1183	-2.3018	 1.3131	-0.9887	-2.6772	 1.7445	-0.9327	-3.2275	 1.9778	-1.2499	61.5887	99.9879	
  1184	-2.3326	 1.3241	-1.0085	-2.6906	 1.7493	-0.9413	-3.2445	 1.9898	-1.2548	61.5902	99.9880	
  1185	-2.3398	 1.3347	-1.0051	-2.6906	 1.7493	-0.9413	-3.2554	 2.0057	-1.2498	61.5470	99.9877	
  1186	-2.2988	 1.3599	-0.9388	-2.6542	 1.7846	-0.8696	-3.2063	 2.0365	-1.1698	61.5515	99.9876	
  1187	-2.3224	 1.3604	-0.9619	-2.6755	 1.7715	-0.9040	-3.2532	 2.0411	-1.2122	61.4605	99.9875	
  1188	-2.3367	 1.3816	-0.9552	-2.7077	 1.8035	-0.9042	-3.2641	 2.0570	-1.2072	61.4605	99.9873	
  1189	-2.3521	 1.3871	-0.9651	-2.6935	 1.8122	-0.8812	-3.2626	 2.0806	-1.1822	61.4219	99.9879	
  1190	-2.3521	 1.3871	-0.9651	-2.7335	 1.8264	-0.9071	-3.2973	 2.0928	-1.2046	61.2875	99.9873	
  1191	-2.3819	 1.4138	-0.9682	-2.7398	 1.8355	-0.9043	-3.3027	 2.1007	-1.2021	61.3756	99.9874	
  1192	-2.3973	 1.4193	-0.9781	-2.7790	 1.8631	-0.9159	-3.3306	 2.1287	-1.2020	61.2459	99.9871	
  1193	-2.4127	 1.4248	-0.9879	-2.7790	 1.8631	-0.9159	-3.3306	 2.1287	-1.2020	61.2907	99.9873	
  1194	-2.3953	 1.4505	-0.9448	-2.7498	 1.8941	-0.8557	-3.2930	 2.1636	-1.1296	61.2972	99.9874	
  1195	-2.3717	 1.4500	-0.9217	-2.7561	 1.9032	-0.8528	-3.2930	 2.1636	-1.1296	61.2508	99.9870	
  1196	-2.4097	 1.4717	-0.9380	-2.7890	 1.9218	-0.8673	-3.3447	 2.1879	-1.1569	61.1611	99.9874	
  1197	-2.4323	 1.4878	-0.9445	-2.7890	 1.9218	-0.8673	-3.3386	 2.1917	-1.1470	61.2508	99.9873	
  1198	-2.4467	 1.5089	-0.9378	-2.8007	 1.9534	-0.8473	-3.3487	 2.2194	-1.1294	61.2092	99.9876	
  1199	-2.4549	 1.5039	-0.9510	-2.8345	 1.9585	-0.8761	-3.3718	 2.2276	-1.1444	61.1212	99.9870	
  1200	-2.4775	 1.5199	-0.9575	-2.8408	 1.9676	-0.8732	-3.3834	 2.2316	-1.1518	61.1644	99.9874	
  1201	-2.4929	 1.5255	-0.9674	-2.8675	 1.9770	-0.8905	-3.3996	 2.2555	-1.1443	61.0798	99.9866	
  1202	-2.4836	 1.5461	-0.9375	-2.8587	 2.0084	-0.8504	-3.3628	 2.2786	-1.0843	61.1296	99.9863	
  1203	-2.4672	 1.5562	-0.9110	-2.8516	 2.0127	-0.8389	-3.3798	 2.2906	-1.0893	61.0383	99.9864	
  1204	-2.4990	 1.5517	-0.9474	-2.8721	 2.0131	-0.8590	-3.4145	 2.3029	-1.1117	60.9520	99.9868	
  1205	-2.5134	 1.5728	-0.9406	-2.8846	 2.0313	-0.8534	-3.4192	 2.3226	-1.0967	60.9537	99.9865	
  1206	-2.5360	 1.5889	-0.9471	-2.8909	 2.0404	-0.8505	-3.4416	 2.3426	-1.0991	60.9106	99.9868	
  1207	-2.5432	 1.5995	-0.9437	-2.9301	 2.0680	-0.8621	-3.4532	 2.3467	-1.1066	60.9089	99.9865	
  1208	-2.5586	 1.6050	-0.9536	-2.9364	 2.0771	-0.8593	-3.4640	 2.3626	-1.1016	60.8675	99.9867	
  1209	-2.5740	 1.6105	-0.9635	-2.9631	 2.0865	-0.8766	-3.4926	 2.3787	-1.1140	60.7795	99.9864	
  1210	-2.5720	 1.6418	-0.9302	-2.9276	 2.1084	-0.8192	-3.4380	 2.4016	-1.0366	60.9193	99.9863	
  1211	-2.5638	 1.6468	-0.9170	-2.9339	 2.1175	-0.8164	-3.4666	 2.4177	-1.0490	60.7848	99.9865	
  1212	-2.5710	 1.6574	-0.9136	-2.9535	 2.1313	-0.8222	-3.4774	 2.4336	-1.0440	60.7417	99.9860	
  1213	-2.5854	 1.6785	-0.9068	-2.9714	 2.1721	-0.7993	-3.4644	 2.4531	-1.0115	60.7902	99.9862	
  1214	-2.5843	 1.6942	-0.8902	-2.9768	 2.1947	-0.7822	-3.4684	 2.4846	-0.9839	60.7059	99.9859	
  1215	-2.5987	 1.7153	-0.8834	-2.9689	 2.2125	-0.7564	-3.4779	 2.5241	-0.9539	60.6235	99.9861	
  1216	-2.6203	 1.7470	-0.8733	-2.9877	 2.2398	-0.7479	-3.4826	 2.5438	-0.9388	60.6683	99.9859	
  1217	-2.6121	 1.7521	-0.8600	-2.9601	 2.2438	-0.7163	-3.4634	 2.5672	-0.8964	60.6308	99.9860	
  1218	-2.5557	 1.7718	-0.7839	-2.9300	 2.2883	-0.6417	-3.4313	 2.6101	-0.8214	60.5039	99.9860	
  1219	-2.5773	 1.8035	-0.7737	-2.9417	 2.3199	-0.6218	-3.4299	 2.6336	-0.7964	60.5505	99.9861	
  1220	-2.6009	 1.8040	-0.7969	-2.9559	 2.3112	-0.6447	-3.4537	 2.6300	-0.8238	60.5487	99.9862	
  1221	-2.6081	 1.8146	-0.7935	-2.9818	 2.3341	-0.6477	-3.4646	 2.6459	-0.8188	60.5058	99.9859	
  1222	-2.6142	 1.8408	-0.7735	-2.9730	 2.3654	-0.6076	-3.4563	 2.6851	-0.7713	60.4685	99.9861	
