OxySoft export of:	C:\Users\TO3 TechSupport\Documents\Train2Adapt\T2A_69
Export date:	2022/09/15 03:48:38
Start of measurement:	2022-09-15 02:36:46.922

Datafile sample rate:	10.00	Hz
Datafile duration:	3393.300	s
Datafile total number of samples:	33933

Description:	

Optode-template:	PortaMon TSI Fit Factor
Optode distance (mm):	 35.00
Optode gradients (mm):	 5.00
DPF:	6.06

Device id:	334
# Receivers:	1
# Light sources:	6
# ADC:	2

Light source wavelengths:
device	index	wavelength
1	1	849	nm
1	2	759	nm
1	3	846	nm
1	4	757	nm
1	5	848	nm
1	6	757	nm

Export sample rate:	10.00	Hz
Selected time span:	0	3393.300
Selected time span (sample numbers):	0	33933


Legend:
Column	Trace (Measurement)
1	(Sample number)
2	Rx1-Tx1 O2Hb (T2A_69)
3	Rx1-Tx1 HHb (T2A_69)
4	Rx1-Tx1 tHb (T2A_69)
5	Rx1-Tx2 O2Hb (T2A_69)
6	Rx1-Tx2 HHb (T2A_69)
7	Rx1-Tx2 tHb (T2A_69)
8	Rx1-Tx3 O2Hb (T2A_69)
9	Rx1-Tx3 HHb (T2A_69)
10	Rx1-Tx3 tHb (T2A_69)
11	Rx1-Tx1,Tx2,Tx3 TSI% (T2A_69)
12	Rx1-Tx1,Tx2,Tx3 TSI Fit Factor (T2A_69)
13	(Event)


1	2	3	4	5	6	7	8	9	10	11	12	13
     0	138.4391	74.7135	213.1526	113.8397	63.1581	176.9978	92.7926	57.2651	150.0576	11.5652	98.7634	
     1	-0.0536	 0.0437	-0.0099	-0.0730	 0.0610	-0.0120	-0.1390	 0.0984	-0.0406	63.4205	99.8499	
     2	-0.0694	 0.0494	-0.0200	-0.0666	 0.0517	-0.0149	-0.1453	 0.0944	-0.0509	63.4685	99.8509	
     3	-0.0620	 0.0386	-0.0234	-0.0875	 0.0521	-0.0355	-0.1342	 0.0782	-0.0560	63.5165	99.8485	
     4	-0.0620	 0.0386	-0.0234	-0.0739	 0.0472	-0.0266	-0.1161	 0.0780	-0.0381	63.5664	99.8482	
     5	-0.0221	 0.0324	 0.0103	-0.0256	 0.0372	 0.0116	-0.0680	 0.0733	 0.0053	63.6162	99.8479	
     6	 0.0020	 0.0319	 0.0340	-0.0183	 0.0417	 0.0234	-0.0562	 0.0691	 0.0129	63.6153	99.8476	
     7	-0.0137	 0.0376	 0.0239	-0.0183	 0.0417	 0.0234	-0.0625	 0.0652	 0.0027	63.6633	99.8493	
     8	-0.0063	 0.0268	 0.0204	-0.0119	 0.0324	 0.0205	-0.0625	 0.0652	 0.0027	63.6153	99.8490	
     9	-0.0063	 0.0268	 0.0204	-0.0119	 0.0324	 0.0205	-0.0451	 0.0529	 0.0078	63.7121	99.8487	
    10	-0.0063	 0.0268	 0.0204	-0.0119	 0.0324	 0.0205	-0.0514	 0.0489	-0.0025	63.7113	99.8497	
    11	-0.0231	 0.0164	-0.0067	-0.0192	 0.0279	 0.0087	-0.0577	 0.0450	-0.0127	63.7121	99.8509	
    12	-0.0315	 0.0113	-0.0202	-0.0337	 0.0190	-0.0147	-0.0647	 0.0290	-0.0357	63.7592	99.8501	
    13	-0.0399	 0.0061	-0.0338	-0.0410	 0.0145	-0.0265	-0.0765	 0.0332	-0.0434	63.7113	99.8497	
    14	-0.0158	 0.0056	-0.0101	-0.0200	 0.0141	-0.0059	-0.0285	 0.0285	 0.0000	63.8097	99.8474	
    15	 0.0084	 0.0051	 0.0135	 0.0146	 0.0090	 0.0235	 0.0015	 0.0241	 0.0256	63.8584	99.8482	
    16	 0.0084	 0.0051	 0.0135	 0.0146	 0.0090	 0.0235	-0.0048	 0.0202	 0.0153	63.8576	99.8492	
    17	 0.0084	 0.0051	 0.0135	 0.0137	-0.0048	 0.0089	-0.0111	 0.0162	 0.0051	63.8568	99.8472	
    18	-0.0000	-0.0000	-0.0000	 0.0073	 0.0045	 0.0118	 0.0063	 0.0039	 0.0102	63.9543	99.8489	
    19	-0.0000	-0.0000	-0.0000	 0.0137	-0.0048	 0.0089	 0.0063	 0.0039	 0.0102	63.9543	99.8481	
    20	-0.0000	-0.0000	-0.0000	 0.0000	 0.0000	 0.0000	-0.0000	-0.0000	-0.0000	63.9535	99.8477	
    21	-0.0084	-0.0052	-0.0136	-0.0072	-0.0045	-0.0117	-0.0118	 0.0041	-0.0077	63.9055	99.8474	
    22	-0.0168	-0.0104	-0.0272	-0.0008	-0.0138	-0.0146	-0.0126	-0.0079	-0.0205	63.9535	99.8492	
    23	-0.0326	-0.0047	-0.0373	-0.0081	-0.0183	-0.0263	-0.0188	-0.0119	-0.0307	64.0014	99.8487	
    24	-0.0094	-0.0212	-0.0306	-0.0008	-0.0138	-0.0146	 0.0111	-0.0163	-0.0052	64.0029	99.8483	
    25	 0.0073	-0.0108	-0.0035	 0.0274	-0.0097	 0.0177	 0.0473	-0.0168	 0.0305	64.1001	99.8484	
    26	 0.0157	-0.0057	 0.0101	 0.0338	-0.0190	 0.0148	 0.0473	-0.0168	 0.0305	64.0994	99.8464	
    27	 0.0073	-0.0108	-0.0035	 0.0201	-0.0141	 0.0060	 0.0347	-0.0246	 0.0101	64.0987	99.8482	
    28	-0.0011	-0.0160	-0.0171	 0.0265	-0.0234	 0.0031	 0.0347	-0.0246	 0.0101	64.0994	99.8486	
    29	-0.0011	-0.0160	-0.0171	 0.0265	-0.0234	 0.0031	 0.0403	-0.0328	 0.0075	64.1473	99.8490	
    30	 0.0063	-0.0268	-0.0205	 0.0192	-0.0279	-0.0087	 0.0340	-0.0367	-0.0027	64.0987	99.8482	
    31	-0.0021	-0.0320	-0.0341	 0.0120	-0.0324	-0.0204	 0.0277	-0.0407	-0.0129	64.0987	99.8482	
    32	-0.0105	-0.0372	-0.0476	 0.0047	-0.0369	-0.0322	 0.0096	-0.0404	-0.0308	64.0501	99.8489	
    33	-0.0262	-0.0315	-0.0577	-0.0026	-0.0413	-0.0439	 0.0152	-0.0485	-0.0334	64.1466	99.8478	
    34	-0.0105	-0.0372	-0.0476	 0.0321	-0.0465	-0.0145	 0.0514	-0.0490	 0.0024	64.1965	99.8488	
    35	 0.0137	-0.0376	-0.0240	 0.0530	-0.0469	 0.0061	 0.0750	-0.0574	 0.0177	64.2444	99.8491	
    36	 0.0137	-0.0376	-0.0240	 0.0457	-0.0514	-0.0056	 0.0569	-0.0571	-0.0002	64.1952	99.8486	
    37	 0.0053	-0.0428	-0.0375	 0.0321	-0.0465	-0.0145	 0.0507	-0.0611	-0.0104	64.1952	99.8494	
    38	-0.0031	-0.0480	-0.0511	 0.0385	-0.0558	-0.0174	 0.0507	-0.0611	-0.0104	64.1958	99.8498	
    39	-0.0031	-0.0480	-0.0511	 0.0385	-0.0558	-0.0174	 0.0507	-0.0611	-0.0104	64.1958	99.8498	
    40	-0.0115	-0.0531	-0.0647	 0.0376	-0.0696	-0.0320	 0.0499	-0.0732	-0.0232	64.2437	99.8494	
    41	-0.0273	-0.0475	-0.0748	 0.0239	-0.0648	-0.0409	 0.0318	-0.0729	-0.0411	64.2430	99.8504	
    42	-0.0357	-0.0527	-0.0883	 0.0030	-0.0644	-0.0614	 0.0374	-0.0810	-0.0437	64.2915	99.8483	
    43	-0.0199	-0.0583	-0.0782	 0.0303	-0.0741	-0.0438	 0.0673	-0.0855	-0.0182	64.3407	99.8481	
    44	 0.0116	-0.0696	-0.0580	 0.0513	-0.0744	-0.0232	 0.0736	-0.0815	-0.0079	64.2444	99.8491	
    45	-0.0042	-0.0640	-0.0681	 0.0376	-0.0696	-0.0320	 0.0673	-0.0855	-0.0182	64.2922	99.8495	
    46	-0.0199	-0.0583	-0.0782	 0.0303	-0.0741	-0.0438	 0.0610	-0.0894	-0.0284	64.3400	99.8491	
    47	-0.0126	-0.0691	-0.0817	 0.0367	-0.0834	-0.0467	 0.0610	-0.0894	-0.0284	64.2922	99.8487	
    48	-0.0126	-0.0691	-0.0817	 0.0367	-0.0834	-0.0467	 0.0666	-0.0975	-0.0310	64.3400	99.8491	
    49	-0.0209	-0.0743	-0.0952	 0.0231	-0.0786	-0.0555	 0.0658	-0.1096	-0.0438	64.3879	99.8503	
    50	-0.0293	-0.0795	-0.1088	 0.0222	-0.0924	-0.0702	 0.0596	-0.1135	-0.0540	64.3879	99.8495	
    51	-0.0451	-0.0738	-0.1189	 0.0149	-0.0968	-0.0819	 0.0533	-0.1175	-0.0642	64.4357	99.8491	
    52	-0.0451	-0.0738	-0.1189	 0.0222	-0.0924	-0.0702	 0.0596	-0.1135	-0.0540	64.4363	99.8502	
    53	-0.0136	-0.0851	-0.0987	 0.0431	-0.0927	-0.0496	 0.0839	-0.1098	-0.0259	64.3891	99.8496	
    54	-0.0209	-0.0743	-0.0952	 0.0504	-0.0882	-0.0378	 0.0895	-0.1179	-0.0285	64.4847	99.8518	
    55	-0.0136	-0.0851	-0.0987	 0.0431	-0.0927	-0.0496	 0.0895	-0.1179	-0.0285	64.4369	99.8500	
    56	-0.0293	-0.0795	-0.1088	 0.0495	-0.1020	-0.0525	 0.0895	-0.1179	-0.0285	64.4853	99.8500	
    57	-0.0293	-0.0795	-0.1088	 0.0431	-0.0927	-0.0496	 0.0832	-0.1219	-0.0387	64.4847	99.8518	
    58	-0.0220	-0.0903	-0.1123	 0.0359	-0.0972	-0.0613	 0.0888	-0.1300	-0.0413	64.4847	99.8504	
    59	-0.0377	-0.0846	-0.1224	 0.0423	-0.1065	-0.0642	 0.0707	-0.1298	-0.0591	64.4841	99.8520	
    60	-0.0461	-0.0898	-0.1359	 0.0213	-0.1061	-0.0848	 0.0644	-0.1337	-0.0693	64.4841	99.8506	
    61	-0.0545	-0.0950	-0.1495	 0.0141	-0.1106	-0.0965	 0.0581	-0.1377	-0.0796	64.4841	99.8506	
    62	-0.0388	-0.1006	-0.1394	 0.0414	-0.1203	-0.0789	 0.0762	-0.1379	-0.0617	64.4847	99.8510	
    63	-0.0146	-0.1011	-0.1157	 0.0560	-0.1113	-0.0554	 0.1124	-0.1384	-0.0260	64.5336	99.8501	
    64	-0.0146	-0.1011	-0.1157	 0.0696	-0.1162	-0.0465	 0.1180	-0.1465	-0.0285	64.5814	99.8519	
    65	-0.0146	-0.1011	-0.1157	 0.0560	-0.1113	-0.0554	 0.1117	-0.1504	-0.0388	64.5808	99.8515	
    66	-0.0377	-0.0846	-0.1224	 0.0560	-0.1113	-0.0554	 0.0714	-0.1177	-0.0463	64.4369	99.8520	
    67	-0.1060	-0.0192	-0.1253	-0.0645	-0.0265	-0.0910	-0.0635	-0.0516	-0.1151	64.1445	99.8531	
    68	-0.1670	 0.0353	-0.1317	-0.1410	-0.0206	-0.1616	-0.1611	-0.0664	-0.2275	64.2336	99.8515	
    69	-0.2352	-0.0220	-0.2572	-0.2154	-0.0929	-0.3083	-0.2268	-0.1541	-0.3809	64.3749	99.8503	
    70	-0.3799	-0.1418	-0.5217	-0.3488	-0.2149	-0.5636	-0.3482	-0.2653	-0.6136	64.4213	99.8485	
    71	-0.4502	-0.2311	-0.6813	-0.3659	-0.2652	-0.6311	-0.3198	-0.2939	-0.6136	64.4766	99.8499	
    72	-0.3808	-0.2805	-0.6613	-0.2693	-0.2852	-0.5545	-0.2363	-0.3110	-0.5473	64.4795	99.8557	
    73	-0.2569	-0.3577	-0.6145	-0.2036	-0.3507	-0.5543	-0.2114	-0.3999	-0.6114	64.4255	99.8583	
    74	-0.3418	-0.4253	-0.7672	-0.3070	-0.4409	-0.7480	-0.3071	-0.4833	-0.7903	64.4702	99.8531	
    75	-0.3775	-0.4780	-0.8554	-0.3305	-0.4819	-0.8125	-0.3399	-0.5271	-0.8670	64.4696	99.8563	
    76	-0.3869	-0.4991	-0.8860	-0.3532	-0.5092	-0.8624	-0.4138	-0.5503	-0.9641	64.3195	99.8589	
    77	-0.3953	-0.5043	-0.8996	-0.3878	-0.5040	-0.8918	-0.4500	-0.5499	-0.9999	64.2206	99.8584	
    78	-0.4027	-0.4935	-0.8961	-0.3369	-0.4726	-0.8096	-0.4194	-0.5422	-0.9616	64.3202	99.8691	
    79	-0.4184	-0.4878	-0.9062	-0.3434	-0.4633	-0.8067	-0.4548	-0.5297	-0.9845	64.2220	99.8724	
    80	-0.4247	-0.4610	-0.8858	-0.3626	-0.4354	-0.7980	-0.4785	-0.5213	-0.9998	64.2199	99.8739	
    81	-0.4730	-0.4600	-0.9331	-0.4126	-0.4530	-0.8655	-0.5635	-0.5283	-1.0917	64.1185	99.8741	
    82	-0.4898	-0.4704	-0.9602	-0.4335	-0.4526	-0.8861	-0.5475	-0.5647	-1.1123	64.3137	99.8752	
    83	-0.6103	-0.7134	-1.3237	-0.7734	-0.8608	-1.6343	-1.1366	-1.0161	-2.1527	64.0617	99.8698	
    84	-1.1645	-0.8090	-1.9735	-1.4367	-0.9646	-2.4013	-1.7551	-1.0565	-2.8115	63.3391	99.8488	
    85	-1.3032	-0.7102	-2.0134	-1.6063	-0.8835	-2.4898	-1.9679	-0.9812	-2.9492	63.0216	99.8494	
    86	-1.3527	-0.6025	-1.9552	-1.6404	-0.7588	-2.3992	-1.9374	-0.7763	-2.7137	62.6898	99.8369	
    87	-1.0453	-0.3366	-1.3819	-1.2762	-0.5212	-1.7974	-1.5308	-0.5440	-2.0748	63.0685	99.8359	
    88	-0.8838	-0.2064	-1.0902	-1.1146	-0.3951	-1.5097	-1.3820	-0.3808	-1.7628	62.8789	99.8325	
    89	-0.9656	-0.2261	-1.1918	-1.2112	-0.3751	-1.5863	-1.4988	-0.3149	-1.8137	62.3814	99.8318	
    90	-1.2258	-0.3863	-1.6122	-1.4065	-0.4822	-1.8887	-1.6809	-0.4293	-2.1102	62.3843	99.8424	
    91	-1.4681	-0.6429	-2.1110	-1.6259	-0.7498	-2.3757	-1.9644	-0.7236	-2.6880	62.5068	99.8520	
    92	-1.6033	-0.8643	-2.4676	-1.6662	-0.9469	-2.6131	-1.9225	-0.9295	-2.8520	63.0732	99.8552	
    93	-1.5727	-1.0142	-2.5870	-1.5256	-1.0459	-2.5715	-1.7123	-0.9483	-2.6606	63.2043	99.8535	
    94	-1.6042	-1.0029	-2.6072	-1.5132	-0.9587	-2.4719	-1.6876	-0.8399	-2.5275	62.9245	99.8610	
    95	-1.7700	-1.0743	-2.8443	-1.6521	-1.0575	-2.7097	-1.7932	-0.9875	-2.7807	63.3606	99.8627	
    96	-2.0438	-1.3196	-3.3634	-1.9262	-1.3059	-3.2320	-2.0661	-1.2054	-3.2715	63.3008	99.8586	
    97	-2.2882	-1.4854	-3.7737	-2.1314	-1.4588	-3.5902	-2.2078	-1.3526	-3.5604	63.5011	99.8562	
    98	-2.2567	-1.4967	-3.7535	-2.0049	-1.4471	-3.4520	-2.0301	-1.3106	-3.3407	63.7172	99.8581	
    99	-2.0248	-1.4000	-3.4248	-1.8014	-1.3218	-3.1232	-1.8425	-1.2043	-3.0468	63.6231	99.8622	
   100	-1.8643	-1.2858	-3.1501	-1.6334	-1.2050	-2.8384	-1.7210	-1.0931	-2.8142	63.5275	99.8679	
   101	-1.7406	-1.1176	-2.8582	-1.5192	-1.0552	-2.5744	-1.6650	-0.9650	-2.6300	63.4260	99.8731	
   102	-1.6263	-0.9705	-2.5968	-1.3922	-0.9239	-2.3162	-1.5686	-0.8696	-2.4382	63.5236	99.8792	
   103	-1.5245	-0.8925	-2.4170	-1.3068	-0.8978	-2.2046	-1.5150	-0.8824	-2.3974	63.7608	99.8802	
   104	-1.4857	-0.9146	-2.4003	-1.2713	-0.8892	-2.1605	-1.4238	-0.8715	-2.2952	63.8175	99.8776	
   105	-1.5907	-0.9179	-2.5085	-1.3213	-0.9067	-2.2280	-1.4293	-0.8634	-2.2927	63.9711	99.8740	
   106	-1.7585	-1.0212	-2.7797	-1.4876	-0.9959	-2.4835	-1.5430	-0.9464	-2.4895	64.0205	99.8700	
   107	-1.8204	-1.1053	-2.9257	-1.5556	-1.0776	-2.6331	-1.5711	-1.0105	-2.5816	64.0707	99.8643	
   108	-1.8130	-1.1161	-2.9292	-1.5056	-1.0600	-2.5656	-1.4832	-0.9553	-2.4385	64.0328	99.8628	
   109	-1.7700	-1.0743	-2.8443	-1.4064	-1.0387	-2.4451	-1.3934	-0.9685	-2.3619	64.3730	99.8698	
   110	-1.6001	-0.9390	-2.5391	-1.2140	-0.8672	-2.0812	-1.1644	-0.7782	-1.9426	64.2883	99.8698	
   111	-1.2748	-0.7695	-2.0443	-0.8759	-0.7119	-1.5878	-0.8604	-0.6452	-1.5057	64.4363	99.8750	
   112	-1.1268	-0.7244	-1.8512	-0.7050	-0.6596	-1.3646	-0.6890	-0.6072	-1.2962	64.5835	99.8787	
   113	-1.1037	-0.7409	-1.8446	-0.6994	-0.6827	-1.3821	-0.7023	-0.6271	-1.3294	64.5336	99.8781	
   114	-1.1445	-0.8734	-2.0179	-0.8299	-0.8691	-1.6989	-0.8673	-0.8585	-1.7258	64.7125	99.8741	
   115	-1.5768	-1.0782	-2.6550	-1.2244	-1.0326	-2.2569	-1.2123	-0.9708	-2.1832	64.4719	99.8708	
   116	-1.5695	-1.0890	-2.6585	-1.2505	-1.1149	-2.3654	-1.3131	-1.1386	-2.4517	64.8471	99.8772	
   117	-1.5546	-1.2333	-2.7880	-1.2907	-1.3120	-2.6028	-1.4300	-1.3747	-2.8047	65.0327	99.8789	
   118	-1.5660	-1.4092	-2.9752	-1.2802	-1.4778	-2.7579	-1.4262	-1.5116	-2.9379	65.0822	99.8788	
   119	-1.6174	-1.4562	-3.0736	-1.3639	-1.4764	-2.8403	-1.5076	-1.4582	-2.9658	64.5922	99.8751	
   120	-1.6217	-1.3974	-3.0191	-1.2480	-1.2989	-2.5469	-1.2735	-1.1834	-2.4570	64.2784	99.8744	
   121	-1.3447	-1.2269	-2.5716	-0.9309	-1.1433	-2.0742	-0.9145	-1.0391	-1.9536	64.6255	99.8739	
   122	-1.0720	-0.9976	-2.0695	-0.6859	-0.9129	-1.5988	-0.6575	-0.7847	-1.4422	64.4410	99.8686	
   123	-0.7311	-0.7110	-1.4420	-0.4409	-0.6825	-1.1234	-0.3812	-0.6111	-0.9924	64.6789	99.8596	
   124	-0.4352	-0.4981	-0.9334	-0.2656	-0.5612	-0.8269	-0.3650	-0.5429	-0.9079	64.5190	99.8619	
   125	-0.2768	-0.4160	-0.6927	-0.1438	-0.5127	-0.6565	-0.2716	-0.4958	-0.7674	64.5167	99.8587	
   126	-0.1697	-0.3807	-0.5505	-0.0340	-0.4318	-0.4657	-0.1383	-0.3888	-0.5271	64.3311	99.8583	
   127	-0.0260	-0.2769	-0.3029	 0.1340	-0.3150	-0.1810	 0.0209	-0.2540	-0.2331	64.2417	99.8604	
   128	 0.1177	-0.1731	-0.0554	 0.3085	-0.2076	 0.1009	 0.1952	-0.1676	 0.0276	64.3903	99.8656	
   129	 0.0811	-0.2417	-0.1607	 0.1823	-0.3250	-0.1427	-0.0205	-0.3380	-0.3584	64.3718	99.8676	
   130	-0.1760	-0.3539	-0.5300	-0.1348	-0.4807	-0.6155	-0.3824	-0.5306	-0.9130	64.3546	99.8667	
   131	-0.3535	-0.3557	-0.7092	-0.2887	-0.4827	-0.7713	-0.4903	-0.5171	-1.0074	64.3572	99.8628	
   132	-0.2926	-0.2876	-0.5802	-0.2451	-0.4558	-0.7009	-0.4729	-0.5294	-1.0024	64.5477	99.8642	
   133	-0.3052	-0.3567	-0.6619	-0.2793	-0.5564	-0.8357	-0.5275	-0.6334	-1.1610	64.6407	99.8617	
   134	-0.6408	-0.6861	-1.3269	-0.6461	-0.8354	-1.4815	-0.8943	-0.8058	-1.7002	63.9971	99.8516	
   135	-1.2115	-1.0375	-2.2490	-1.1359	-1.0709	-2.2068	-1.3084	-0.9615	-2.2700	63.5639	99.8530	
   136	-1.6470	-1.2902	-2.9372	-1.3911	-1.2413	-2.6325	-1.5359	-1.1277	-2.6636	63.7225	99.8718	
   137	-1.6720	-1.4284	-3.1004	-1.2861	-1.3489	-2.6350	-1.3880	-1.2786	-2.6666	64.3661	99.8847	
   138	-1.3592	-1.4506	-2.8098	-0.9071	-1.4335	-2.3406	-0.9678	-1.4209	-2.3887	65.3872	99.8864	
   139	-1.2069	-1.4644	-2.6713	-0.7349	-1.4732	-2.2081	-0.7959	-1.4755	-2.2714	65.7257	99.8871	
   140	-1.2143	-1.4535	-2.6678	-0.7122	-1.4460	-2.1582	-0.7339	-1.4481	-2.1819	65.8228	99.8873	
   141	-1.1713	-1.4117	-2.5830	-0.6323	-1.3967	-2.0290	-0.6349	-1.4091	-2.0440	65.9671	99.8900	
   142	-1.1377	-1.3911	-2.5288	-0.5887	-1.3699	-1.9586	-0.6027	-1.3773	-1.9800	65.9192	99.8917	
   143	-1.1115	-1.3596	-2.4711	-0.5442	-1.3292	-1.8735	-0.5337	-1.3339	-1.8676	65.9671	99.8915	
   144	-1.0611	-1.3286	-2.3897	-0.4643	-1.2800	-1.7443	-0.4277	-1.2789	-1.7066	66.0148	99.8924	
   145	-0.9383	-1.2990	-2.2373	-0.3151	-1.2411	-1.5562	-0.2500	-1.2369	-1.4869	66.1568	99.8924	
   146	-0.8250	-1.2906	-2.1156	-0.1950	-1.2201	-1.4152	-0.1392	-1.2021	-1.3412	66.1091	99.8933	
   147	-0.8344	-1.3118	-2.1461	-0.1950	-1.2201	-1.4152	-0.1488	-1.1617	-1.3105	65.8727	99.8926	
   148	-0.8911	-1.3160	-2.2070	-0.2181	-1.1416	-1.3596	-0.1219	-1.0171	-1.1390	65.4514	99.8913	
   149	-0.7484	-1.2281	-1.9765	-0.0428	-1.0203	-1.0632	 0.1041	-0.8751	-0.7710	65.4550	99.8903	
   150	-0.3667	-0.8089	-1.1756	 0.3535	-0.6039	-0.2504	 0.5342	-0.4538	 0.0804	65.4133	99.8884	
   151	 0.0801	-0.3804	-0.3003	 0.7127	-0.2236	 0.4891	 0.9670	-0.0890	 0.8780	65.5079	99.8741	
   152	 0.4810	-0.1643	 0.3166	 0.9918	-0.1179	 0.8738	 1.0708	-0.0702	 1.0006	65.5953	99.8793	
   153	 0.5450	-0.1710	 0.3740	 0.9965	-0.1548	 0.8417	 1.0959	-0.0544	 1.0415	65.4557	99.8652	
   154	 0.7444	-0.0789	 0.6655	 1.2508	 0.0019	 1.2527	 1.4217	 0.1387	 1.5604	65.4151	99.8653	
   155	 0.9427	-0.0028	 0.9399	 1.4500	 0.0583	 1.5083	 1.6057	 0.1846	 1.7903	65.5535	99.8661	
   156	 0.9292	-0.0879	 0.8412	 1.3277	-0.1098	 1.2178	 1.3627	-0.0377	 1.3250	65.5944	99.8663	
   157	 0.6406	-0.1889	 0.4517	 1.0076	-0.2010	 0.8066	 1.0491	-0.1303	 0.9188	65.4055	99.8643	
   158	 0.5198	-0.1865	 0.3334	 0.8520	-0.2306	 0.6214	 0.8337	-0.1960	 0.6377	65.3544	99.8677	
   159	 0.2879	-0.2832	 0.0047	 0.5447	-0.3404	 0.2043	 0.4732	-0.3645	 0.1087	65.2525	99.8715	
   160	 0.0360	-0.3155	-0.2795	 0.2665	-0.4322	-0.1658	 0.1567	-0.5053	-0.3487	65.3902	99.8725	
   161	 0.0612	-0.3000	-0.2388	 0.2511	-0.4550	-0.2039	 0.0891	-0.5246	-0.4355	65.2909	99.8702	
   162	-0.0247	-0.5063	-0.5311	 0.0561	-0.6679	-0.6118	-0.1684	-0.6863	-0.8547	64.7979	99.8609	
   163	-0.5283	-0.8164	-1.3447	-0.3675	-0.8493	-1.2168	-0.4617	-0.7430	-1.2047	64.2778	99.8535	
   164	-1.0372	-1.0836	-2.1209	-0.6992	-1.0138	-1.7130	-0.7058	-0.8848	-1.5906	64.3866	99.8665	
   165	-1.2113	-1.2829	-2.4942	-0.6595	-1.1617	-1.8212	-0.6263	-1.0670	-1.6932	65.0644	99.8866	
   166	-0.9834	-1.3728	-2.3562	-0.3477	-1.3141	-1.6618	-0.2850	-1.3170	-1.6020	66.2518	99.8941	
   167	-0.8185	-1.4401	-2.2586	-0.1426	-1.3866	-1.5292	-0.0304	-1.4008	-1.4312	66.7228	99.8935	
   168	-0.7125	-1.4209	-2.1334	 0.0066	-1.3477	-1.3411	 0.0945	-1.3339	-1.2395	66.6261	99.8972	
   169	-0.6779	-1.3842	-2.0621	 0.0801	-1.2892	-1.2091	 0.1872	-1.2989	-1.1117	66.7648	99.9021	
   170	-0.6601	-1.3579	-2.0180	 0.1318	-1.2441	-1.1122	 0.2577	-1.2313	-0.9737	66.7151	99.9024	
   171	-0.5929	-1.3166	-1.9095	 0.2182	-1.2041	-0.9859	 0.3511	-1.1842	-0.8331	66.7600	99.9023	
   172	-0.4859	-1.2814	-1.7673	 0.3473	-1.1511	-0.8039	 0.5170	-1.1381	-0.6211	66.8961	99.9029	
   173	-0.3631	-1.2518	-1.6149	 0.5028	-1.1215	-0.6187	 0.6640	-1.1037	-0.4397	66.9863	99.9052	
   174	-0.2833	-1.2641	-1.5474	 0.5575	-1.1409	-0.5834	 0.6862	-1.1362	-0.4500	66.9886	99.9066	
   175	-0.4239	-1.3200	-1.7439	 0.3528	-1.1742	-0.8214	 0.4057	-1.0803	-0.6745	66.1537	99.9021	
   176	-0.6131	-1.1295	-1.7425	 0.2359	-0.8089	-0.5730	 0.5066	-0.6105	-0.1039	65.4638	99.8943	
   177	-0.3132	-0.7300	-1.0432	 0.5895	-0.4055	 0.1840	 0.8685	-0.2206	 0.6479	65.4676	99.8990	
   178	 0.2426	-0.1116	 0.1310	 1.0483	 0.1157	 1.1640	 1.3300	 0.2204	 1.5504	65.6947	99.8928	
   179	 0.7116	 0.1618	 0.8734	 1.3399	 0.3085	 1.6484	 1.5408	 0.4109	 1.9518	65.4196	99.8811	
   180	 0.8795	 0.2652	 1.1446	 1.4407	 0.3574	 1.7981	 1.6169	 0.4703	 2.0872	65.3725	99.8728	
   181	 0.9235	 0.3230	 1.2465	 1.5079	 0.4253	 1.9331	 1.6904	 0.5861	 2.2765	65.1924	99.8700	
   182	 1.0850	 0.4531	 1.5382	 1.7203	 0.5827	 2.3030	 1.9832	 0.7354	 2.7186	65.4245	99.8704	
   183	 1.2834	 0.5292	 1.8126	 1.8831	 0.6167	 2.4998	 2.0668	 0.7182	 2.7850	65.5582	99.8760	
   184	 1.0893	 0.3943	 1.4836	 1.5724	 0.4518	 2.0242	 1.6790	 0.4977	 2.1767	65.4151	99.8767	
   185	 0.7608	 0.2995	 1.0603	 1.1950	 0.3386	 1.5336	 1.2741	 0.3942	 1.6683	65.1332	99.8728	
   186	 0.5498	 0.2771	 0.8269	 0.9339	 0.2970	 1.2309	 0.9556	 0.3218	 1.2775	64.9395	99.8754	
   187	 0.2486	 0.2298	 0.4783	 0.5928	 0.2062	 0.7990	 0.5674	 0.1940	 0.7614	64.8827	99.8764	
   188	 0.1268	 0.2162	 0.3430	 0.4638	 0.1532	 0.6169	 0.4433	 0.1392	 0.5825	64.9743	99.8722	
   189	 0.2350	 0.1447	 0.3797	 0.5223	 0.0832	 0.6054	 0.4725	 0.1227	 0.5952	64.6893	99.8654	
   190	-0.0439	-0.1805	-0.2245	 0.2281	-0.1510	 0.0771	 0.1914	-0.0307	 0.1607	64.1208	99.8624	
   191	-0.6955	-0.5356	-1.2312	-0.3027	-0.3720	-0.6747	-0.2241	-0.2105	-0.4347	63.9431	99.8690	
   192	-1.0217	-0.8439	-1.8656	-0.3610	-0.6332	-0.9942	-0.1888	-0.5250	-0.7138	64.9877	99.8894	
   193	-0.7790	-1.0781	-1.8571	 0.0124	-0.9201	-0.9077	 0.1869	-0.9043	-0.7174	66.2930	99.9019	
   194	-0.6277	-1.2305	-1.8582	 0.1605	-1.1204	-0.9598	 0.2824	-1.1230	-0.8406	66.6681	99.9036	
   195	-0.6696	-1.2564	-1.9260	 0.1597	-1.1341	-0.9745	 0.3068	-1.1192	-0.8125	66.7125	99.9037	
   196	-0.6004	-1.1831	-1.7835	 0.2567	-1.0346	-0.7779	 0.4149	-1.0280	-0.6131	66.7100	99.9073	
   197	-0.5732	-1.1356	-1.7087	 0.3012	-0.9940	-0.6928	 0.4715	-0.9925	-0.5211	66.8016	99.9075	
   198	-0.4997	-1.1210	-1.6207	 0.3867	-0.9678	-0.5811	 0.5697	-0.9656	-0.3959	66.8460	99.9080	
   199	-0.4346	-1.1117	-1.5463	 0.4704	-0.9692	-0.4988	 0.6595	-0.9788	-0.3193	67.0298	99.9090	
   200	-0.3957	-1.1338	-1.5295	 0.5042	-0.9882	-0.4840	 0.6832	-0.9872	-0.3040	66.9836	99.9087	
   201	-0.3884	-1.1446	-1.5330	 0.4905	-0.9834	-0.4929	 0.6658	-0.9749	-0.3091	66.8453	99.9081	
   202	-0.4692	-1.1483	-1.6175	 0.3939	-0.9633	-0.5694	 0.5623	-0.8890	-0.3267	66.3827	99.9038	
   203	-0.4998	-0.9983	-1.4981	 0.4513	-0.7159	-0.2646	 0.6788	-0.5604	 0.1184	65.8755	99.9052	
   204	-0.4015	-0.6002	-1.0017	 0.4832	-0.2059	 0.2773	 0.7892	 0.0663	 0.8555	64.7024	99.8935	
   205	-0.0231	 0.0164	-0.0067	 0.8989	 0.4080	 1.3069	 1.3319	 0.6512	 1.9831	64.8972	99.8891	
   206	 0.5664	 0.5328	 1.0992	 1.3572	 0.8096	 2.1668	 1.6664	 0.9891	 2.6555	64.8465	99.8873	
   207	 0.7593	 0.7744	 1.5337	 1.4603	 1.0056	 2.4659	 1.7150	 1.1938	 2.9088	64.5285	99.8812	
   208	 0.8998	 0.9530	 1.8528	 1.5916	 1.2058	 2.7974	 1.8527	 1.3732	 3.2259	64.4424	99.8839	
   209	 0.9301	 1.0484	 1.9785	 1.6087	 1.2561	 2.8648	 1.7999	 1.3980	 3.1979	64.4360	99.8874	
   210	 0.7779	 1.0621	 1.8400	 1.4057	 1.2503	 2.6560	 1.5937	 1.3846	 2.9783	64.2939	99.8834	
   211	 0.7075	 1.0955	 1.8031	 1.2664	 1.2572	 2.5237	 1.3805	 1.3551	 2.7356	64.0984	99.8859	
   212	 0.4892	 1.0839	 1.5731	 1.0070	 1.2432	 2.2503	 1.1012	 1.3305	 2.4317	63.8599	99.8855	
   213	 0.3359	 1.0816	 1.4175	 0.8160	 1.2051	 2.0211	 0.8252	 1.2616	 2.0869	63.7036	99.8896	
   214	 0.1071	 1.0328	 1.1399	 0.4950	 1.1001	 1.5951	 0.4174	 1.1098	 1.5273	63.5335	99.8901	
   215	-0.0178	 0.9713	 0.9535	 0.2877	 1.0254	 1.3132	 0.2501	 1.0395	 1.2896	63.4305	99.8795	
   216	-0.1278	 0.7654	 0.6376	 0.1355	 0.8256	 0.9611	 0.0784	 0.8968	 0.9752	63.1392	99.8727	
   217	-0.6145	 0.3430	-0.2715	-0.3086	 0.5388	 0.2301	-0.2758	 0.7323	 0.4564	62.5439	99.8671	
   218	-1.2283	-0.0502	-1.2784	-0.6836	 0.2415	-0.4420	-0.5316	 0.3974	-0.1343	63.2206	99.8859	
   219	-1.3339	-0.4375	-1.7714	-0.4983	-0.1480	-0.6463	-0.2641	-0.0731	-0.3373	64.8136	99.9055	
   220	-0.9756	-0.7541	-1.7297	-0.1746	-0.5582	-0.7328	-0.0572	-0.5469	-0.6041	65.5945	99.9102	
   221	-0.9880	-0.9459	-1.9339	-0.2132	-0.7277	-0.9409	-0.1022	-0.6912	-0.7934	65.5007	99.9084	
   222	-0.9776	-0.9088	-1.8863	-0.1486	-0.7012	-0.8498	-0.0402	-0.6638	-0.7040	65.6413	99.9111	
   223	-0.8810	-0.9107	-1.7917	-0.0640	-0.6888	-0.7528	 0.0622	-0.6692	-0.6070	65.7347	99.9115	
   224	-0.8841	-0.9587	-1.8427	-0.0756	-0.7622	-0.8378	 0.0445	-0.7616	-0.7170	65.9205	99.9112	
   225	-0.9428	-0.9948	-1.9377	-0.1128	-0.7984	-0.9112	 0.0068	-0.7852	-0.7784	65.9206	99.9115	
   226	-0.9932	-1.0258	-2.0190	-0.1564	-0.8252	-0.9816	-0.0190	-0.8131	-0.8321	65.9671	99.9110	
   227	-1.0509	-1.0460	-2.0969	-0.2410	-0.8376	-1.0786	-0.1276	-0.8117	-0.9393	65.7338	99.9105	
   228	-1.1948	-1.0271	-2.2219	-0.3632	-0.7804	-1.1435	-0.2415	-0.6975	-0.9390	65.3156	99.9092	
   229	-1.2831	-0.8973	-2.1804	-0.4387	-0.5353	-0.9740	-0.2706	-0.3790	-0.6496	64.5358	99.9088	
   230	-1.3506	-0.5705	-1.9211	-0.4538	-0.1073	-0.5611	-0.2384	 0.1520	-0.0864	63.6396	99.9074	
   231	-1.3743	 0.0594	-1.3148	-0.5172	 0.5561	 0.0389	-0.2951	 0.8130	 0.5179	62.8303	99.9075	
   232	-0.9991	 0.7508	-0.2483	-0.1792	 1.2679	 1.0887	 0.1137	 1.5808	 1.6945	62.2393	99.8973	
   233	-0.4610	 1.2202	 0.7592	 0.1564	 1.6072	 1.7636	 0.3109	 1.8440	 2.1548	62.0627	99.8919	
   234	-0.1915	 1.5243	 1.3327	 0.3775	 1.9024	 2.2799	 0.5024	 2.1153	 2.6177	61.8843	99.8926	
   235	-0.0594	 1.6977	 1.6383	 0.4815	 2.1122	 2.5937	 0.5991	 2.3154	 2.9145	61.6204	99.8951	
   236	-0.1246	 1.8110	 1.6864	 0.3930	 2.1505	 2.5435	 0.4453	 2.3697	 2.8150	61.4619	99.8916	
   237	-0.1804	 1.9455	 1.7651	 0.3371	 2.2618	 2.5989	 0.3969	 2.4669	 2.8638	61.4602	99.8907	
   238	-0.2487	 2.0109	 1.7622	 0.2013	 2.3239	 2.5252	 0.2228	 2.4853	 2.7081	61.2509	99.8928	
   239	-0.4765	 1.9781	 1.5016	-0.1227	 2.2834	 2.1607	-0.1736	 2.4220	 2.2483	60.7862	99.8935	
   240	-0.7126	 1.9401	 1.2275	-0.4201	 2.2194	 1.7993	-0.5604	 2.3182	 1.7578	60.4963	99.8979	
   241	-0.9677	 1.8599	 0.8922	-0.7774	 2.0921	 1.3146	-1.0232	 2.1551	 1.1319	60.1329	99.8988	
   242	-1.1324	 1.8045	 0.6720	-1.0292	 1.9767	 0.9476	-1.3007	 2.0620	 0.7614	59.8948	99.8883	
   243	-1.4775	 1.4539	-0.0236	-1.4532	 1.6757	 0.2225	-1.6467	 1.8330	 0.1863	59.4957	99.8728	
   244	-2.2927	 0.9367	-1.3560	-2.0855	 1.2863	-0.7992	-2.0773	 1.5043	-0.5729	59.7471	99.8735	
   245	-2.6786	 0.4536	-2.2249	-2.0912	 0.8586	-1.2326	-1.9602	 1.0438	-0.9163	61.2380	99.8972	
   246	-2.2593	 0.0825	-2.1768	-1.5154	 0.4580	-1.0575	-1.4267	 0.5780	-0.8487	62.5606	99.9132	
   247	-1.8549	-0.1443	-1.9993	-1.1767	 0.1763	-1.0004	-1.1630	 0.2444	-0.9185	63.1019	99.9147	
   248	-1.8086	-0.3000	-2.1086	-1.1836	 0.0660	-1.1176	-1.1925	 0.1562	-1.0362	62.8143	99.9143	
   249	-1.8317	-0.2835	-2.1152	-1.1836	 0.0660	-1.1176	-1.2231	 0.1486	-1.0745	62.8578	99.9174	
   250	-1.8978	-0.3089	-2.2067	-1.2400	 0.0578	-1.1823	-1.2586	 0.1611	-1.0975	62.7685	99.9160	
   251	-1.9135	-0.3032	-2.2168	-1.2464	 0.0671	-1.1794	-1.2760	 0.1734	-1.1026	62.7215	99.9173	
   252	-1.9283	-0.2816	-2.2099	-1.2374	 0.0991	-1.1383	-1.2431	 0.2173	-1.0258	62.7301	99.9168	
   253	-1.8789	-0.2666	-2.1455	-1.1874	 0.1167	-1.0708	-1.1818	 0.2326	-0.9492	62.7806	99.9164	
   254	-1.8779	-0.2506	-2.1285	-1.1793	 0.1349	-1.0444	-1.1748	 0.2486	-0.9262	62.7818	99.9173	
   255	-1.8685	-0.2294	-2.0979	-1.1703	 0.1670	-1.0033	-1.1782	 0.2929	-0.8852	62.6426	99.9179	
   256	-1.8811	-0.1758	-2.0570	-1.1814	 0.2131	-0.9683	-1.2052	 0.3456	-0.8595	62.5478	99.9181	
   257	-1.9042	-0.1594	-2.0636	-1.2280	 0.2507	-0.9772	-1.2392	 0.3823	-0.8569	62.4074	99.9173	
   258	-1.9337	-0.1161	-2.0498	-1.2181	 0.2966	-0.9215	-1.2230	 0.4505	-0.7724	62.3701	99.9176	
   259	-1.8907	-0.0743	-1.9650	-1.1792	 0.3603	-0.8189	-1.1706	 0.5183	-0.6522	62.2836	99.9176	
   260	-1.8876	-0.0263	-1.9139	-1.1685	 0.4199	-0.7486	-1.1544	 0.5866	-0.5678	62.1961	99.9178	
   261	-1.9076	 0.0381	-1.8695	-1.1915	 0.4985	-0.6930	-1.1548	 0.6792	-0.4756	62.0639	99.9159	
   262	-1.8940	 0.1232	-1.7708	-1.1709	 0.6039	-0.5670	-1.1364	 0.7836	-0.3528	61.9307	99.9180	
   263	-1.9046	 0.2088	-1.6958	-1.1722	 0.6959	-0.4762	-1.1598	 0.8966	-0.2631	61.7022	99.9189	
   264	-1.9582	 0.2525	-1.7057	-1.2452	 0.7570	-0.4883	-1.2348	 0.9540	-0.2808	61.5137	99.9193	
   265	-2.1765	 0.2409	-1.9357	-1.4290	 0.7233	-0.7057	-1.3867	 0.9398	-0.4468	61.5617	99.9163	
   266	-2.1996	 0.2573	-1.9423	-1.4593	 0.7974	-0.6619	-1.4218	 1.0570	-0.3648	61.1095	99.9166	
   267	-2.3016	 0.4247	-1.8769	-1.5801	 0.9880	-0.5921	-1.4896	 1.2351	-0.2545	60.9341	99.9145	
   268	-2.3417	 0.5536	-1.7881	-1.5843	 1.1444	-0.4399	-1.4779	 1.4282	-0.0497	60.6810	99.9146	
   269	-2.2820	 0.7284	-1.5535	-1.5056	 1.2857	-0.2199	-1.4344	 1.5484	 0.1140	60.7250	99.9176	
   270	-2.5299	 0.8828	-1.6471	-1.8118	 1.6404	-0.1714	-1.6242	 1.9052	 0.2809	59.8023	99.9189	
   271	-2.3057	 1.3584	-0.9473	-1.5890	 1.9632	 0.3742	-1.5354	 2.2744	 0.7390	59.5557	99.9152	
   272	-2.1307	 1.6964	-0.4343	-1.5093	 2.3436	 0.8343	-1.3853	 2.6590	 1.2737	59.1291	99.9072	
   273	-2.0763	 1.9140	-0.1623	-1.5156	 2.5783	 1.0627	-1.4325	 2.9777	 1.5452	58.3165	99.9009	
   274	-1.9360	 2.2153	 0.2794	-1.4684	 2.8856	 1.4172	-1.4442	 3.2838	 1.8396	57.7053	99.9001	
   275	-1.7399	 2.5048	 0.7649	-1.3055	 3.1451	 1.8396	-1.3117	 3.5760	 2.2643	57.3995	99.8955	
   276	-1.6351	 2.6308	 0.9957	-1.2340	 3.2818	 2.0478	-1.2284	 3.7561	 2.5278	57.1043	99.8895	
   277	-1.6447	 2.8550	 1.2103	-1.2365	 3.4659	 2.2294	-1.2481	 3.9295	 2.6814	57.0558	99.8894	
   278	-1.5809	 3.0938	 1.5129	-1.1462	 3.6805	 2.5343	-1.0701	 4.0762	 3.0061	57.5458	99.8888	
   279	-1.4885	 3.0280	 1.5395	-1.0804	 3.6150	 2.5346	-1.0209	 3.9910	 2.9701	57.6208	99.8900	
   280	-1.2093	 3.1077	 1.8984	-0.7680	 3.8075	 3.0395	-0.7568	 4.0641	 3.3073	57.7322	99.9132	
   281	-1.3887	 2.9513	 1.5626	-1.0301	 3.5268	 2.4967	-1.1349	 3.8032	 2.6683	57.5712	99.9066	
   282	-1.6228	 2.9453	 1.3225	-1.2523	 3.5489	 2.2966	-1.3374	 3.8501	 2.5127	57.3001	99.9059	
   283	-1.6594	 2.8767	 1.2172	-1.4100	 3.3722	 1.9622	-1.6169	 3.5236	 1.9067	57.6061	99.9118	
   284	-2.0895	 2.4585	 0.3690	-1.9462	 2.8431	 0.8969	-2.1135	 3.0026	 0.8891	57.8721	99.8933	
   285	-2.6150	 2.0582	-0.5569	-2.3856	 2.5194	 0.1338	-2.4861	 2.7336	 0.2475	57.7933	99.8945	
   286	-2.8752	 1.8980	-0.9772	-2.5481	 2.3796	-0.1685	-2.6327	 2.6066	-0.0261	57.9498	99.9000	
   287	-2.8123	 1.9981	-0.8142	-2.4724	 2.5853	 0.1129	-2.5003	 2.8988	 0.3986	57.3766	99.8969	
   288	-2.3792	 2.4643	 0.0850	-1.9615	 3.0458	 1.0843	-1.9962	 3.3433	 1.3470	57.5549	99.9037	
   289	-1.9878	 2.6592	 0.6713	-1.5118	 3.3095	 1.7978	-1.4670	 3.6062	 2.1393	57.7993	99.9064	
   290	-1.7212	 2.6698	 0.9487	-1.2733	 3.3239	 2.0506	-1.2914	 3.6120	 2.3206	57.7448	99.9101	
   291	-1.7537	 2.6652	 0.9114	-1.3280	 3.3432	 2.0152	-1.3185	 3.6647	 2.3462	57.5295	99.9057	
   292	-1.6047	 2.7262	 1.1215	-1.1207	 3.4179	 2.2972	-1.1086	 3.7385	 2.6298	57.7052	99.9101	
   293	-1.5691	 2.7788	 1.2098	-1.1446	 3.4827	 2.3381	-1.1719	 3.7916	 2.6198	57.4057	99.9110	
   294	-1.6521	 2.8658	 1.2138	-1.2886	 3.5265	 2.2379	-1.3751	 3.8265	 2.4514	57.1206	99.9094	
   295	-1.8810	 2.9398	 1.0588	-1.5881	 3.5408	 1.9526	-1.6571	 3.8583	 2.2012	56.8912	99.8983	
   296	-1.9241	 3.0207	 1.0965	-1.6240	 3.6380	 2.0140	-1.6464	 3.9346	 2.2883	56.9571	99.8983	
   297	-1.9515	 3.0959	 1.1444	-1.6261	 3.7162	 2.0901	-1.6768	 4.0317	 2.3549	56.7807	99.9007	
   298	-2.0524	 3.1566	 1.1042	-1.7846	 3.7511	 1.9665	-1.8996	 4.0426	 2.1430	56.4854	99.9021	
   299	-2.2791	 3.1398	 0.8607	-2.0440	 3.7371	 1.6931	-2.1830	 4.0503	 1.8673	56.0765	99.9002	
   300	-2.4544	 3.1700	 0.7155	-2.2581	 3.7775	 1.5194	-2.3840	 4.1213	 1.7373	55.6914	99.8949	
   301	-2.5469	 3.2358	 0.6889	-2.3302	 3.8523	 1.5221	-2.4277	 4.1984	 1.7707	55.6644	99.8945	
   302	-2.4683	 3.3303	 0.8620	-2.1832	 3.9694	 1.7862	-2.2094	 4.3123	 2.1029	55.9737	99.8956	
   303	-2.2206	 3.4214	 1.2008	-1.9032	 4.0888	 2.1856	-1.9368	 4.4256	 2.4888	56.0672	99.9008	
   304	-2.1072	 3.4298	 1.3226	-1.7959	 4.1284	 2.3325	-1.8448	 4.4485	 2.6037	56.0289	99.9050	
   305	-2.0747	 3.4345	 1.3598	-1.7259	 4.1318	 2.4060	-1.7968	 4.4439	 2.6471	56.1273	99.9095	
   306	-2.0663	 3.4396	 1.3734	-1.7468	 4.1322	 2.3854	-1.8385	 4.4525	 2.6139	55.9723	99.9082	
   307	-2.0757	 3.4185	 1.3428	-1.7630	 4.0957	 2.3326	-1.8658	 4.4005	 2.5346	56.0453	99.9088	
   308	-2.0662	 3.3169	 1.2508	-1.7545	 4.0081	 2.2536	-1.8639	 4.3320	 2.4681	55.9995	99.9085	
   309	-2.0494	 3.3273	 1.2779	-1.7199	 4.0030	 2.2830	-1.8466	 4.3197	 2.4731	56.0874	99.9104	
   310	-2.0829	 3.3066	 1.2236	-1.7836	 3.9902	 2.2066	-1.9323	 4.3007	 2.3684	55.9241	99.9111	
   311	-2.1323	 3.2916	 1.1593	-1.8328	 3.9865	 2.1537	-1.9692	 4.2891	 2.3199	55.9241	99.9116	
   312	-2.1460	 3.3292	 1.1832	-1.8310	 4.0140	 2.1830	-1.9781	 4.3415	 2.3634	55.8399	99.9107	
   313	-2.1523	 3.3560	 1.2037	-1.8567	 4.0513	 2.1946	-2.0129	 4.3661	 2.3533	55.7369	99.9119	
   314	-2.1512	 3.3720	 1.2207	-1.8349	 4.0647	 2.2298	-1.9578	 4.3775	 2.4197	55.8969	99.9108	
   315	-2.0620	 3.3809	 1.3188	-1.7366	 4.0722	 2.3357	-1.8374	 4.3719	 2.5346	56.0983	99.9107	
   316	-2.0221	 3.3747	 1.3526	-1.7020	 4.0670	 2.3651	-1.8311	 4.3759	 2.5448	55.9995	99.9117	
   317	-2.0305	 3.3696	 1.3390	-1.7374	 4.0584	 2.3210	-1.8799	 4.3685	 2.4886	55.8895	99.9107	
   318	-2.0704	 3.3757	 1.3053	-1.7866	 4.0547	 2.2681	-1.9405	 4.3652	 2.4248	55.8287	99.9103	
   319	-2.0946	 3.3762	 1.2816	-1.8212	 4.0599	 2.2387	-1.9822	 4.3738	 2.3916	55.7293	99.9102	
   320	-2.1187	 3.3767	 1.2580	-1.8357	 4.0509	 2.2152	-2.0066	 4.3701	 2.3635	55.7255	99.9105	
   321	-2.0620	 3.3809	 1.3188	-1.7665	 4.0405	 2.2740	-1.8931	 4.3485	 2.4553	56.0232	99.9080	
   322	-1.9749	 3.3578	 1.3829	-1.6554	 4.0295	 2.3741	-1.7908	 4.3432	 2.5524	56.0874	99.9104	
   323	-1.9591	 3.3521	 1.3930	-1.6627	 4.0250	 2.3623	-1.8215	 4.3355	 2.5140	55.9774	99.9109	
   324	-1.9675	 3.3470	 1.3795	-1.6772	 4.0160	 2.3388	-1.8451	 4.3439	 2.4987	55.8820	99.9096	
   325	-1.9759	 3.3418	 1.3659	-1.6772	 4.0160	 2.3388	-1.8514	 4.3399	 2.4885	55.8820	99.9112	
   326	-2.0000	 3.3423	 1.3422	-1.7127	 4.0074	 2.2948	-1.8939	 4.3364	 2.4425	55.8249	99.9100	
   327	-1.9927	 3.3315	 1.3388	-1.6853	 3.9978	 2.3124	-1.8229	 4.3114	 2.4884	56.0764	99.9094	
   328	-1.8814	 3.3079	 1.4265	-1.5606	 3.9819	 2.4213	-1.6788	 4.2974	 2.6186	56.2390	99.9092	
   329	-1.8100	 3.2905	 1.4805	-1.4922	 3.9577	 2.4655	-1.6433	 4.2849	 2.6416	56.1861	99.9099	
   330	-1.8184	 3.2853	 1.4669	-1.5067	 3.9488	 2.4420	-1.6503	 4.2689	 2.6185	56.2282	99.9093	
   331	-1.8352	 3.2750	 1.4398	-1.5213	 3.9398	 2.4185	-1.6810	 4.2612	 2.5802	56.1752	99.9106	
   332	-1.8362	 3.2590	 1.4228	-1.5294	 3.9215	 2.3921	-1.7054	 4.2575	 2.5521	56.0764	99.9100	
   333	-1.8603	 3.2595	 1.3991	-1.5439	 3.9126	 2.3687	-1.7124	 4.2415	 2.5291	56.1680	99.9100	
   334	-1.8047	 3.2477	 1.4430	-1.4538	 3.9019	 2.4481	-1.5982	 4.2320	 2.6338	56.3796	99.9103	
   335	-1.6934	 3.2241	 1.5307	-1.3363	 3.8815	 2.5452	-1.4785	 4.2143	 2.7358	56.4850	99.9105	
   336	-1.6692	 3.2236	 1.5544	-1.3025	 3.8625	 2.5600	-1.4556	 4.1939	 2.7383	56.5728	99.9107	
   337	-1.6472	 3.1912	 1.5440	-1.3106	 3.8443	 2.5336	-1.4807	 4.1781	 2.6974	56.4218	99.9108	
   338	-1.6723	 3.1757	 1.5033	-1.3397	 3.8264	 2.4866	-1.5065	 4.1503	 2.6437	56.4605	99.9110	
   339	-1.6975	 3.1602	 1.4627	-1.3688	 3.8084	 2.4397	-1.5435	 4.1387	 2.5952	56.4077	99.9107	
   340	-1.7143	 3.1498	 1.4355	-1.3760	 3.8040	 2.4279	-1.5497	 4.1347	 2.5850	56.4112	99.9115	
   341	-1.6345	 3.1376	 1.5031	-1.2722	 3.7884	 2.5162	-1.4064	 4.1087	 2.7024	56.7131	99.9107	
   342	-1.5316	 3.1089	 1.5773	-1.1765	 3.7546	 2.5781	-1.3055	 4.0792	 2.7738	56.8111	99.9092	
   343	-1.5095	 3.0764	 1.5669	-1.1509	 3.7174	 2.5665	-1.3014	 4.0470	 2.7456	56.8044	99.9102	
   344	-1.5347	 3.0609	 1.5262	-1.1663	 3.6946	 2.5283	-1.3383	 4.0354	 2.6970	56.7519	99.9110	
   345	-1.5284	 3.0341	 1.5057	-1.1744	 3.6764	 2.5020	-1.3398	 4.0112	 2.6714	56.7486	99.9106	
   346	-1.5452	 3.0238	 1.4786	-1.1962	 3.6629	 2.4667	-1.3649	 3.9954	 2.6306	56.7418	99.9105	
   347	-1.5619	 3.0134	 1.4515	-1.1971	 3.6492	 2.4521	-1.3719	 3.9794	 2.6075	56.7875	99.9119	
   348	-1.4821	 3.0012	 1.5190	-1.0868	 3.6243	 2.5375	-1.2167	 3.9492	 2.7326	57.1369	99.9101	
   349	-1.3719	 2.9616	 1.5897	-0.9839	 3.5950	 2.6111	-1.1158	 3.9198	 2.8040	57.1889	99.9104	
   350	-1.3572	 2.9400	 1.5828	-0.9647	 3.5670	 2.6024	-1.1228	 3.9037	 2.7809	57.1369	99.9112	
   351	-1.3508	 2.9132	 1.5623	-0.9728	 3.5488	 2.5760	-1.1305	 3.8757	 2.7451	57.1304	99.9116	
   352	-1.3676	 2.9028	 1.5352	-0.9882	 3.5260	 2.5379	-1.1438	 3.8557	 2.7119	57.1728	99.9105	
   353	-1.3771	 2.8817	 1.5046	-0.9963	 3.5078	 2.5115	-1.1689	 3.8399	 2.6710	57.1206	99.9117	
   354	-1.3938	 2.8714	 1.4775	-1.0044	 3.4895	 2.4851	-1.1697	 3.8279	 2.6582	57.1695	99.9107	
   355	-1.2909	 2.8426	 1.5517	-0.8869	 3.4691	 2.5822	-1.0026	 3.7935	 2.7909	57.4716	99.9097	
   356	-1.1880	 2.8139	 1.6259	-0.7575	 3.4164	 2.6589	-0.8962	 3.7559	 2.8597	57.6143	99.9101	
   357	-1.1659	 2.7814	 1.6155	-0.7520	 3.3933	 2.6413	-0.9095	 3.7359	 2.8264	57.5140	99.9108	
   358	-1.1754	 2.7603	 1.5849	-0.7537	 3.3657	 2.6120	-0.9054	 3.7037	 2.7983	57.6051	99.9107	
   359	-1.1690	 2.7335	 1.5645	-0.7481	 3.3426	 2.5945	-0.9013	 3.6714	 2.7701	57.6476	99.9117	
   360	-1.1785	 2.7123	 1.5339	-0.7909	 3.3295	 2.5387	-0.9508	 3.6519	 2.7011	57.5410	99.9112	
   361	-1.2037	 2.6968	 1.4932	-0.7862	 3.2927	 2.5065	-0.9523	 3.6278	 2.6755	57.6354	99.9110	
   362	-1.1249	 2.6686	 1.5437	-0.6760	 3.2678	 2.5919	-0.8089	 3.6018	 2.7929	57.8902	99.9109	
   363	-1.0209	 2.6558	 1.6349	-0.5657	 3.2429	 2.6772	-0.6899	 3.5720	 2.8822	58.0809	99.9102	
   364	-0.9600	 2.6013	 1.6413	-0.5128	 3.1961	 2.6833	-0.6503	 3.5272	 2.8769	58.0780	99.9109	
   365	-0.9694	 2.5801	 1.6107	-0.5282	 3.1733	 2.6452	-0.6754	 3.5115	 2.8360	58.0267	99.9106	
   366	-0.9715	 2.5482	 1.5767	-0.5371	 3.1413	 2.6041	-0.6784	 3.4632	 2.7848	58.1119	99.9110	
   367	-0.9809	 2.5270	 1.5461	-0.5389	 3.1137	 2.5748	-0.7035	 3.4474	 2.7439	58.0606	99.9117	
   368	-0.9904	 2.5059	 1.5155	-0.5406	 3.0861	 2.5456	-0.6994	 3.4151	 2.7158	58.1517	99.9117	
   369	-0.9116	 2.4776	 1.5660	-0.4376	 3.0568	 2.6192	-0.5560	 3.3891	 2.8331	58.4046	99.9099	
   370	-0.8003	 2.4540	 1.6538	-0.3137	 3.0271	 2.7134	-0.4370	 3.3594	 2.9224	58.5490	99.9106	
   371	-0.7698	 2.4268	 1.6569	-0.2881	 2.9899	 2.7018	-0.4155	 3.3149	 2.8993	58.6344	99.9105	
   372	-0.7719	 2.3948	 1.6229	-0.2898	 2.9623	 2.6725	-0.4170	 3.2907	 2.8737	58.6344	99.9105	
   373	-0.7572	 2.3732	 1.6160	-0.2907	 2.9485	 2.6579	-0.4240	 3.2747	 2.8507	58.5836	99.9106	
   374	-0.7582	 2.3572	 1.5990	-0.2851	 2.9254	 2.6403	-0.4255	 3.2506	 2.8251	58.6263	99.9111	
   375	-0.7676	 2.3360	 1.5684	-0.2796	 2.9024	 2.6228	-0.4206	 3.2304	 2.8097	58.6745	99.9117	
   376	-0.6721	 2.3181	 1.6460	-0.1694	 2.8775	 2.7081	-0.2654	 3.2002	 2.9348	58.9677	99.9093	
   377	-0.5776	 2.2842	 1.7067	-0.0673	 2.8344	 2.7671	-0.1653	 3.1586	 2.9934	59.1087	99.9091	
   378	-0.5481	 2.2409	 1.6928	-0.0553	 2.8020	 2.7467	-0.1675	 3.1224	 2.9550	59.0558	99.9101	
   379	-0.5575	 2.2198	 1.6622	-0.0506	 2.7651	 2.7145	-0.1697	 3.0862	 2.9166	59.1440	99.9103	
   380	-0.5596	 2.1878	 1.6282	-0.0459	 2.7282	 2.6823	-0.1656	 3.0540	 2.8884	59.1894	99.9100	
   381	-0.5533	 2.1610	 1.6077	-0.0477	 2.7007	 2.6530	-0.1678	 3.0178	 2.8500	59.2299	99.9102	
   382	-0.5312	 2.1286	 1.5974	-0.0212	 2.6772	 2.6560	-0.1149	 2.9929	 2.8780	59.3304	99.9092	
   383	-0.4042	 2.0994	 1.6952	 0.1510	 2.6375	 2.7885	 0.0758	 2.9502	 3.0260	59.6685	99.9101	
   384	-0.3023	 2.0546	 1.7524	 0.2522	 2.5806	 2.8329	 0.1926	 2.8843	 3.0769	59.8990	99.9088	
   385	-0.2655	 2.0006	 1.7351	 0.2834	 2.5203	 2.8037	 0.1960	 2.8399	 3.0359	59.8471	99.9087	
   386	-0.2675	 1.9686	 1.7010	 0.2881	 2.4834	 2.7715	 0.1993	 2.7956	 2.9949	59.9354	99.9094	
   387	-0.2623	 1.9258	 1.6635	 0.2791	 2.4514	 2.7305	 0.1790	 2.7596	 2.9387	59.8835	99.9104	
   388	-0.2559	 1.8990	 1.6431	 0.2910	 2.4190	 2.7100	 0.2068	 2.7190	 2.9258	60.0216	99.9099	
   389	-0.2024	 1.8553	 1.6529	 0.3996	 2.3665	 2.7661	 0.3605	 2.6647	 3.0252	60.4062	99.9095	
   390	-0.0123	 1.8034	 1.7912	 0.5927	 2.3265	 2.9192	 0.5748	 2.6136	 3.1885	60.6453	99.9098	
   391	 0.0738	 1.7644	 1.8382	 0.6657	 2.2655	 2.9312	 0.6262	 2.5646	 3.1909	60.6846	99.9080	
   392	 0.0865	 1.7108	 1.7973	 0.6695	 2.2148	 2.8844	 0.6344	 2.5001	 3.1345	60.7710	99.9084	
   393	 0.0918	 1.6680	 1.7598	 0.7208	 2.1403	 2.8611	 0.6552	 2.4435	 3.0986	60.9063	99.9097	
   394	 0.1055	 1.6304	 1.7358	 0.7118	 2.1083	 2.8201	 0.6759	 2.3868	 3.0627	61.0399	99.9086	
   395	 0.1108	 1.5876	 1.6983	 0.7165	 2.0714	 2.7879	 0.6611	 2.3428	 3.0039	61.0345	99.9109	
   396	 0.1171	 1.5608	 1.6779	 0.7284	 2.0390	 2.7675	 0.7014	 2.3100	 3.0115	61.1753	99.9088	
   397	 0.2284	 1.5372	 1.7656	 0.8869	 2.0042	 2.8911	 0.8984	 2.2712	 3.1697	61.5539	99.9084	
   398	 0.3618	 1.4812	 1.8430	 1.0292	 1.9328	 2.9620	 1.0451	 2.2009	 3.2461	61.7833	99.9074	
   399	 0.3912	 1.4379	 1.8291	 1.0540	 1.8818	 2.9357	 1.0533	 2.1364	 3.1897	61.8672	99.9089	
   400	 0.4039	 1.3843	 1.7882	 1.0441	 1.8359	 2.8800	 1.0386	 2.0923	 3.1309	61.8177	99.9082	
   401	 0.4018	 1.3524	 1.7542	 1.0552	 1.7897	 2.8449	 1.0357	 2.0440	 3.0797	61.9049	99.9092	
   402	 0.4071	 1.3096	 1.7167	 1.0389	 1.7532	 2.7922	 1.0327	 1.9957	 3.0285	61.9471	99.9083	
   403	 0.3893	 1.2833	 1.6725	 1.0299	 1.7212	 2.7511	 1.0124	 1.9598	 2.9722	61.9893	99.9095	
   404	 0.3641	 1.2678	 1.6318	 1.0210	 1.6891	 2.7101	 1.0283	 1.9233	 2.9517	62.1726	99.9079	
   405	 0.4670	 1.2390	 1.7060	 1.1658	 1.6591	 2.8249	 1.2198	 1.8927	 3.1124	62.5034	99.9071	
   406	 0.5783	 1.2155	 1.7938	 1.3025	 1.6108	 2.9133	 1.3617	 1.8425	 3.2042	62.7776	99.9066	
   407	 0.6392	 1.1609	 1.8001	 1.3345	 1.5643	 2.8988	 1.3824	 1.7859	 3.1683	62.7730	99.9070	
   408	 0.6298	 1.1397	 1.7696	 1.3392	 1.5274	 2.8666	 1.3858	 1.7416	 3.1273	62.9068	99.9075	
   409	 0.6435	 1.1021	 1.7456	 1.3375	 1.4998	 2.8373	 1.3836	 1.7054	 3.0889	62.9046	99.9079	
   410	 0.6498	 1.0753	 1.7251	 1.3422	 1.4629	 2.8051	 1.3932	 1.6650	 3.0582	62.9935	99.9070	
   411	 0.6477	 1.0434	 1.6911	 1.3533	 1.4168	 2.7700	 1.3910	 1.6288	 3.0198	63.0374	99.9070	
   412	 0.6383	 1.0222	 1.6605	 1.3379	 1.3940	 2.7319	 1.3589	 1.5970	 2.9559	63.0332	99.9084	
   413	 0.6131	 1.0067	 1.6198	 1.2951	 1.3809	 2.6761	 1.3157	 1.5814	 2.8971	62.9849	99.9077	
   414	 0.5806	 1.0020	 1.5826	 1.3007	 1.3579	 2.6585	 1.3323	 1.5570	 2.8894	63.1685	99.9081	
   415	 0.6845	 0.9893	 1.6738	 1.4190	 1.3513	 2.7703	 1.5127	 1.5426	 3.0553	63.4490	99.9056	
   416	 0.7801	 0.9714	 1.7515	 1.5357	 1.3171	 2.8528	 1.6309	 1.5009	 3.1318	63.6761	99.9062	
   417	 0.8022	 0.9389	 1.7411	 1.5476	 1.2847	 2.8323	 1.6287	 1.4647	 3.0934	63.6737	99.9069	
   418	 0.8001	 0.9069	 1.7070	 1.5587	 1.2385	 2.7972	 1.6321	 1.4203	 3.0524	63.7627	99.9071	
   419	 0.8064	 0.8801	 1.6866	 1.5570	 1.2109	 2.7679	 1.6244	 1.3922	 3.0166	63.7612	99.9070	
   420	 0.7970	 0.8590	 1.6560	 1.5489	 1.1927	 2.7415	 1.6222	 1.3560	 2.9782	63.8504	99.9083	
   421	 0.7802	 0.8487	 1.6289	 1.5335	 1.1699	 2.7034	 1.5790	 1.3405	 2.9194	63.8023	99.9089	
   422	 0.7624	 0.8223	 1.5847	 1.5035	 1.1383	 2.6418	 1.5524	 1.3006	 2.8529	63.8451	99.9082	
   423	 0.7215	 0.8125	 1.5339	 1.4608	 1.1252	 2.5860	 1.5029	 1.2811	 2.7839	63.8428	99.9089	
   424	 0.6963	 0.7970	 1.4933	 1.4317	 1.1073	 2.5390	 1.4840	 1.2692	 2.7533	63.8428	99.9072	
   425	 0.7603	 0.7904	 1.5507	 1.5292	 1.1010	 2.6302	 1.6344	 1.2592	 2.8937	64.1210	99.9058	
   426	 0.8643	 0.7776	 1.6419	 1.6467	 1.0806	 2.7273	 1.7597	 1.2335	 2.9932	64.3033	99.9059	
   427	 0.8874	 0.7612	 1.6485	 1.6659	 1.0527	 2.7186	 1.7638	 1.2012	 2.9650	64.3465	99.9063	
   428	 0.8780	 0.7400	 1.6180	 1.6441	 1.0393	 2.6834	 1.7498	 1.1692	 2.9190	64.3904	99.9071	
   429	 0.8685	 0.7189	 1.5874	 1.6487	 1.0024	 2.6512	 1.7302	 1.1453	 2.8755	64.3893	99.9075	
   430	 0.8517	 0.7085	 1.5603	 1.6269	 0.9890	 2.6159	 1.7051	 1.1295	 2.8346	64.3882	99.9074	
   431	 0.8266	 0.6930	 1.5196	 1.5979	 0.9711	 2.5690	 1.6793	 1.1016	 2.7809	64.4322	99.9076	
   432	 0.8014	 0.6775	 1.4789	 1.5551	 0.9580	 2.5131	 1.6416	 1.0780	 2.7196	64.4305	99.9072	
   433	 0.7762	 0.6620	 1.4382	 1.5261	 0.9401	 2.4662	 1.5984	 1.0624	 2.6608	64.3837	99.9076	
   434	 0.7279	 0.6630	 1.3909	 1.4897	 0.9177	 2.4075	 1.5433	 1.0511	 2.5944	64.3820	99.9071	
   435	 0.7027	 0.6475	 1.3502	 1.4479	 0.9184	 2.3663	 1.5001	 1.0355	 2.5356	64.3350	99.9087	
   436	 0.7111	 0.6526	 1.3638	 1.4761	 0.9225	 2.3986	 1.5733	 1.0466	 2.6199	64.4752	99.9060	
   437	 0.8077	 0.6507	 1.4584	 1.5944	 0.9159	 2.5104	 1.7118	 1.0408	 2.7526	64.6591	99.9055	
   438	 0.8476	 0.6446	 1.4922	 1.6218	 0.9063	 2.5281	 1.7347	 1.0204	 2.7551	64.7033	99.9057	
   439	 0.8308	 0.6342	 1.4651	 1.5936	 0.9022	 2.4957	 1.7152	 0.9965	 2.7117	64.7475	99.9064	
   440	 0.8140	 0.6239	 1.4379	 1.5854	 0.8839	 2.4693	 1.6845	 0.9888	 2.6734	64.7015	99.9071	
   441	 0.8056	 0.6187	 1.4244	 1.5846	 0.8701	 2.4547	 1.6720	 0.9810	 2.6529	64.7010	99.9073	
   442	 0.7731	 0.6141	 1.3872	 1.5564	 0.8660	 2.4224	 1.6468	 0.9652	 2.6120	64.7458	99.9084	
   443	 0.7563	 0.6037	 1.3600	 1.5209	 0.8574	 2.3783	 1.6099	 0.9536	 2.5635	64.6992	99.9077	
   444	 0.7080	 0.6047	 1.3127	 1.4854	 0.8488	 2.3342	 1.5611	 0.9461	 2.5073	64.6983	99.9087	
   445	 0.6755	 0.6000	 1.2755	 1.4572	 0.8447	 2.3019	 1.5423	 0.9343	 2.4766	64.7436	99.9090	
   446	 0.7164	 0.6099	 1.3263	 1.5200	 0.8436	 2.3637	 1.6336	 0.9452	 2.5788	64.8822	99.9065	
   447	 0.7888	 0.6084	 1.3973	 1.5901	 0.8470	 2.4371	 1.7234	 0.9320	 2.6553	65.0187	99.9066	
   448	 0.7962	 0.5976	 1.3938	 1.5893	 0.8332	 2.4225	 1.7045	 0.9201	 2.6247	64.9725	99.9071	
   449	 0.7721	 0.5981	 1.3701	 1.5675	 0.8198	 2.3873	 1.6794	 0.9044	 2.5838	65.0170	99.9067	
   450	 0.7395	 0.5934	 1.3329	 1.5393	 0.8157	 2.3549	 1.6487	 0.8967	 2.5454	65.0167	99.9074	
   451	 0.7227	 0.5831	 1.3058	 1.5247	 0.8067	 2.3315	 1.6181	 0.8890	 2.5071	64.9708	99.9087	
   452	 0.6986	 0.5835	 1.2821	 1.4965	 0.8026	 2.2991	 1.5874	 0.8814	 2.4688	64.9701	99.9086	
   453	 0.6660	 0.5789	 1.2449	 1.4474	 0.7988	 2.2462	 1.5386	 0.8740	 2.4126	64.9237	99.9080	
   454	 0.6335	 0.5742	 1.2077	 1.4119	 0.7902	 2.2021	 1.5017	 0.8624	 2.3641	64.9229	99.9079	
   455	 0.6419	 0.5793	 1.2212	 1.4546	 0.8033	 2.2580	 1.5867	 0.8693	 2.4560	65.1071	99.9080	
   456	 0.7311	 0.5882	 1.3194	 1.5593	 0.8016	 2.3609	 1.7016	 0.8719	 2.5735	65.2441	99.9071	
   457	 0.7553	 0.5877	 1.3430	 1.5803	 0.8012	 2.3815	 1.7190	 0.8596	 2.5785	65.2890	99.9081	
   458	 0.7469	 0.5826	 1.3295	 1.5521	 0.7971	 2.3491	 1.6883	 0.8519	 2.5402	65.2430	99.9075	
   459	 0.7301	 0.5722	 1.3023	 1.5375	 0.7881	 2.3257	 1.6576	 0.8442	 2.5019	65.1973	99.9087	
   460	 0.7059	 0.5727	 1.2787	 1.5166	 0.7885	 2.3051	 1.6451	 0.8364	 2.4814	65.2425	99.9090	
   461	 0.6818	 0.5732	 1.2550	 1.4948	 0.7750	 2.2698	 1.6144	 0.8287	 2.4431	65.2420	99.9084	
   462	 0.6577	 0.5737	 1.2313	 1.4666	 0.7709	 2.2375	 1.5719	 0.8252	 2.3972	65.1960	99.9088	
   463	 0.6251	 0.5690	 1.1941	 1.4247	 0.7716	 2.1963	 1.5232	 0.8178	 2.3410	65.1498	99.9097	
   464	 0.5926	 0.5643	 1.1569	 1.3892	 0.7630	 2.1523	 1.5043	 0.8060	 2.3103	65.1951	99.9084	
   465	 0.6335	 0.5742	 1.2077	 1.4392	 0.7806	 2.2198	 1.6019	 0.8208	 2.4227	65.3330	99.9063	
   466	 0.7143	 0.5779	 1.2922	 1.5439	 0.7788	 2.3228	 1.7105	 0.8194	 2.5299	65.4696	99.9070	
   467	 0.7385	 0.5774	 1.3159	 1.5576	 0.7740	 2.3316	 1.7161	 0.8113	 2.5273	65.4693	99.9069	
   468	 0.7143	 0.5779	 1.2922	 1.5367	 0.7743	 2.3110	 1.6798	 0.8117	 2.4916	65.4237	99.9082	
   469	 0.6902	 0.5784	 1.2686	 1.5221	 0.7654	 2.2875	 1.6728	 0.7957	 2.4686	65.5142	99.9082	
   470	 0.6744	 0.5840	 1.2585	 1.5149	 0.7609	 2.2758	 1.6547	 0.7960	 2.4507	65.5140	99.9084	
   471	 0.6660	 0.5789	 1.2449	 1.4939	 0.7613	 2.2552	 1.6241	 0.7883	 2.4124	65.4683	99.9094	
   472	 0.6335	 0.5742	 1.2077	 1.4521	 0.7620	 2.2140	 1.5871	 0.7767	 2.3638	65.4679	99.9098	
   473	 0.6010	 0.5695	 1.1705	 1.4166	 0.7534	 2.1700	 1.5446	 0.7732	 2.3179	65.4222	99.9095	
   474	 0.5768	 0.5700	 1.1468	 1.3747	 0.7541	 2.1288	 1.4959	 0.7658	 2.2617	65.3760	99.9096	
   475	 0.5695	 0.5808	 1.1502	 1.3892	 0.7630	 2.1523	 1.5509	 0.7772	 2.3281	65.5134	99.9077	
   476	 0.6503	 0.5845	 1.2348	 1.4875	 0.7706	 2.2581	 1.6603	 0.7878	 2.4481	65.6048	99.9079	
   477	 0.6986	 0.5835	 1.2821	 1.5294	 0.7699	 2.2993	 1.6902	 0.7834	 2.4736	65.6046	99.9087	
   478	 0.6828	 0.5892	 1.2720	 1.5085	 0.7702	 2.2787	 1.6714	 0.7716	 2.4430	65.6497	99.9089	
   479	 0.6587	 0.5897	 1.2484	 1.4939	 0.7613	 2.2552	 1.6470	 0.7679	 2.4149	65.6496	99.9091	
   480	 0.6503	 0.5845	 1.2348	 1.4666	 0.7709	 2.2375	 1.6226	 0.7642	 2.3868	65.6040	99.9099	
   481	 0.6261	 0.5850	 1.2111	 1.4521	 0.7620	 2.2140	 1.5982	 0.7605	 2.3587	65.6039	99.9101	
   482	 0.6020	 0.5855	 1.1875	 1.4238	 0.7578	 2.1817	 1.5557	 0.7570	 2.3127	65.5582	99.9105	
   483	 0.5779	 0.5860	 1.1638	 1.3820	 0.7586	 2.1405	 1.5132	 0.7535	 2.2667	65.5123	99.9098	
   484	 0.5453	 0.5813	 1.1266	 1.3465	 0.7500	 2.0965	 1.4708	 0.7500	 2.2208	65.4665	99.9095	
   485	 0.5296	 0.5869	 1.1165	 1.3538	 0.7544	 2.1082	 1.4951	 0.7537	 2.2489	65.5580	99.9096	
   486	 0.5946	 0.5963	 1.1909	 1.4247	 0.7716	 2.1963	 1.6045	 0.7644	 2.3689	65.6948	99.9083	
   487	 0.6356	 0.6061	 1.2417	 1.4803	 0.7661	 2.2464	 1.6463	 0.7558	 2.4021	65.7854	99.9094	
   488	 0.6272	 0.6010	 1.2282	 1.4593	 0.7664	 2.2258	 1.6100	 0.7563	 2.3663	65.6946	99.9100	
   489	 0.6188	 0.5958	 1.2146	 1.4311	 0.7623	 2.1934	 1.5738	 0.7567	 2.3306	65.6035	99.9091	
   490	 0.6104	 0.5906	 1.2010	 1.4174	 0.7672	 2.1846	 1.5731	 0.7447	 2.3178	65.6489	99.9099	
   491	 0.5789	 0.6019	 1.1808	 1.4102	 0.7627	 2.1729	 1.5432	 0.7491	 2.2923	65.6488	99.9112	
   492	 0.5547	 0.6024	 1.1572	 1.3820	 0.7586	 2.1405	 1.5070	 0.7496	 2.2565	65.6032	99.9109	
   493	 0.5380	 0.5921	 1.1300	 1.3474	 0.7637	 2.1111	 1.4645	 0.7461	 2.2106	65.5118	99.9121	
   494	 0.5222	 0.5977	 1.1199	 1.3337	 0.7686	 2.1023	 1.4826	 0.7458	 2.2284	65.6032	99.9103	
   495	 0.5873	 0.6071	 1.1944	 1.4247	 0.7716	 2.1963	 1.5919	 0.7565	 2.3485	65.7400	99.9096	
   496	 0.6440	 0.6113	 1.2553	 1.4739	 0.7754	 2.2493	 1.6400	 0.7519	 2.3918	65.7853	99.9098	
   497	 0.6513	 0.6005	 1.2518	 1.4666	 0.7709	 2.2375	 1.6156	 0.7482	 2.3638	65.6944	99.9105	
   498	 0.6198	 0.6118	 1.2316	 1.4392	 0.7806	 2.2198	 1.5975	 0.7484	 2.3459	65.7398	99.9108	
   499	 0.6272	 0.6010	 1.2282	 1.4521	 0.7620	 2.2140	 1.5849	 0.7405	 2.3254	65.6942	99.9115	
   500	 0.6188	 0.5958	 1.2146	 1.4311	 0.7623	 2.1934	 1.5724	 0.7326	 2.3050	65.6941	99.9112	
   501	 0.5946	 0.5963	 1.1909	 1.4029	 0.7582	 2.1611	 1.5362	 0.7331	 2.2692	65.6485	99.9108	
   502	 0.5705	 0.5968	 1.1673	 1.3747	 0.7541	 2.1288	 1.4937	 0.7296	 2.2233	65.6027	99.9112	
   503	 0.5464	 0.5972	 1.1436	 1.3401	 0.7593	 2.0994	 1.4630	 0.7219	 2.1850	65.6024	99.9117	
   504	 0.5296	 0.5869	 1.1165	 1.3192	 0.7596	 2.0788	 1.4449	 0.7222	 2.1671	65.5569	99.9120	
   505	 0.5631	 0.6076	 1.1707	 1.3965	 0.7675	 2.1640	 1.5487	 0.7410	 2.2897	65.7397	99.9110	
   506	 0.6513	 0.6005	 1.2518	 1.4803	 0.7661	 2.2464	 1.6330	 0.7359	 2.3688	65.7852	99.9113	
   507	 0.6587	 0.5897	 1.2484	 1.4657	 0.7571	 2.2229	 1.6016	 0.7161	 2.3177	65.7395	99.9122	
   508	 0.6094	 0.5747	 1.1840	 1.4020	 0.7444	 2.1465	 1.5221	 0.7010	 2.2232	65.6481	99.9128	
   509	 0.5674	 0.5488	 1.1162	 1.3602	 0.7451	 2.1053	 1.4567	 0.7180	 2.1747	65.4203	99.9149	
   510	 0.5580	 0.5277	 1.0856	 1.3529	 0.7406	 2.0936	 1.4324	 0.7143	 2.1466	65.3290	99.9172	
   511	 0.5170	 0.5178	 1.0348	 1.2965	 0.7324	 2.0289	 1.3829	 0.6948	 2.0776	65.3284	99.9168	
   512	 0.5066	 0.4807	 0.9872	 1.2884	 0.7141	 2.0025	 1.3766	 0.6908	 2.0674	65.2377	99.9169	
   513	 0.5297	 0.4642	 0.9939	 1.3020	 0.7093	 2.0113	 1.3884	 0.6867	 2.0751	65.1921	99.9172	
   514	 0.5381	 0.4694	 1.0075	 1.3020	 0.7093	 2.0113	 1.3703	 0.6869	 2.0572	65.1457	99.9176	
   515	 0.5549	 0.4797	 1.0346	 1.3166	 0.7183	 2.0348	 1.3954	 0.7027	 2.0981	65.1463	99.9161	
   516	 0.6451	 0.5046	 1.1497	 1.4367	 0.7392	 2.1759	 1.5410	 0.7129	 2.2539	65.3758	99.9167	
   517	 0.7260	 0.5083	 1.2343	 1.4858	 0.7430	 2.2288	 1.5827	 0.7043	 2.2870	65.3752	99.9163	
   518	 0.7102	 0.5140	 1.2242	 1.4567	 0.7251	 2.1818	 1.5569	 0.6764	 2.2333	65.4655	99.9145	
   519	 0.6682	 0.4881	 1.1564	 1.3768	 0.6759	 2.0527	 1.4808	 0.6170	 2.0979	65.5098	99.9112	
   520	 0.5948	 0.4736	 1.0683	 1.3041	 0.6311	 1.9352	 1.4055	 0.5697	 1.9752	65.6006	99.9096	
   521	 0.5706	 0.4741	 1.0447	 1.2841	 0.6452	 1.9293	 1.4180	 0.5776	 1.9956	65.6468	99.9090	
   522	 0.5780	 0.4632	 1.0412	 1.2759	 0.6270	 1.9029	 1.3811	 0.5660	 1.9471	65.5546	99.9090	
   523	 0.5297	 0.4642	 0.9939	 1.2251	 0.5956	 1.8207	 1.3301	 0.5223	 1.8525	65.6916	99.9077	
   524	 0.4720	 0.4440	 0.9160	 1.1678	 0.5736	 1.7414	 1.2688	 0.5070	 1.7758	65.6455	99.9073	
   525	 0.4478	 0.4445	 0.8923	 1.1332	 0.5788	 1.7120	 1.2444	 0.5033	 1.7477	65.6454	99.9070	
   526	 0.4636	 0.4389	 0.9024	 1.1686	 0.5874	 1.7560	 1.2939	 0.5228	 1.8167	65.6460	99.9073	
   527	 0.5370	 0.4534	 0.9904	 1.2460	 0.5953	 1.8413	 1.3782	 0.5177	 1.8959	65.7836	99.9076	
   528	 0.5853	 0.4524	 1.0378	 1.2806	 0.5901	 1.8707	 1.4144	 0.5172	 1.9316	65.7836	99.9060	
   529	 0.5927	 0.4416	 1.0343	 1.2733	 0.5856	 1.8590	 1.3907	 0.5256	 1.9163	65.6460	99.9056	
   530	 0.5927	 0.4416	 1.0343	 1.2806	 0.5901	 1.8707	 1.3852	 0.5337	 1.9189	65.6002	99.9070	
   531	 0.6095	 0.4519	 1.0614	 1.2879	 0.5946	 1.8824	 1.3970	 0.5295	 1.9265	65.6459	99.9064	
   532	 0.6011	 0.4468	 1.0479	 1.2742	 0.5994	 1.8736	 1.3845	 0.5216	 1.9061	65.6458	99.9077	
   533	 0.5927	 0.4416	 1.0343	 1.2597	 0.5904	 1.8501	 1.3719	 0.5137	 1.8857	65.6457	99.9069	
   534	 0.5602	 0.4369	 0.9971	 1.2315	 0.5863	 1.8178	 1.3350	 0.5021	 1.8371	65.6455	99.9084	
   535	 0.5276	 0.4322	 0.9599	 1.1887	 0.5732	 1.7620	 1.2806	 0.5028	 1.7835	65.5532	99.9069	
   536	 0.4951	 0.4276	 0.9226	 1.1541	 0.5784	 1.7325	 1.2444	 0.5033	 1.7477	65.5071	99.9080	
   537	 0.5035	 0.4327	 0.9362	 1.1823	 0.5826	 1.7649	 1.2877	 0.5189	 1.8065	65.5538	99.9071	
   538	 0.5843	 0.4364	 1.0207	 1.2524	 0.5860	 1.8384	 1.3664	 0.5219	 1.8882	65.5999	99.9058	
   539	 0.6001	 0.4308	 1.0308	 1.2588	 0.5767	 1.8355	 1.3775	 0.5056	 1.8831	65.6457	99.9052	
   540	 0.5675	 0.4261	 0.9936	 1.2306	 0.5725	 1.8031	 1.3350	 0.5021	 1.8371	65.5995	99.9065	
   541	 0.5507	 0.4158	 0.9665	 1.2088	 0.5591	 1.7679	 1.3043	 0.4945	 1.7988	65.5533	99.9061	
   542	 0.5266	 0.4163	 0.9428	 1.2015	 0.5546	 1.7562	 1.2980	 0.4905	 1.7886	65.5994	99.9067	
   543	 0.5024	 0.4167	 0.9192	 1.1733	 0.5505	 1.7238	 1.2792	 0.4787	 1.7579	65.6452	99.9061	
   544	 0.5014	 0.4008	 0.9022	 1.1524	 0.5509	 1.7032	 1.2430	 0.4792	 1.7222	65.5069	99.9071	
   545	 0.4689	 0.3961	 0.8649	 1.1242	 0.5467	 1.6709	 1.2068	 0.4796	 1.6864	65.4607	99.9076	
   546	 0.4689	 0.3961	 0.8649	 1.1314	 0.5512	 1.6827	 1.2374	 0.4873	 1.7247	65.5074	99.9064	
   547	 0.5413	 0.3946	 0.9359	 1.2015	 0.5546	 1.7562	 1.3280	 0.4861	 1.8141	65.5998	99.9055	
   548	 0.5581	 0.4050	 0.9630	 1.2289	 0.5450	 1.7738	 1.3335	 0.4780	 1.8115	65.6455	99.9062	
   549	 0.4993	 0.3688	 0.8681	 1.1207	 0.4916	 1.6123	 1.2038	 0.4314	 1.6352	65.5059	99.9029	
   550	 0.4164	 0.3331	 0.7495	 1.0361	 0.4792	 1.5154	 1.1606	 0.4158	 1.5764	65.5064	99.9016	
   551	 0.4290	 0.4022	 0.8312	 1.1259	 0.5743	 1.7002	 1.2592	 0.5474	 1.8066	65.4174	99.9047	
   552	 0.6042	 0.4947	 1.0989	 1.2986	 0.6542	 1.9528	 1.4487	 0.5852	 2.0339	65.6925	99.9059	
   553	 0.5612	 0.4529	 1.0141	 1.2623	 0.6318	 1.8940	 1.4125	 0.5857	 1.9982	65.5556	99.9058	
   554	 0.6032	 0.4787	 1.0819	 1.2913	 0.6497	 1.9410	 1.4251	 0.5936	 2.0186	65.5552	99.9065	
   555	 0.5884	 0.5004	 1.0888	 1.2794	 0.6821	 1.9615	 1.4036	 0.6382	 2.0417	65.4182	99.9071	
   556	 0.6210	 0.5051	 1.1260	 1.3084	 0.7000	 2.0084	 1.4294	 0.6660	 2.0954	65.3272	99.9072	
   557	 0.7112	 0.5299	 1.2412	 1.4149	 0.7258	 2.1407	 1.5458	 0.6927	 2.2385	65.4198	99.9075	
   558	 0.7774	 0.5553	 1.3326	 1.4849	 0.7292	 2.2142	 1.6175	 0.6797	 2.2972	65.6021	99.9075	
   559	 0.7679	 0.5341	 1.3021	 1.4486	 0.7068	 2.1554	 1.5617	 0.6562	 2.2180	65.5100	99.9072	
   560	 0.7196	 0.5351	 1.2547	 1.4204	 0.7027	 2.1231	 1.5492	 0.6484	 2.1975	65.6016	99.9073	
   561	 0.7280	 0.5403	 1.2683	 1.4213	 0.7165	 2.1378	 1.5562	 0.6644	 2.2205	65.5561	99.9068	
   562	 0.7448	 0.5506	 1.2954	 1.4431	 0.7299	 2.1730	 1.5695	 0.6843	 2.2538	65.5106	99.9074	
   563	 0.7616	 0.5609	 1.3225	 1.4576	 0.7389	 2.1965	 1.5757	 0.6883	 2.2640	65.5104	99.9082	
   564	 0.7542	 0.5718	 1.3260	 1.4358	 0.7255	 2.1612	 1.5499	 0.6604	 2.2103	65.6011	99.9071	
   565	 0.7207	 0.5511	 1.2718	 1.3931	 0.7124	 2.1054	 1.5011	 0.6530	 2.1541	65.5093	99.9070	
   566	 0.7133	 0.5619	 1.2752	 1.4020	 0.7444	 2.1465	 1.5270	 0.6809	 2.2078	65.5101	99.9086	
   567	 0.8036	 0.5868	 1.3903	 1.5085	 0.7702	 2.2787	 1.6378	 0.7157	 2.3534	65.5566	99.9086	
   568	 0.8770	 0.6013	 1.4784	 1.5585	 0.7878	 2.3462	 1.6629	 0.7314	 2.3943	65.4650	99.9093	
   569	 0.8613	 0.6070	 1.4682	 1.5375	 0.7881	 2.3257	 1.6378	 0.7157	 2.3534	65.5101	99.9102	
   570	 0.8287	 0.6023	 1.4310	 1.5021	 0.7795	 2.2816	 1.5835	 0.7164	 2.2998	65.4182	99.9104	
   571	 0.7962	 0.5976	 1.3938	 1.4739	 0.7754	 2.2493	 1.5473	 0.7168	 2.2641	65.3723	99.9109	
   572	 0.7805	 0.6032	 1.3837	 1.4602	 0.7802	 2.2404	 1.5417	 0.7250	 2.2667	65.3725	99.9101	
   573	 0.7888	 0.6084	 1.3973	 1.4538	 0.7895	 2.2433	 1.5243	 0.7373	 2.2616	65.2806	99.9101	
   574	 0.7731	 0.6141	 1.3872	 1.4337	 0.8037	 2.2374	 1.5007	 0.7456	 2.2463	65.2346	99.9111	
   575	 0.7500	 0.6305	 1.3805	 1.4064	 0.8133	 2.2197	 1.4881	 0.7377	 2.2258	65.3259	99.9107	
   576	 0.7815	 0.6192	 1.4007	 1.4337	 0.8037	 2.2374	 1.5306	 0.7412	 2.2718	65.3266	99.9084	
   577	 0.8151	 0.6399	 1.4550	 1.4910	 0.8257	 2.3167	 1.5927	 0.7686	 2.3613	65.3733	99.9092	
   578	 0.8560	 0.6497	 1.5057	 1.5346	 0.8526	 2.3871	 1.6192	 0.8085	 2.4277	65.2369	99.9107	
   579	 0.8738	 0.6761	 1.5499	 1.5363	 0.8801	 2.4164	 1.6270	 0.8366	 2.4636	65.1913	99.9094	
   580	 0.8990	 0.6916	 1.5906	 1.5581	 0.8936	 2.4517	 1.6395	 0.8445	 2.4840	65.1910	99.9101	
   581	 0.8832	 0.6972	 1.5805	 1.5372	 0.8939	 2.4311	 1.6089	 0.8368	 2.4457	65.1902	99.9108	
   582	 0.8675	 0.7029	 1.5704	 1.5162	 0.8943	 2.4105	 1.5789	 0.8412	 2.4202	65.1440	99.9104	
   583	 0.8350	 0.6982	 1.5331	 1.4743	 0.8950	 2.3693	 1.5427	 0.8417	 2.3844	65.0979	99.9099	
   584	 0.7961	 0.7203	 1.5164	 1.4543	 0.9091	 2.3634	 1.5309	 0.8459	 2.3768	65.1897	99.9107	
   585	 0.7961	 0.7203	 1.5164	 1.4551	 0.9229	 2.3780	 1.5261	 0.8661	 2.3922	65.0986	99.9116	
   586	 0.8528	 0.7245	 1.5773	 1.4979	 0.9360	 2.4338	 1.5937	 0.8853	 2.4790	65.0998	99.9090	
   587	 0.8937	 0.7344	 1.6281	 1.5479	 0.9535	 2.5014	 1.6495	 0.9088	 2.5582	65.1010	99.9092	
   588	 0.9011	 0.7235	 1.6246	 1.5761	 0.9576	 2.5337	 1.6077	 0.9174	 2.5251	64.9173	99.9160	
   589	 0.8276	 0.7090	 1.5366	 1.4923	 0.9591	 2.4514	 1.4873	 0.9229	 2.4102	64.6865	99.9186	
   590	 0.7635	 0.7156	 1.4792	 1.3885	 0.9746	 2.3631	 1.3919	 0.9443	 2.3362	64.5015	99.9159	
   591	 0.7268	 0.7697	 1.4964	 1.3629	 1.0118	 2.3747	 1.3642	 0.9849	 2.3491	64.5015	99.9154	
   592	 0.7204	 0.7965	 1.5169	 1.3509	 1.0442	 2.3952	 1.3656	 1.0091	 2.3747	64.5020	99.9152	
   593	 0.7225	 0.8285	 1.5510	 1.3736	 1.0715	 2.4450	 1.3748	 1.0613	 2.4361	64.4122	99.9151	
   594	 0.7340	 0.8816	 1.6156	 1.3706	 1.1359	 2.5065	 1.3833	 1.1014	 2.4847	64.4122	99.9161	
   595	 0.7350	 0.8976	 1.6326	 1.3997	 1.1538	 2.5535	 1.4272	 1.1290	 2.5563	64.4612	99.9161	
   596	 0.8095	 0.9281	 1.7376	 1.4724	 1.1986	 2.6709	 1.5081	 1.1683	 2.6764	64.4633	99.9168	
   597	 0.8441	 0.9647	 1.8089	 1.4959	 1.2396	 2.7355	 1.5340	 1.1961	 2.7301	64.4633	99.9173	
   598	 0.8284	 0.9704	 1.7988	 1.4822	 1.2444	 2.7266	 1.4859	 1.2008	 2.6867	64.3700	99.9197	
   599	 0.7801	 0.9714	 1.7515	 1.4476	 1.2496	 2.6972	 1.4379	 1.2054	 2.6433	64.3238	99.9217	
   600	 0.7727	 0.9822	 1.7549	 1.4339	 1.2544	 2.6884	 1.4143	 1.2138	 2.6280	64.2769	99.9214	
   601	 0.7580	 1.0038	 1.7618	 1.4211	 1.2730	 2.6942	 1.3969	 1.2261	 2.6229	64.2763	99.9221	
   602	 0.7423	 1.0095	 1.7517	 1.3938	 1.2827	 2.6765	 1.3677	 1.2425	 2.6102	64.1843	99.9213	
   603	 0.7097	 1.0048	 1.7145	 1.3746	 1.3106	 2.6852	 1.3440	 1.2509	 2.5949	64.1393	99.9257	
   604	 0.6709	 1.0269	 1.6978	 1.3545	 1.3247	 2.6792	 1.3085	 1.2634	 2.5720	64.1386	99.9274	
   605	 0.6561	 1.0485	 1.7047	 1.3135	 1.3392	 2.6527	 1.2612	 1.2802	 2.5414	64.0445	99.9258	
   606	 0.6404	 1.0542	 1.6946	 1.2934	 1.3534	 2.6468	 1.2501	 1.2964	 2.5465	63.9994	99.9254	
   607	 0.6740	 1.0748	 1.7488	 1.3507	 1.3754	 2.7261	 1.3358	 1.3154	 2.6513	64.1413	99.9251	
   608	 0.7065	 1.0795	 1.7860	 1.3725	 1.3888	 2.7613	 1.3491	 1.3354	 2.6845	64.0500	99.9251	
   609	 0.6834	 1.0960	 1.7794	 1.3524	 1.4030	 2.7554	 1.3137	 1.3479	 2.6616	64.0030	99.9263	
   610	 0.6519	 1.1073	 1.7592	 1.3114	 1.4175	 2.7288	 1.2663	 1.3646	 2.6310	63.9102	99.9262	
   611	 0.6361	 1.1129	 1.7491	 1.2913	 1.4316	 2.7229	 1.2427	 1.3730	 2.6157	63.8638	99.9271	
   612	 0.5973	 1.1351	 1.7323	 1.2576	 1.4506	 2.7081	 1.2135	 1.3895	 2.6030	63.8638	99.9271	
   613	 0.5815	 1.1407	 1.7222	 1.2302	 1.4602	 2.6904	 1.1662	 1.4062	 2.5724	63.7242	99.9275	
   614	 0.5500	 1.1520	 1.7020	 1.1755	 1.4796	 2.6551	 1.1070	 1.4271	 2.5341	63.5844	99.9269	
   615	 0.5111	 1.1741	 1.6853	 1.1409	 1.4847	 2.6257	 1.0590	 1.4317	 2.4907	63.5818	99.9271	
   616	 0.4639	 1.1911	 1.6550	 1.0935	 1.5085	 2.6020	 1.0187	 1.4645	 2.4832	63.4910	99.9264	
   617	 0.4492	 1.2127	 1.6619	 1.0816	 1.5409	 2.6225	 0.9902	 1.4930	 2.4832	63.3984	99.9286	
   618	 0.4166	 1.2080	 1.6247	 1.0397	 1.5416	 2.5813	 0.9478	 1.4895	 2.4373	63.3507	99.9287	
   619	 0.3694	 1.2250	 1.5943	 0.9923	 1.5654	 2.5577	 0.9012	 1.5183	 2.4195	63.2590	99.9287	
   620	 0.4187	 1.2400	 1.6587	 1.0495	 1.5875	 2.6370	 0.9869	 1.5373	 2.5242	63.3564	99.9279	
   621	 0.4607	 1.2658	 1.7265	 1.0795	 1.6192	 2.6986	 1.0545	 1.5566	 2.6111	63.4517	99.9260	
   622	 0.4375	 1.2823	 1.7198	 1.0585	 1.6195	 2.6780	 0.9961	 1.5896	 2.5856	63.2659	99.9254	
   623	 0.4071	 1.3096	 1.7167	 1.0384	 1.6336	 2.6721	 0.9732	 1.6100	 2.5831	63.2659	99.9249	
   624	 0.3913	 1.3152	 1.7066	 1.0064	 1.6802	 2.6866	 0.9628	 1.6383	 2.6011	63.1764	99.9263	
   625	 0.4008	 1.3364	 1.7371	 1.0218	 1.7029	 2.7247	 0.9824	 1.6622	 2.6446	63.1785	99.9264	
   626	 0.3944	 1.3632	 1.7576	 1.0163	 1.7260	 2.7423	 0.9664	 1.6987	 2.6651	63.0871	99.9260	
   627	 0.3797	 1.3848	 1.7645	 0.9971	 1.7539	 2.7510	 0.9491	 1.7110	 2.6600	63.0861	99.9271	
   628	 0.3482	 1.3961	 1.7443	 0.9633	 1.7729	 2.7362	 0.9143	 1.7356	 2.6499	62.9947	99.9271	
   629	 0.3251	 1.4126	 1.7377	 0.9368	 1.7963	 2.7332	 0.8740	 1.7683	 2.6423	62.8565	99.9276	
   630	 0.3261	 1.4286	 1.7547	 0.9595	 1.8236	 2.7830	 0.9054	 1.7880	 2.6934	62.9067	99.9294	
   631	 0.3691	 1.4704	 1.8395	 1.0095	 1.8411	 2.8506	 0.9856	 1.8152	 2.8007	63.0489	99.9258	
   632	 0.4027	 1.4911	 1.8938	 1.0394	 1.8728	 2.9122	 1.0240	 1.8509	 2.8749	63.0066	99.9254	
   633	 0.3869	 1.4967	 1.8837	 1.0467	 1.8773	 2.9240	 1.0066	 1.8632	 2.8698	62.9611	99.9276	
   634	 0.3554	 1.5080	 1.8634	 1.0147	 1.9238	 2.9385	 0.9733	 1.9120	 2.8853	62.7814	99.9295	
   635	 0.3481	 1.5188	 1.8669	 1.0001	 1.9149	 2.9150	 0.9064	 1.9048	 2.8112	62.6809	99.9312	
   636	 0.2914	 1.5146	 1.8060	 0.9164	 1.9163	 2.8327	 0.8277	 1.9017	 2.7295	62.5848	99.9301	
   637	 0.2452	 1.5476	 1.7927	 0.8617	 1.9356	 2.7973	 0.7930	 1.9264	 2.7193	62.5848	99.9273	
   638	 0.2305	 1.5692	 1.7996	 0.8497	 1.9680	 2.8177	 0.7889	 1.9586	 2.7475	62.5416	99.9276	
   639	 0.2231	 1.5800	 1.8031	 0.8305	 1.9959	 2.8264	 0.7785	 1.9869	 2.7655	62.4517	99.9273	
   640	 0.2084	 1.6016	 1.8100	 0.8314	 2.0097	 2.8411	 0.7619	 2.0113	 2.7732	62.4061	99.9281	
   641	 0.2231	 1.5800	 1.8031	 0.8515	 1.9956	 2.8470	 0.7966	 1.9867	 2.7833	62.4998	99.9286	
   642	 0.1979	 1.5645	 1.7624	 0.8241	 2.0052	 2.8293	 0.7918	 2.0069	 2.7987	62.4139	99.9278	
   643	 0.0929	 1.5613	 1.6542	 0.7412	 2.0204	 2.7617	 0.7257	 2.0118	 2.7374	62.4164	99.9296	
   644	 0.0289	 1.5679	 1.5968	 0.6921	 2.0167	 2.7087	 0.6392	 1.9807	 2.6199	62.4530	99.9340	
   645	-0.1328	 1.5604	 1.4277	 0.4485	 1.9196	 2.3680	 0.2928	 1.8442	 2.1370	62.3612	99.9338	
   646	-0.2650	 1.5097	 1.2447	 0.2801	 1.9086	 2.1887	 0.1689	 1.8941	 2.0631	61.9516	99.9273	
   647	-0.2880	 1.4035	 1.1155	 0.2484	 1.8494	 2.0978	 0.0840	 1.8872	 1.9711	61.4874	99.9293	
   648	-0.3300	 1.3777	 1.0477	 0.1484	 1.8143	 1.9627	 0.0156	 1.8558	 1.8715	61.4329	99.9232	
   649	-0.3415	 1.3245	 0.9831	 0.0804	 1.7326	 1.8131	-0.1210	 1.7932	 1.6721	61.1734	99.9214	
   650	-0.4065	 1.3152	 0.9086	 0.0450	 1.7240	 1.7690	-0.1280	 1.7772	 1.6491	61.3198	99.9218	
   651	-0.2868	 1.2968	 1.0099	 0.1753	 1.6850	 1.8603	-0.0279	 1.7356	 1.7077	61.4573	99.9233	
   652	-0.3697	 1.2611	 0.8913	 0.0761	 1.6637	 1.7398	-0.1191	 1.7247	 1.6056	61.3145	99.9220	
   653	-0.4506	 1.2574	 0.8068	 0.0052	 1.6465	 1.6517	-0.2403	 1.7182	 1.4779	61.1626	99.9243	
   654	-0.5975	 1.2283	 0.6308	-0.1487	 1.6445	 1.4959	-0.3290	 1.6509	 1.3220	61.3938	99.9260	
   655	-0.5313	 1.1309	 0.5997	-0.1441	 1.3823	 1.2382	-0.2833	 1.3081	 1.0248	62.4382	99.9153	
   656	-0.7577	 0.7460	-0.0117	-0.3063	 0.9113	 0.6050	-0.2441	 0.8567	 0.6125	63.6236	99.8966	
   657	-1.0388	 0.5116	-0.5272	-0.5205	 0.7263	 0.2058	-0.4827	 0.7067	 0.2240	63.4352	99.9033	
   658	-0.9895	 0.5266	-0.4629	-0.2705	 0.8141	 0.5436	-0.0841	 0.8063	 0.7222	64.0318	99.9090	
   659	-0.5844	 0.6839	 0.0995	 0.1702	 1.0458	 1.2160	 0.3979	 1.0859	 1.4838	63.8722	99.9095	
   660	-0.1752	 0.9051	 0.7299	 0.6502	 1.2355	 1.8857	 0.8231	 1.2254	 2.0485	64.2885	99.9193	
   661	 0.0483	 0.9967	 1.0450	 0.8874	 1.3418	 2.2293	 1.0532	 1.3352	 2.3883	64.2945	99.9212	
   662	 0.2141	 1.0680	 1.2822	 1.0319	 1.4176	 2.4495	 1.1995	 1.3574	 2.5569	64.4752	99.9240	
   663	 0.2792	 1.0774	 1.3566	 1.0729	 1.4031	 2.4760	 1.2224	 1.3370	 2.5594	64.5178	99.9229	
   664	 0.3034	 1.0769	 1.3803	 1.1067	 1.3841	 2.4908	 1.2328	 1.3087	 2.5415	64.6068	99.9245	
   665	 0.2426	 1.0088	 1.2513	 0.9404	 1.2949	 2.2354	 0.9937	 1.2514	 2.2451	64.1393	99.9198	
   666	 0.1448	 1.1174	 1.2622	 0.8897	 1.4890	 2.3786	 1.0383	 1.4884	 2.5266	63.8390	99.9183	
   667	 0.2822	 1.2481	 1.5303	 0.9931	 1.5792	 2.5723	 1.0970	 1.5601	 2.6571	63.8336	99.9183	
   668	 0.4155	 1.3147	 1.7302	 1.0530	 1.6426	 2.6956	 1.1653	 1.5914	 2.7567	63.8297	99.9156	
   669	 0.4091	 1.3415	 1.7507	 1.0466	 1.6519	 2.6985	 1.1376	 1.6320	 2.7696	63.6926	99.9136	
   670	 0.5046	 1.4463	 1.9509	 1.1680	 1.8062	 2.9742	 1.3059	 1.8191	 3.1250	63.5276	99.9126	
   671	 0.7521	 1.6601	 2.4123	 1.4194	 2.0274	 3.4468	 1.5467	 2.0052	 3.5519	63.5795	99.9168	
   672	 0.9169	 1.7155	 2.6324	 1.5904	 2.0797	 3.6700	 1.6645	 2.0560	 3.7206	63.5345	99.9206	
   673	 0.9642	 1.6986	 2.6627	 1.6532	 2.0786	 3.7318	 1.7070	 2.0595	 3.7665	63.4913	99.9234	
   674	 1.0303	 1.7239	 2.7542	 1.7378	 2.0910	 3.8288	 1.7739	 2.0667	 3.8406	63.5821	99.9252	
   675	 1.0440	 1.6863	 2.7303	 1.7634	 2.0537	 3.8171	 1.8023	 2.0382	 3.8405	63.6287	99.9250	
   676	 1.0607	 1.6966	 2.7574	 1.7570	 2.0630	 3.8200	 1.7599	 2.0347	 3.7945	63.5328	99.9269	
   677	 0.9516	 1.6295	 2.5811	 1.6181	 1.9642	 3.5823	 1.6857	 1.9068	 3.5925	63.8443	99.9212	
   678	 0.9528	 1.5227	 2.4755	 1.6231	 1.8215	 3.4447	 1.7431	 1.7571	 3.5002	64.2511	99.9162	
   679	 0.9801	 1.4475	 2.4277	 1.6500	 1.6923	 3.3423	 1.7594	 1.6280	 3.3875	64.5188	99.9134	
   680	 1.0515	 1.4301	 2.4816	 1.7354	 1.7185	 3.4539	 1.8828	 1.6707	 3.5535	64.4799	99.9131	
   681	 1.1764	 1.4916	 2.6680	 1.9009	 1.7939	 3.6947	 2.0320	 1.7413	 3.7733	64.5290	99.9178	
   682	 1.2552	 1.4634	 2.7185	 1.9756	 1.7604	 3.7360	 2.1078	 1.6960	 3.8038	64.6637	99.9180	
   683	 1.2940	 1.4412	 2.7353	 2.0230	 1.7366	 3.7596	 2.1426	 1.6714	 3.8140	64.7086	99.9193	
   684	 1.2920	 1.4093	 2.7012	 2.0196	 1.6815	 3.7011	 2.1326	 1.6071	 3.7398	64.8418	99.9189	
   685	 1.2878	 1.3453	 2.6332	 2.0097	 1.6356	 3.6454	 2.1360	 1.5628	 3.6988	64.8422	99.9186	
   686	 1.3603	 1.3439	 2.7042	 2.1208	 1.6246	 3.7454	 2.2745	 1.5570	 3.8315	65.0697	99.9180	
   687	 1.4820	 1.3575	 2.8395	 2.2401	 1.6317	 3.8718	 2.3957	 1.5635	 3.9592	65.1602	99.9173	
   688	 1.5535	 1.3400	 2.8935	 2.3020	 1.6169	 3.9189	 2.4549	 1.5426	 3.9975	65.2050	99.9175	
   689	 1.5829	 1.2968	 2.8796	 2.3413	 1.5748	 3.9162	 2.4896	 1.5180	 4.0076	65.2055	99.9172	
   690	 1.6154	 1.3014	 2.9169	 2.3841	 1.5879	 3.9720	 2.5502	 1.5212	 4.0714	65.2959	99.9178	
   691	 1.6700	 1.2737	 2.9437	 2.4387	 1.5686	 4.0073	 2.6093	 1.5003	 4.1097	65.3410	99.9181	
   692	 1.7026	 1.2784	 2.9809	 2.4742	 1.5772	 4.0514	 2.6226	 1.5203	 4.1429	65.2517	99.9191	
   693	 1.6533	 1.2633	 2.9166	 2.4341	 1.6055	 4.0395	 2.5942	 1.5488	 4.1430	65.1189	99.9215	
   694	 1.6712	 1.1670	 2.8382	 2.4699	 1.5083	 3.9782	 2.6434	 1.4637	 4.1070	65.2534	99.9206	
   695	 1.7584	 1.1439	 2.9022	 2.5793	 1.4696	 4.0489	 2.7546	 1.4059	 4.1605	65.5208	99.9221	
   696	 1.8068	 1.0202	 2.8270	 2.5954	 1.2808	 3.8762	 2.7470	 1.1805	 3.9275	65.9214	99.9205	
   697	 1.6652	 0.8256	 2.4909	 2.3786	 1.0545	 3.4331	 2.5082	 0.9259	 3.4340	66.0116	99.9177	
   698	 1.4198	 0.6438	 2.0636	 2.1328	 0.8103	 2.9431	 2.2526	 0.6957	 2.9483	66.1935	99.9133	
   699	 1.2928	 0.5503	 1.8431	 2.0131	 0.6835	 2.6966	 2.1430	 0.5803	 2.7233	66.3303	99.9099	
   700	 1.2709	 0.4601	 1.7309	 1.9870	 0.6012	 2.5881	 2.1135	 0.4921	 2.6056	66.3763	99.9108	
   701	 1.2510	 0.4018	 1.6528	 1.9754	 0.5278	 2.5032	 2.0958	 0.3997	 2.4956	66.5592	99.9122	
   702	 1.2573	 0.3750	 1.6323	 1.9955	 0.5136	 2.5091	 2.1320	 0.3993	 2.5313	66.5581	99.9116	
   703	 1.3328	 0.4215	 1.7543	 2.0827	 0.5673	 2.6500	 2.2151	 0.4747	 2.6898	66.4660	99.9114	
   704	 1.4188	 0.5051	 1.9240	 2.1806	 0.6807	 2.8613	 2.3318	 0.6061	 2.9378	66.3282	99.9114	
   705	 1.5511	 0.5558	 2.1069	 2.3169	 0.7382	 3.0551	 2.4795	 0.6525	 3.1320	66.4176	99.9121	
   706	 1.6078	 0.5600	 2.1678	 2.3879	 0.7554	 3.1432	 2.5652	 0.6715	 3.2367	66.4615	99.9127	
   707	 1.6571	 0.5751	 2.2321	 2.4443	 0.7636	 3.2079	 2.6077	 0.6750	 3.2827	66.5065	99.9140	
   708	 1.6424	 0.5967	 2.2391	 2.3969	 0.7874	 3.1843	 2.5194	 0.7124	 3.2318	66.2372	99.9140	
   709	 1.5804	 0.6353	 2.2157	 2.3012	 0.8212	 3.1224	 2.4422	 0.7335	 3.1756	66.1925	99.9114	
   710	 1.6045	 0.6348	 2.2393	 2.3140	 0.8026	 3.1166	 2.4477	 0.7254	 3.1731	66.1926	99.9092	
   711	 1.6434	 0.6127	 2.2561	 2.3123	 0.7750	 3.0873	 2.4511	 0.6810	 3.1321	66.2384	99.9073	
   712	 1.5994	 0.5549	 2.1542	 2.2669	 0.7206	 2.9875	 2.3938	 0.6334	 3.0273	66.1934	99.9077	
   713	 1.5406	 0.5187	 2.0593	 2.2297	 0.6844	 2.9142	 2.3728	 0.5854	 2.9582	66.3293	99.9088	
   714	 1.5207	 0.4604	 1.9811	 2.2118	 0.6204	 2.8321	 2.3378	 0.5053	 2.8431	66.4209	99.9110	
   715	 1.4609	 0.4083	 1.8692	 2.1801	 0.5611	 2.7412	 2.2924	 0.4536	 2.7459	66.4665	99.9126	
   716	 1.4410	 0.3500	 1.7910	 2.1220	 0.5253	 2.6472	 2.2532	 0.4058	 2.6590	66.4216	99.9113	
   717	 1.4075	 0.3293	 1.7368	 2.1066	 0.5025	 2.6091	 2.2573	 0.3735	 2.6308	66.5577	99.9116	
   718	 1.4117	 0.2705	 1.6823	 2.1287	 0.4102	 2.5389	 2.2563	 0.2568	 2.5130	66.8324	99.9140	
   719	 1.2471	 0.0924	 1.3395	 1.9364	 0.2387	 2.1750	 2.0078	 0.0425	 2.0503	66.8390	99.9198	
   720	 0.8012	-0.1974	 0.6038	 1.5213	-0.0303	 1.4910	 1.5217	-0.2048	 1.3169	66.5679	99.9259	
   721	 0.4476	-0.4304	 0.0172	 1.2079	-0.2366	 0.9714	 1.2377	-0.4065	 0.8312	66.6151	99.9274	
   722	 0.1340	-0.6696	-0.5356	 0.9138	-0.4708	 0.4430	 0.9349	-0.6200	 0.3149	66.5711	99.9278	
   723	-0.1084	-0.8034	-0.9118	 0.6984	-0.5637	 0.1347	 0.7941	-0.6504	 0.1437	66.3837	99.9223	
   724	 0.0480	-0.7532	-0.7052	 0.9022	-0.5442	 0.3581	 1.0491	-0.6296	 0.4195	66.7959	99.9196	
   725	 0.4161	-0.4191	-0.0030	 1.3251	-0.1512	 1.1739	 1.5893	-0.1856	 1.4037	66.6916	99.9147	
   726	 1.0761	-0.0589	 1.0172	 1.9166	 0.1470	 2.0636	 2.1666	 0.0727	 2.2393	66.9605	99.9108	
   727	 1.3541	 0.1276	 1.4818	 2.1082	 0.3047	 2.4129	 2.3202	 0.2157	 2.5359	66.8269	99.9075	
   728	 1.4548	 0.1896	 1.6445	 2.1808	 0.3495	 2.5304	 2.3948	 0.2509	 2.6458	66.8725	99.9053	
   729	 1.5210	 0.2150	 1.7360	 2.2381	 0.3715	 2.6097	 2.4325	 0.2746	 2.7071	66.8275	99.9058	
   730	 1.5304	 0.2362	 1.7665	 2.2591	 0.3712	 2.6302	 2.4388	 0.2786	 2.7174	66.8732	99.9057	
   731	 1.5650	 0.2728	 1.8378	 2.2762	 0.4215	 2.6977	 2.4772	 0.3143	 2.7915	66.8725	99.9053	
   732	 1.6248	 0.3250	 1.9497	 2.3561	 0.4707	 2.8268	 2.5352	 0.3740	 2.9091	66.8262	99.9071	
   733	 1.7339	 0.3921	 2.1260	 2.4933	 0.5420	 3.0353	 2.6955	 0.4283	 3.1237	67.0037	99.9088	
   734	 1.8756	 0.4640	 2.3395	 2.6515	 0.6129	 3.2644	 2.8503	 0.4907	 3.3409	67.0914	99.9107	
   735	 1.9763	 0.5260	 2.5023	 2.7951	 0.6749	 3.4700	 2.9681	 0.5415	 3.5096	67.1792	99.9159	
   736	 2.0645	 0.5189	 2.5834	 2.8523	 0.6969	 3.5493	 3.0113	 0.5570	 3.5684	67.0448	99.9174	
   737	 2.0634	 0.5029	 2.5664	 2.8588	 0.6876	 3.5464	 2.9925	 0.5452	 3.5377	67.0006	99.9201	
   738	 2.0550	 0.4978	 2.5528	 2.8515	 0.6831	 3.5346	 2.9681	 0.5415	 3.5096	66.9564	99.9213	
   739	 2.0319	 0.5142	 2.5461	 2.8323	 0.7111	 3.5433	 2.9806	 0.5494	 3.5300	67.0452	99.9216	
   740	 2.0477	 0.5086	 2.5562	 2.8233	 0.6790	 3.5023	 2.9186	 0.5220	 3.4406	66.9590	99.9217	
   741	 1.9690	 0.4141	 2.3831	 2.7416	 0.6022	 3.3438	 2.8488	 0.4665	 3.3153	66.8688	99.9203	
   742	 1.9838	 0.3925	 2.3762	 2.7634	 0.6156	 3.3791	 2.9116	 0.5060	 3.4176	66.7754	99.9182	
   743	 1.9838	 0.3925	 2.3762	 2.7562	 0.6112	 3.3673	 2.8872	 0.5023	 3.3895	66.7314	99.9186	
   744	 1.9532	 0.5425	 2.4956	 2.7366	 0.7449	 3.4814	 2.8882	 0.6190	 3.5072	66.7754	99.9182	
   745	 2.0917	 0.5664	 2.6581	 2.8767	 0.7517	 3.6284	 2.9828	 0.5856	 3.5684	66.9571	99.9231	
   746	 2.0603	 0.4550	 2.5153	 2.8023	 0.6794	 3.4817	 2.9200	 0.5461	 3.4662	66.6872	99.9199	
   747	 1.9942	 0.4296	 2.4238	 2.7387	 0.6666	 3.4053	 2.8247	 0.5675	 3.3922	66.4172	99.9204	
   748	 1.8442	 0.3526	 2.1968	 2.5288	 0.5506	 3.0794	 2.5736	 0.4097	 2.9833	66.4667	99.9204	
   749	 1.7296	 0.4509	 2.1805	 2.5801	 0.7015	 3.2817	 2.7873	 0.6485	 3.4358	66.5473	99.9158	
   750	 1.9333	 0.4842	 2.4175	 2.6058	 0.6643	 3.2701	 2.6777	 0.5332	 3.2108	66.4656	99.9161	
   751	 1.8504	 0.4485	 2.2989	 2.6430	 0.7005	 3.3434	 2.7837	 0.5882	 3.3718	66.5507	99.9214	
   752	 1.9889	 0.4724	 2.4613	 2.7323	 0.6759	 3.4082	 2.7808	 0.5399	 3.3206	66.5545	99.9235	
   753	 1.7633	 0.3489	 2.1122	 2.4604	 0.5748	 3.0352	 2.5458	 0.4503	 2.9961	66.3747	99.9190	
   754	 1.6143	 0.2878	 1.9021	 2.2959	 0.5131	 2.8090	 2.3556	 0.4004	 2.7560	66.1941	99.9189	
   755	 1.4642	 0.3335	 1.7977	 2.1792	 0.5473	 2.7265	 2.2909	 0.4294	 2.7203	66.3299	99.9170	
   756	 1.4568	 0.3443	 1.8011	 2.1510	 0.5432	 2.6942	 2.2358	 0.4181	 2.6539	66.2854	99.9173	
   757	 1.4463	 0.3072	 1.7535	 2.1147	 0.5208	 2.6355	 2.2595	 0.4097	 2.6692	66.2848	99.9114	
   758	 1.4663	 0.2428	 1.7091	 2.1057	 0.4888	 2.5945	 2.2747	 0.3612	 2.6359	66.2848	99.9113	
   759	 1.4506	 0.2484	 1.6990	 2.0647	 0.5033	 2.5679	 2.2385	 0.3617	 2.6001	66.2396	99.9111	
   760	 1.3634	 0.2715	 1.6349	 1.9545	 0.5281	 2.4826	 2.1298	 0.3631	 2.4929	66.1947	99.9115	
   761	 1.2584	 0.2683	 1.5267	 1.8408	 0.4978	 2.3386	 2.0253	 0.3322	 2.3575	66.2409	99.9087	
   762	 1.1703	 0.2754	 1.4456	 1.7745	 0.4438	 2.2183	 1.8442	 0.3345	 2.1788	65.9669	99.9098	
   763	 1.0338	 0.2834	 1.3172	 1.6087	 0.4742	 2.0829	 1.7508	 0.2874	 2.0382	66.1967	99.9104	
   764	 0.9372	 0.2853	 1.2225	 1.4549	 0.4722	 1.9270	 1.6130	 0.3053	 1.9183	65.9670	99.9039	
   765	 0.8249	 0.2929	 1.1178	 1.3566	 0.4646	 1.8212	 1.5391	 0.2821	 1.8212	66.1052	99.9032	
   766	 0.7188	 0.2737	 0.9925	 1.2775	 0.4292	 1.7067	 1.4179	 0.2756	 1.6935	65.9670	99.9046	
   767	 0.7166	 0.3644	 1.0811	 1.3289	 0.5801	 1.9090	 1.5146	 0.4757	 1.9902	65.6922	99.9048	
   768	 1.0377	 0.5928	 1.6304	 1.6478	 0.7633	 2.4110	 1.7964	 0.6411	 2.4375	65.8297	99.9059	
   769	 1.0219	 0.5984	 1.6203	 1.6059	 0.7640	 2.3699	 1.7358	 0.6379	 2.3737	65.7378	99.9056	
   770	 0.9380	 0.5467	 1.4847	 1.4623	 0.7020	 2.1643	 1.5733	 0.5474	 2.1206	65.6906	99.9048	
   771	 0.6788	 0.4025	 1.0814	 1.1887	 0.5732	 1.7620	 1.2888	 0.4383	 1.7271	65.4585	99.9041	
   772	 0.5970	 0.3828	 0.9798	 1.1759	 0.5919	 1.7678	 1.3161	 0.4903	 1.8064	65.4153	99.9054	
   773	 0.6809	 0.4345	 1.1154	 1.2986	 0.6542	 1.9528	 1.4764	 0.5446	 2.0211	65.6007	99.9065	
   774	 0.7848	 0.4218	 1.2066	 1.4443	 0.6379	 2.0822	 1.6324	 0.5265	 2.1589	65.8299	99.9082	
   775	 0.9318	 0.4508	 1.3826	 1.5926	 0.6630	 2.2556	 1.7591	 0.5249	 2.2840	65.9668	99.9117	
   776	 0.9706	 0.4287	 1.3994	 1.6272	 0.6578	 2.2850	 1.7709	 0.5207	 2.2916	65.8755	99.9140	
   777	 0.9958	 0.4442	 1.4400	 1.6490	 0.6713	 2.3203	 1.7898	 0.5325	 2.3223	65.8755	99.9140	
   778	 1.0525	 0.4484	 1.5009	 1.6981	 0.6750	 2.3732	 1.8212	 0.5522	 2.3734	65.7842	99.9135	
   779	 1.1197	 0.4898	 1.6094	 1.7635	 0.7153	 2.4789	 1.8902	 0.5956	 2.4859	65.7843	99.9129	
   780	 1.1690	 0.5048	 1.6738	 1.8063	 0.7284	 2.5347	 1.9390	 0.6031	 2.5421	65.8300	99.9124	
   781	 1.2099	 0.5146	 1.7246	 1.8418	 0.7370	 2.5787	 1.9752	 0.6026	 2.5778	65.8756	99.9126	
   782	 1.2330	 0.4982	 1.7312	 1.8746	 0.7042	 2.5789	 1.9856	 0.5743	 2.5599	65.9212	99.9134	
   783	 1.2551	 0.4657	 1.7208	 1.8866	 0.6718	 2.5584	 1.9952	 0.5339	 2.5291	65.9668	99.9135	
   784	 1.2299	 0.4502	 1.6801	 1.8793	 0.6674	 2.5467	 1.9764	 0.5221	 2.4985	65.9668	99.9166	
   785	 1.2541	 0.4497	 1.7038	 1.8939	 0.6763	 2.5702	 1.9291	 0.5388	 2.4679	65.7381	99.9203	
   786	 1.2330	 0.4982	 1.7312	 1.8682	 0.7135	 2.5818	 1.9313	 0.5750	 2.5063	65.7839	99.9175	
   787	 1.2750	 0.5240	 1.7990	 1.9046	 0.7359	 2.6405	 1.9689	 0.5987	 2.5676	65.7840	99.9168	
   788	 1.2834	 0.5292	 1.8126	 1.9054	 0.7497	 2.6551	 1.9822	 0.6186	 2.6008	65.7384	99.9156	
   789	 1.2855	 0.5611	 1.8466	 1.9200	 0.7587	 2.6786	 1.9885	 0.6226	 2.6111	65.8298	99.9158	
   790	 1.3117	 0.5926	 1.9043	 1.9234	 0.8138	 2.7372	 2.0040	 0.6787	 2.6827	65.6929	99.9151	
   791	 1.4492	 0.6006	 2.0497	 2.1008	 0.8568	 2.9576	 2.1754	 0.7168	 2.8922	65.7393	99.9203	
   792	 1.5017	 0.5408	 2.0426	 2.1473	 0.8192	 2.9665	 2.1558	 0.6929	 2.8487	65.5111	99.9247	
   793	 1.4324	 0.5902	 2.0226	 2.0726	 0.8527	 2.9252	 2.0723	 0.7101	 2.7824	65.5103	99.9252	
   794	 1.3788	 0.6340	 2.0128	 1.9952	 0.8448	 2.8400	 2.0173	 0.6987	 2.7160	65.6467	99.9196	
   795	 1.3463	 0.6293	 1.9756	 1.9679	 0.8544	 2.8223	 2.0250	 0.7268	 2.7518	65.6017	99.9170	
   796	 1.3966	 0.6603	 2.0569	 2.0470	 0.8899	 2.9369	 2.1129	 0.7820	 2.8949	65.6027	99.9169	
   797	 1.4795	 0.6960	 2.1755	 2.1260	 0.9254	 3.0514	 2.1986	 0.8010	 2.9997	65.6939	99.9174	
   798	 1.5131	 0.7166	 2.2298	 2.1470	 0.9250	 3.0720	 2.1805	 0.8013	 2.9818	65.6478	99.9180	
   799	 1.4963	 0.7063	 2.2026	 2.1124	 0.9302	 3.0425	 2.1498	 0.7936	 2.9435	65.6019	99.9186	
   800	 1.5006	 0.6475	 2.1481	 2.1153	 0.8657	 2.9811	 2.1030	 0.7177	 2.8207	65.6009	99.9223	
   801	 1.5272	 0.3109	 1.8381	 2.0861	 0.6225	 2.7086	 2.1075	 0.5928	 2.7004	65.0548	99.9136	
   802	 1.6183	 0.4745	 2.0928	 2.2084	 0.7906	 2.9990	 2.2046	 0.7003	 2.9049	65.1921	99.9220	
   803	 1.5069	 0.6207	 2.1276	 2.0653	 0.8482	 2.9135	 2.0786	 0.7140	 2.7926	65.4634	99.9169	
   804	 1.5446	 0.7053	 2.2500	 2.1752	 0.9291	 3.1043	 2.2467	 0.7964	 3.0430	65.7393	99.9168	
   805	 1.6832	 0.7292	 2.4124	 2.2760	 0.9780	 3.2541	 2.3708	 0.8512	 3.2219	65.6488	99.9142	
   806	 1.7923	 0.7964	 2.5887	 2.3915	 1.0359	 3.4273	 2.4823	 0.8980	 3.3804	65.7398	99.9150	
   807	 1.8185	 0.8279	 2.6464	 2.3868	 1.0727	 3.4595	 2.4601	 0.9305	 3.3907	65.6033	99.9151	
   808	 1.7891	 0.8712	 2.6602	 2.3393	 1.0965	 3.4359	 2.4010	 0.9514	 3.3524	65.5572	99.9139	
   809	 1.7670	 0.9036	 2.6706	 2.3065	 1.1293	 3.4357	 2.3600	 0.9721	 3.3320	65.5112	99.9148	
   810	 1.7680	 0.9196	 2.6876	 2.2599	 1.1669	 3.4268	 2.3016	 1.0050	 3.3066	65.2823	99.9145	
   811	 1.7617	 0.9464	 2.7081	 2.2480	 1.1993	 3.4472	 2.3037	 1.0413	 3.3450	65.2372	99.9133	
   812	 1.8278	 0.9718	 2.7996	 2.3262	 1.2209	 3.5471	 2.3769	 1.0524	 3.4293	65.3288	99.9149	
   813	 1.8593	 0.9605	 2.8198	 2.3535	 1.2113	 3.5648	 2.3950	 1.0522	 3.4472	65.2833	99.9147	
   814	 1.8593	 0.9605	 2.8198	 2.3189	 1.2165	 3.5354	 2.3462	 1.0447	 3.3910	65.1905	99.9149	
   815	 1.8110	 0.9614	 2.7725	 2.2834	 1.2079	 3.4913	 2.3093	 1.0331	 3.3424	65.2359	99.9154	
   816	 1.8090	 0.9295	 2.7384	 2.2753	 1.1896	 3.4649	 2.2723	 1.0215	 3.2939	65.0979	99.9173	
   817	 1.7617	 0.9464	 2.7081	 2.1915	 1.1910	 3.3826	 2.1331	 1.0153	 3.1483	64.9101	99.9186	
   818	 1.6819	 0.9587	 2.6406	 2.1133	 1.1693	 3.2827	 2.0230	 0.9925	 3.0155	64.9070	99.9189	
   819	 1.6242	 0.9385	 2.5627	 2.0770	 1.1470	 3.2240	 2.0097	 0.9726	 2.9823	65.0002	99.9183	
   820	 1.6284	 0.8797	 2.5082	 2.0881	 1.1008	 3.1889	 2.0555	 0.9317	 2.9872	65.0939	99.9166	
   821	 1.6348	 0.8529	 2.4877	 2.1718	 1.0994	 3.2712	 2.1948	 0.9380	 3.1328	65.3275	99.9183	
   822	 1.7586	 0.8985	 2.6571	 2.2629	 1.1024	 3.3653	 2.1782	 0.9624	 3.1405	65.0951	99.9196	
   823	 1.8247	 0.9238	 2.7485	 2.3227	 1.1658	 3.4885	 2.2166	 0.9981	 3.2147	65.0034	99.9249	
   824	 1.7901	 0.8872	 2.6773	 2.3137	 1.1338	 3.4475	 2.2624	 0.9572	 3.2197	65.2346	99.9236	
   825	 1.8175	 0.8119	 2.6294	 2.3478	 1.0090	 3.3569	 2.2843	 0.8201	 3.1044	65.5541	99.9227	
   826	 1.6309	 0.5436	 2.1744	 2.2221	 0.7858	 3.0079	 2.2253	 0.6437	 2.8690	65.6470	99.9209	
   827	 1.5460	 0.3532	 1.8992	 2.1669	 0.6855	 2.8524	 2.1577	 0.6244	 2.7821	65.1472	99.9229	
   828	 1.5458	 0.5986	 2.1444	 2.1418	 0.8423	 2.9841	 2.0771	 0.6899	 2.7670	65.4169	99.9265	
   829	 1.4691	 0.6588	 2.1279	 1.9414	 0.8779	 2.8193	 1.8935	 0.7486	 2.6421	65.0459	99.9152	
   830	 1.6128	 0.7627	 2.3755	 2.1231	 0.9898	 3.1129	 2.0379	 0.8393	 2.8772	65.0935	99.9221	
   831	 1.6736	 0.8308	 2.5044	 2.1603	 1.0260	 3.1862	 2.0985	 0.8426	 2.9410	65.3229	99.9196	
   832	 1.6789	 0.7880	 2.4669	 2.0876	 0.9812	 3.0688	 1.9799	 0.7797	 2.7596	65.1341	99.9194	
   833	 1.5383	 0.7321	 2.2704	 1.9658	 0.9327	 2.8985	 1.8879	 0.7567	 2.6446	65.0888	99.9170	
   834	 1.6349	 0.7302	 2.3651	 2.1423	 0.9619	 3.1042	 2.1269	 0.8140	 2.9410	65.2794	99.9172	
   835	 1.6213	 0.6451	 2.2664	 2.0961	 0.8937	 2.9898	 2.0125	 0.7189	 2.7313	65.1377	99.9229	
   836	 1.5028	 0.5568	 2.0596	 1.9444	 0.8134	 2.7578	 1.9168	 0.6356	 2.5524	65.1832	99.9179	
   837	 1.4714	 0.4454	 1.9168	 1.9904	 0.6563	 2.6467	 1.9099	 0.4223	 2.3322	65.7358	99.9270	
   838	 1.2898	 0.3797	 1.6695	 1.8605	 0.5895	 2.4500	 1.8486	 0.4070	 2.2556	65.7827	99.9217	
   839	 1.3906	 0.4417	 1.8322	 2.0268	 0.6787	 2.7054	 2.0495	 0.5332	 2.5827	65.7839	99.9221	
   840	 1.5207	 0.4604	 1.9811	 2.1968	 0.7172	 2.9140	 2.2202	 0.5592	 2.7794	65.9212	99.9263	
   841	 1.5375	 0.4707	 2.0083	 2.2033	 0.7079	 2.9111	 2.2132	 0.5432	 2.7564	65.9668	99.9259	
   842	 1.5795	 0.4966	 2.0761	 2.2524	 0.7117	 2.9641	 2.2801	 0.5504	 2.8305	66.1035	99.9236	
   843	 1.6362	 0.5008	 2.1369	 2.2887	 0.7340	 3.0228	 2.2997	 0.5743	 2.8739	65.9668	99.9245	
   844	 1.6529	 0.5111	 2.1641	 2.3178	 0.7519	 3.0697	 2.3199	 0.6102	 2.9302	65.8756	99.9249	
   845	 1.6697	 0.5215	 2.1912	 2.3605	 0.7650	 3.1256	 2.3506	 0.6179	 2.9685	65.9212	99.9277	
   846	 1.6498	 0.4632	 2.1130	 2.3536	 0.6547	 3.0084	 2.3681	 0.4083	 2.7764	66.6520	99.9306	
   847	 1.7225	 0.2163	 1.9388	 2.4497	 0.5151	 2.9649	 2.4195	 0.3593	 2.7789	66.1032	99.9343	
   848	 1.7330	 0.2534	 1.9864	 2.4314	 0.5568	 2.9882	 2.3759	 0.4364	 2.8123	65.7846	99.9323	
   849	 1.7635	 0.2262	 1.9896	 2.5143	 0.5416	 3.0559	 2.5211	 0.3419	 2.8631	66.3753	99.9369	
   850	 2.1173	 0.2138	 2.3310	 2.7967	 0.4771	 3.2738	 2.6819	 0.3036	 2.9855	66.2406	99.9361	
   851	 1.9787	 0.1898	 2.1686	 2.6048	 0.4251	 3.0299	 2.4868	 0.2739	 2.7608	66.0585	99.9306	
   852	 1.7982	 0.1401	 1.9383	 2.4274	 0.3821	 2.8096	 2.3635	 0.2312	 2.5947	66.1043	99.9277	
   853	 1.5872	 0.1176	 1.7048	 2.2308	 0.3671	 2.5979	 2.1587	 0.2419	 2.4007	65.8752	99.9277	
   854	 1.7436	 0.1679	 1.9114	 2.6510	 0.4933	 3.1443	 2.7381	 0.2344	 2.9726	67.1833	99.9437	
   855	 1.8951	-0.2299	 1.6652	 2.5490	-0.0201	 2.5289	 1.9940	-0.3841	 1.6100	66.3441	99.9658	
   856	 1.2557	-0.1478	 1.1079	 2.0492	 0.2551	 2.3043	 1.9206	-0.0006	 1.9200	66.0587	99.9534	
   857	 1.8864	 0.1330	 2.0194	 2.7377	 0.4275	 3.1652	 2.5109	 0.1730	 2.6839	66.5156	99.9562	
   858	 1.8495	 0.3098	 2.1593	 2.5014	 0.5603	 3.0617	 2.1909	 0.2737	 2.4646	65.9208	99.9520	
   859	 1.4537	 0.2964	 1.7501	 1.9348	 0.4365	 2.3712	 1.5916	 0.1526	 1.7442	65.5908	99.9407	
   860	 0.9237	 0.0776	 1.0013	 1.3018	 0.2586	 1.5604	 1.0704	 0.0224	 1.0928	65.1168	99.9274	
   861	 0.8784	 0.2492	 1.1276	 1.4599	 0.3295	 1.7894	 1.2167	 0.0447	 1.2614	66.0142	99.9368	
   862	 0.7799	 0.0964	 0.8763	 1.3475	 0.2072	 1.5547	 1.0875	-0.0946	 0.9929	65.9672	99.9398	
   863	 0.7381	-0.0521	 0.6859	 1.3231	 0.1524	 1.4755	 1.1584	-0.1196	 1.0388	65.8735	99.9378	
   864	 0.9564	-0.0405	 0.9159	 1.5389	 0.1396	 1.6785	 1.2260	-0.1004	 1.1257	65.5909	99.9432	
   865	 0.7317	-0.0253	 0.7064	 1.3603	 0.1886	 1.5489	 1.2452	 0.0161	 1.2613	65.6415	99.9311	
   866	 1.0318	 0.1287	 1.1606	 1.6693	 0.3260	 1.9953	 1.6286	 0.1642	 1.7928	65.9208	99.9250	
   867	 1.0916	 0.1809	 1.2725	 1.6710	 0.3535	 2.0246	 1.5946	 0.2009	 1.7954	65.7354	99.9220	
   868	 0.8900	 0.1796	 1.0696	 1.4625	 0.3708	 1.8334	 1.4213	 0.2313	 1.6525	65.5501	99.9195	
   869	 0.9163	 0.2111	 1.1273	 1.5061	 0.3977	 1.9038	 1.4637	 0.2348	 1.6985	65.6892	99.9220	
   870	 0.9036	 0.2647	 1.1683	 1.5485	 0.5166	 2.0651	 1.5527	 0.4067	 1.9594	65.4155	99.9221	
   871	 1.1198	 0.3671	 1.4868	 1.7930	 0.6274	 2.4204	 1.7709	 0.5207	 2.2916	65.4172	99.9257	
   872	 1.2133	 0.3172	 1.5304	 1.9224	 0.5746	 2.4971	 1.8653	 0.3826	 2.2479	65.8751	99.9354	
   873	 1.4118	 0.1478	 1.5597	 2.1398	 0.3640	 2.5038	 1.8844	-0.0002	 1.8842	66.5714	99.9549	
   874	 1.0457	-0.1543	 0.8915	 1.7320	 0.0995	 1.8315	 1.3618	-0.3518	 1.0101	66.4385	99.9640	
   875	 0.6596	-0.3920	 0.2677	 1.4195	-0.0930	 1.3266	 1.0970	-0.4369	 0.6600	66.1080	99.9618	
   876	 0.8181	-0.3098	 0.5083	 1.6786	 0.0268	 1.7054	 1.4645	-0.2524	 1.2120	66.2449	99.9590	
   877	 1.4078	-0.0388	 1.3690	 2.4013	 0.2998	 2.7011	 2.2062	 0.0279	 2.2341	66.6971	99.9629	
   878	 1.7310	 0.0988	 1.8298	 2.5373	 0.4631	 3.0004	 2.2452	 0.2730	 2.5182	65.6460	99.9573	
   879	 1.4842	 0.2691	 1.7532	 2.1455	 0.5663	 2.7118	 1.8261	 0.3348	 2.1609	65.3180	99.9521	
   880	 1.2532	 0.3110	 1.5642	 1.8716	 0.5433	 2.4149	 1.6436	 0.3130	 1.9566	65.5026	99.9421	
   881	 1.1419	 0.3346	 1.4765	 1.7613	 0.5682	 2.3295	 1.6159	 0.3536	 1.9695	65.5502	99.9364	
   882	 1.1691	 0.3821	 1.5512	 1.7977	 0.5906	 2.3882	 1.6598	 0.3812	 2.0410	65.6431	99.9347	
   883	 1.1775	 0.3872	 1.5647	 1.7985	 0.6043	 2.4029	 1.6543	 0.3893	 2.0436	65.5967	99.9355	
   884	 1.1534	 0.3877	 1.5411	 1.7776	 0.6047	 2.3823	 1.6181	 0.3898	 2.0079	65.5501	99.9366	
   885	 1.1628	 0.4089	 1.5717	 1.7930	 0.6274	 2.4204	 1.6676	 0.4093	 2.0769	65.6433	99.9352	
   886	 1.1701	 0.3981	 1.5682	 1.7712	 0.6140	 2.3852	 1.6173	 0.3777	 1.9951	65.5960	99.9364	
   887	 1.0967	 0.3835	 1.4802	 1.7075	 0.6013	 2.3088	 1.5638	 0.3905	 1.9543	65.5036	99.9348	
   888	 1.1051	 0.3887	 1.4938	 1.7229	 0.6240	 2.3469	 1.6022	 0.4262	 2.0284	65.4583	99.9338	
   889	 1.1376	 0.3934	 1.5310	 1.7921	 0.6136	 2.4058	 1.7045	 0.4209	 2.1254	65.6903	99.9325	
   890	 1.1355	 0.3614	 1.4969	 1.7968	 0.5768	 2.3736	 1.7079	 0.3766	 2.0844	65.7825	99.9332	
   891	 1.0978	 0.2768	 1.3746	 1.7369	 0.5134	 2.2503	 1.6122	 0.2932	 1.9055	65.6894	99.9366	
   892	 1.0812	 0.1438	 1.2249	 1.6600	 0.3997	 2.0597	 1.4881	 0.2385	 1.7266	65.2242	99.9336	
   893	 1.0140	 0.1024	 1.1164	 1.6510	 0.3677	 2.0186	 1.5070	 0.2503	 1.7573	65.2271	99.9325	
   894	 1.0831	 0.2984	 1.3815	 1.7776	 0.6047	 2.3823	 1.6804	 0.5219	 2.2023	65.0499	99.9326	
   895	 1.1271	 0.3562	 1.4834	 1.7665	 0.6509	 2.4174	 1.6937	 0.5418	 2.2355	65.0945	99.9293	
   896	 1.0316	 0.3742	 1.4057	 1.6746	 0.6340	 2.3086	 1.6092	 0.4422	 2.0514	65.5061	99.9327	
   897	 1.0967	 0.3835	 1.4802	 1.7857	 0.6230	 2.4087	 1.7233	 0.4327	 2.1561	65.7370	99.9336	
   898	 1.1534	 0.3877	 1.5411	 1.7994	 0.6181	 2.4175	 1.6801	 0.4172	 2.0973	65.5976	99.9351	
   899	 1.1135	 0.3939	 1.5073	 1.7374	 0.6330	 2.3704	 1.6280	 0.4541	 2.0821	65.4129	99.9324	
   900	 1.1051	 0.3887	 1.4938	 1.7229	 0.6240	 2.3469	 1.6258	 0.4179	 2.0437	65.5511	99.9329	
   901	 1.0306	 0.3582	 1.3887	 1.6930	 0.5923	 2.2853	 1.6251	 0.4058	 2.0309	65.6443	99.9321	
   902	 1.0379	 0.3474	 1.3853	 1.6930	 0.5923	 2.2853	 1.6188	 0.4019	 2.0207	65.5981	99.9329	
   903	 0.9970	 0.3375	 1.3345	 1.6639	 0.5744	 2.2383	 1.5881	 0.3942	 1.9823	65.5981	99.9325	
   904	 0.9970	 0.3375	 1.3345	 1.6784	 0.5834	 2.2618	 1.6070	 0.4060	 2.0130	65.5985	99.9333	
   905	 1.0663	 0.2881	 1.3544	 1.7113	 0.5506	 2.2619	 1.5874	 0.3821	 1.9695	65.3667	99.9350	
   906	 1.0968	 0.2608	 1.3576	 1.7387	 0.5410	 2.2796	 1.6055	 0.3819	 1.9874	65.2747	99.9357	
   907	 1.1367	 0.2547	 1.3914	 1.7724	 0.5220	 2.2944	 1.6041	 0.3578	 1.9618	65.2734	99.9371	
   908	 1.0737	 0.2773	 1.3510	 1.6912	 0.5648	 2.2560	 1.5283	 0.4030	 1.9313	65.0881	99.9368	
   909	 1.0242	 0.3850	 1.4092	 1.6592	 0.6113	 2.2705	 1.5785	 0.4346	 2.0131	65.5054	99.9304	
   910	 1.0736	 0.4000	 1.4735	 1.7246	 0.6516	 2.3762	 1.6476	 0.4780	 2.1256	65.4604	99.9322	
   911	 1.0924	 0.4423	 1.5347	 1.7336	 0.6836	 2.4172	 1.6435	 0.5103	 2.1537	65.4139	99.9319	
   912	 1.1344	 0.4681	 1.6025	 1.8191	 0.7098	 2.5289	 1.7661	 0.5409	 2.3070	65.5997	99.9316	
   913	 1.2058	 0.4507	 1.6565	 1.8802	 0.6811	 2.5613	 1.8072	 0.5202	 2.3274	65.5994	99.9311	
   914	 1.1984	 0.4615	 1.6599	 1.8892	 0.7132	 2.6024	 1.8212	 0.5522	 2.3734	65.5541	99.9328	
   915	 1.2330	 0.4982	 1.7312	 1.9054	 0.7497	 2.6551	 1.8296	 0.5924	 2.4220	65.4622	99.9321	
   916	 1.2509	 0.5245	 1.7753	 1.9072	 0.7773	 2.6844	 1.8256	 0.6247	 2.4502	65.3702	99.9314	
   917	 1.2697	 0.5668	 1.8365	 1.9307	 0.8183	 2.7490	 1.8410	 0.6808	 2.5219	65.2789	99.9311	
   918	 1.3033	 0.5875	 1.8907	 1.9260	 0.8551	 2.7812	 1.8362	 0.7010	 2.5372	65.1863	99.9311	
   919	 1.2970	 0.6143	 1.9112	 1.9341	 0.8734	 2.8075	 1.8558	 0.7249	 2.5807	65.2330	99.9303	
   920	 1.3757	 0.5860	 1.9617	 1.9807	 0.8358	 2.8165	 1.8835	 0.6843	 2.5678	65.2317	99.9294	
   921	 1.3264	 0.5710	 1.8974	 1.9379	 0.8228	 2.7607	 1.8403	 0.6688	 2.5091	65.2314	99.9301	
   922	 1.3022	 0.5715	 1.8737	 1.9106	 0.8324	 2.7430	 1.8410	 0.6808	 2.5219	65.2322	99.9285	
   923	 1.3033	 0.5875	 1.8907	 1.9243	 0.8276	 2.7519	 1.8237	 0.6931	 2.5168	65.1857	99.9288	
   924	 1.3033	 0.5875	 1.8907	 1.9179	 0.8369	 2.7548	 1.7993	 0.6894	 2.4887	65.1389	99.9310	
   925	 1.3117	 0.5926	 1.9043	 1.9606	 0.8500	 2.8106	 1.8606	 0.7047	 2.5653	65.2327	99.9320	
   926	 1.4387	 0.5634	 2.0021	 2.1298	 0.8747	 3.0045	 2.0557	 0.7344	 2.7901	65.2823	99.9351	
   927	 1.4807	 0.5893	 2.0699	 2.2465	 0.8405	 3.0870	 1.9866	 0.6910	 2.6776	65.2784	99.9470	
   928	 1.4103	 0.6227	 2.0330	 2.0461	 0.8761	 2.9222	 1.9345	 0.7279	 2.6624	65.2327	99.9320	
   929	 1.3851	 0.6072	 1.9923	 1.9606	 0.8500	 2.8106	 1.8056	 0.6934	 2.4989	65.0446	99.9315	
   930	 1.2791	 0.5879	 1.8671	 1.8815	 0.8145	 2.6960	 1.7420	 0.6418	 2.3839	65.2288	99.9321	
   931	 1.2026	 0.5255	 1.7280	 1.8354	 0.7463	 2.5816	 1.7258	 0.5736	 2.2994	65.4139	99.9315	
   932	 1.1847	 0.4991	 1.6839	 1.8281	 0.7418	 2.5699	 1.7321	 0.5776	 2.3097	65.3687	99.9318	
   933	 1.1669	 0.4728	 1.6397	 1.8272	 0.7280	 2.5553	 1.7251	 0.5615	 2.2866	65.3689	99.9339	
   934	 1.1596	 0.4836	 1.6432	 1.8418	 0.7370	 2.5787	 1.7454	 0.5975	 2.3429	65.3241	99.9328	
   935	 1.2173	 0.5038	 1.7211	 1.8918	 0.7545	 2.6463	 1.7879	 0.6010	 2.3889	65.3698	99.9337	
   936	 1.2310	 0.4662	 1.6972	 1.9037	 0.7221	 2.6259	 1.7920	 0.5687	 2.3607	65.3695	99.9343	
   937	 1.1900	 0.4564	 1.6464	 1.8738	 0.6905	 2.5642	 1.7709	 0.5207	 2.2916	65.5530	99.9342	
   938	 1.1397	 0.4253	 1.5650	 1.8020	 0.6595	 2.4614	 1.7019	 0.4773	 2.1792	65.5523	99.9338	
   939	 1.0903	 0.4103	 1.5007	 1.7447	 0.6374	 2.3821	 1.6406	 0.4620	 2.1025	65.5057	99.9328	
   940	 1.1061	 0.4047	 1.5108	 1.7584	 0.6326	 2.3910	 1.6406	 0.4620	 2.1025	65.4594	99.9333	
   941	 1.1071	 0.4207	 1.5278	 1.7528	 0.6557	 2.4085	 1.6420	 0.4861	 2.1281	65.4135	99.9328	
   942	 1.1092	 0.4526	 1.5618	 1.7618	 0.6877	 2.4496	 1.6379	 0.5184	 2.1563	65.3674	99.9340	
   943	 1.1753	 0.4780	 1.6533	 1.8418	 0.7370	 2.5787	 1.7495	 0.5653	 2.3147	65.4153	99.9342	
   944	 1.2572	 0.4977	 1.7549	 1.9473	 0.7490	 2.6963	 1.8470	 0.5801	 2.4271	65.5079	99.9353	
   945	 1.2971	 0.4916	 1.7886	 1.9682	 0.7486	 2.7169	 1.8526	 0.5720	 2.4245	65.4614	99.9361	
   946	 1.2488	 0.4925	 1.7413	 1.9110	 0.7266	 2.6376	 1.7912	 0.5567	 2.3479	65.4607	99.9342	
   947	 1.2246	 0.4930	 1.7176	 1.8973	 0.7315	 2.6288	 1.7857	 0.5648	 2.3505	65.4611	99.9343	
   948	 1.2330	 0.4982	 1.7312	 1.8982	 0.7452	 2.6434	 1.7864	 0.5769	 2.3633	65.4151	99.9345	
   949	 1.2257	 0.5090	 1.7347	 1.8845	 0.7501	 2.6346	 1.7628	 0.5852	 2.3480	65.3687	99.9342	
   950	 1.2183	 0.5198	 1.7381	 1.8854	 0.7638	 2.6492	 1.7628	 0.5852	 2.3480	65.4147	99.9357	
   951	 1.2099	 0.5146	 1.7246	 1.8700	 0.7411	 2.6111	 1.7321	 0.5776	 2.3097	65.3680	99.9344	
   952	 1.2089	 0.4987	 1.7075	 1.8507	 0.7690	 2.6198	 1.7565	 0.5813	 2.3378	65.3689	99.9347	
   953	 1.2330	 0.4982	 1.7312	 1.9336	 0.7538	 2.6875	 1.8296	 0.5924	 2.4220	65.4622	99.9358	
   954	 1.2729	 0.4920	 1.7650	 1.9336	 0.7538	 2.6875	 1.7872	 0.5889	 2.3761	65.2766	99.9369	
   955	 1.2257	 0.5090	 1.7347	 1.8999	 0.7728	 2.6727	 1.7949	 0.6170	 2.4119	65.3241	99.9346	
   956	 1.2267	 0.5250	 1.7517	 1.9072	 0.7773	 2.6844	 1.7635	 0.5973	 2.3608	65.3687	99.9382	
   957	 1.1375	 0.5161	 1.6536	 1.8007	 0.7515	 2.5522	 1.6590	 0.5664	 2.2254	65.3674	99.9367	
   958	 1.0388	 0.4860	 1.5249	 1.6862	 0.7074	 2.3936	 1.5308	 0.5439	 2.0747	65.2274	99.9346	
   959	 1.1195	 0.6125	 1.7320	 1.8158	 0.8800	 2.6958	 1.7187	 0.7549	 2.4736	65.0961	99.9335	
   960	 1.4281	 0.6490	 2.0771	 2.2042	 0.9470	 3.1513	 2.0719	 0.8027	 2.8745	65.3286	99.9423	
   961	 1.6151	 0.5492	 2.1643	 2.3230	 0.8346	 3.1576	 2.1496	 0.6889	 2.8385	65.3263	99.9408	
   962	 1.5165	 0.5192	 2.0356	 2.1837	 0.8416	 3.0253	 1.9649	 0.6309	 2.5958	65.1849	99.9470	
   963	 1.2791	 0.5879	 1.8671	 2.0089	 0.8400	 2.8488	 1.6502	 0.4216	 2.0718	65.8739	99.9638	
   964	 1.2193	 0.5358	 1.7551	 2.0272	 0.7982	 2.8255	 1.7318	 0.4729	 2.2047	65.8283	99.9603	
   965	 1.2907	 0.5184	 1.8091	 2.0563	 0.8162	 2.8725	 1.8437	 0.6244	 2.4681	65.3241	99.9490	
   966	 1.3296	 0.4962	 1.8259	 2.1063	 0.8337	 2.9400	 1.8924	 0.6319	 2.5243	65.2791	99.9519	
   967	 1.3464	 0.5066	 1.8530	 2.1418	 0.8423	 2.9841	 1.9028	 0.6035	 2.5063	65.4161	99.9557	
   968	 1.4692	 0.5361	 2.0053	 2.2401	 0.8498	 3.0899	 1.9634	 0.6068	 2.5702	65.4151	99.9559	
   969	 1.3212	 0.4911	 1.8123	 2.0174	 0.7524	 2.7698	 1.7396	 0.5010	 2.2405	65.4115	99.9510	
   970	 1.3412	 0.4267	 1.7679	 1.9832	 0.6518	 2.6350	 1.7492	 0.4606	 2.2098	65.3652	99.9409	
   971	 1.1638	 0.4249	 1.5887	 1.7575	 0.6188	 2.3763	 1.5645	 0.4026	 1.9671	65.4559	99.9360	
   972	 0.9329	 0.3441	 1.2770	 1.5212	 0.5262	 2.0474	 1.3469	 0.3007	 1.6476	65.5010	99.9346	
   973	 1.0043	 0.3267	 1.3310	 1.6387	 0.5059	 2.1445	 1.4534	 0.2631	 1.7165	65.7344	99.9385	
   974	 1.1020	 0.3407	 1.4427	 1.7169	 0.5275	 2.2444	 1.5162	 0.3025	 1.8187	65.5949	99.9377	
   975	 1.1670	 0.3501	 1.5171	 1.7369	 0.5134	 2.2503	 1.4534	 0.2631	 1.7165	65.4991	99.9408	
   976	 1.0915	 0.3036	 1.3951	 1.7023	 0.5186	 2.2209	 1.4142	 0.2153	 1.6295	65.5929	99.9485	
   977	 1.0560	 0.1283	 1.1842	 1.7531	 0.3245	 2.0776	 1.3845	 0.0224	 1.4068	65.8266	99.9557	
   978	 0.8703	-0.0014	 0.8689	 1.6368	 0.2529	 1.8897	 1.3265	-0.0373	 1.2892	65.8738	99.9574	
   979	 0.9227	 0.0616	 0.9843	 1.5676	 0.2633	 1.8309	 1.1879	-0.0314	 1.1565	65.5906	99.9539	
   980	 0.8869	 0.1316	 1.0186	 1.6091	 0.3684	 1.9775	 1.3534	 0.1073	 1.4607	65.7343	99.9505	
   981	 1.0045	 0.2040	 1.2084	 1.6544	 0.4228	 2.0772	 1.3326	 0.1640	 1.4966	65.4525	99.9499	
   982	 0.9204	 0.2750	 1.1954	 1.6523	 0.5010	 2.1533	 1.4123	 0.2837	 1.6961	65.5493	99.9472	
   983	 0.9466	 0.3065	 1.2531	 1.5776	 0.5345	 2.1120	 1.2752	 0.3137	 1.5889	65.1263	99.9463	
   984	 0.8216	 0.3677	 1.1893	 1.4417	 0.5966	 2.0383	 1.2120	 0.3668	 1.5789	65.1742	99.9422	
   985	 0.8122	 0.3465	 1.1587	 1.4408	 0.5828	 2.0236	 1.1987	 0.3469	 1.5456	65.1739	99.9441	
   986	 0.8385	 0.2553	 1.0938	 1.4929	 0.5221	 2.0151	 1.1781	 0.2062	 1.3844	65.3583	99.9548	
   987	 0.6204	-0.0017	 0.6187	 1.3527	 0.2899	 1.6426	 1.0165	-0.0695	 0.9470	65.6855	99.9619	
   988	 0.4526	-0.1051	 0.3475	 1.1957	 0.1270	 1.3227	 0.8023	-0.2157	 0.5866	65.7311	99.9622	
   989	 0.1978	-0.4308	-0.2330	 0.8379	-0.1199	 0.7180	 0.4319	-0.4485	-0.0166	65.2063	99.9610	
   990	-0.0374	-0.4527	-0.4901	 0.7213	-0.0858	 0.6355	 0.3960	-0.3433	 0.0526	65.0723	99.9608	
   991	 0.3445	-0.1563	 0.1882	 1.1428	 0.1739	 1.3167	 0.8388	-0.1115	 0.7273	65.4525	99.9611	
   992	 0.4777	-0.0896	 0.3881	 1.1710	 0.1780	 1.3490	 0.8122	-0.1514	 0.6608	65.4956	99.9593	
   993	 0.3340	-0.1934	 0.1406	 0.9684	 0.0664	 1.0348	 0.5585	-0.2528	 0.3056	65.2075	99.9587	
   994	 0.2206	-0.2018	 0.0188	 0.8910	 0.0585	 0.9496	 0.4909	-0.2721	 0.2188	65.3027	99.9602	
   995	 0.1965	-0.2013	-0.0048	 0.8573	 0.0775	 0.9348	 0.4547	-0.2716	 0.1830	65.2547	99.9615	
   996	 0.1042	-0.2582	-0.1540	 0.7756	 0.0007	 0.7763	 0.3646	-0.3631	 0.0015	65.3959	99.9622	
   997	-0.1129	-0.4992	-0.6122	 0.4652	-0.2700	 0.1952	 0.0086	-0.6564	-0.6478	65.3409	99.9607	
   998	-0.2282	-0.6623	-0.8906	 0.3118	-0.3778	-0.0660	-0.0716	-0.6836	-0.7551	64.9589	99.9538	
   999	 0.1913	-0.2813	-0.0899	 1.0274	 0.1160	 1.1434	 0.8598	-0.0635	 0.7964	65.2258	99.9535	
  1000	 0.8009	 0.0480	 0.8489	 1.5617	 0.3922	 1.9538	 1.2059	 0.1656	 1.3715	65.0357	99.9599	
  1001	 0.6947	 0.2742	 0.9689	 1.4789	 0.6327	 2.1116	 1.2253	 0.3868	 1.6121	65.0872	99.9574	
  1002	 1.1156	 0.3031	 1.4188	 1.9413	 0.6525	 2.5938	 1.6968	 0.3928	 2.0896	65.5526	99.9588	
  1003	 1.1692	 0.2594	 1.4286	 1.9032	 0.6026	 2.5058	 1.5985	 0.3659	 1.9644	65.1801	99.9567	
  1004	 1.1870	 0.2857	 1.4727	 2.0041	 0.6515	 2.6555	 1.7337	 0.4044	 2.1381	65.4145	99.9597	
  1005	 1.1304	 0.2815	 1.4118	 1.8049	 0.5950	 2.4000	 1.4404	 0.3478	 1.7882	64.9888	99.9566	
  1006	 0.8994	 0.3234	 1.2228	 1.6528	 0.6206	 2.2734	 1.3994	 0.3685	 1.7678	65.3645	99.9539	
  1007	 0.8490	 0.2924	 1.1414	 1.5455	 0.5810	 2.1266	 1.2752	 0.3137	 1.5889	65.2688	99.9528	
  1008	 0.7399	 0.2253	 0.9652	 1.3848	 0.4687	 1.8536	 1.0171	 0.1399	 1.1570	65.3083	99.9568	
  1009	 0.3757	 0.0778	 0.4536	 0.9958	 0.2821	 1.2780	 0.5798	-0.1001	 0.4797	65.3963	99.9593	
  1010	 0.2079	-0.0255	 0.1824	 0.8714	 0.1923	 1.0637	 0.5218	-0.1598	 0.3621	65.4931	99.9569	
  1011	 0.3243	 0.0308	 0.3552	 0.9322	 0.2694	 1.2016	 0.6274	-0.0121	 0.6153	65.1171	99.9493	
  1012	 0.5215	 0.2136	 0.7352	 1.2682	 0.5029	 1.7711	 1.1086	 0.2554	 1.3641	65.4567	99.9481	
  1013	 0.7367	 0.3000	 1.0367	 1.4844	 0.6096	 2.0941	 1.2782	 0.3620	 1.6401	65.3184	99.9515	
  1014	 0.8363	 0.3460	 1.1824	 1.6191	 0.6396	 2.2586	 1.3883	 0.3847	 1.7730	65.4580	99.9540	
  1015	 0.8038	 0.3414	 1.1452	 1.4909	 0.6003	 2.0912	 1.2468	 0.3422	 1.5890	65.3153	99.9492	
  1016	 0.8793	 0.3879	 1.2672	 1.5900	 0.6217	 2.2117	 1.3617	 0.3448	 1.7065	65.5952	99.9493	
  1017	 0.8762	 0.3399	 1.2162	 1.5592	 0.5762	 2.1354	 1.3414	 0.3088	 1.6502	65.5484	99.9470	
  1018	 0.9340	 0.3601	 1.2941	 1.6456	 0.6161	 2.2617	 1.4725	 0.3796	 1.8521	65.5505	99.9450	
  1019	 1.1535	 0.2650	 1.4185	 1.9626	 0.5464	 2.5090	 1.8239	 0.2986	 2.1225	66.0588	99.9493	
  1020	 1.1841	 0.1150	 1.2991	 2.0091	 0.5088	 2.5179	 1.8350	 0.2823	 2.1174	65.6460	99.9553	
  1021	 1.0653	 0.2721	 1.3374	 1.8669	 0.5802	 2.4471	 1.6200	 0.3213	 1.9413	65.6438	99.9563	
  1022	 0.9908	 0.2416	 1.2324	 1.7250	 0.5458	 2.2708	 1.4604	 0.2791	 1.7395	65.4567	99.9546	
  1023	 0.8700	 0.2440	 1.1141	 1.5857	 0.5527	 2.1384	 1.3510	 0.2684	 1.6194	65.4561	99.9534	
  1024	 0.8543	 0.2497	 1.1039	 1.5712	 0.5438	 2.1149	 1.3392	 0.2726	 1.6118	65.4561	99.9520	
  1025	 0.8637	 0.2708	 1.1345	 1.5930	 0.5572	 2.1502	 1.3761	 0.2842	 1.6603	65.5495	99.9516	
  1026	 0.8889	 0.2863	 1.1752	 1.5930	 0.5572	 2.1502	 1.3636	 0.2763	 1.6399	65.5487	99.9509	
  1027	 0.8480	 0.2765	 1.1244	 1.5365	 0.5490	 2.0855	 1.2974	 0.2812	 1.5786	65.4087	99.9501	
  1028	 0.8668	 0.3188	 1.1856	 1.6092	 0.5937	 2.2030	 1.3853	 0.3364	 1.7218	65.5034	99.9512	
  1029	 1.0473	 0.3685	 1.4158	 1.8310	 0.6774	 2.5084	 1.6676	 0.4093	 2.0769	65.7368	99.9518	
  1030	 1.1366	 0.3774	 1.5140	 1.9293	 0.6849	 2.6142	 1.6975	 0.4049	 2.1024	65.6902	99.9562	
  1031	 1.1040	 0.3727	 1.4767	 1.8947	 0.6901	 2.5848	 1.6739	 0.4132	 2.0871	65.6442	99.9558	
  1032	 1.0841	 0.3144	 1.3986	 1.8985	 0.6394	 2.5380	 1.6709	 0.3650	 2.0359	65.6904	99.9573	
  1033	 1.0894	 0.2716	 1.3611	 1.9250	 0.6160	 2.5410	 1.7245	 0.3522	 2.0767	65.7371	99.9570	
  1034	 1.1314	 0.2975	 1.4289	 1.9605	 0.6246	 2.5851	 1.7607	 0.3517	 2.1124	65.8290	99.9565	
  1035	 1.1408	 0.3186	 1.4594	 1.9541	 0.6339	 2.5880	 1.7544	 0.3478	 2.1022	65.8749	99.9560	
  1036	 1.1156	 0.3031	 1.4188	 1.9250	 0.6160	 2.5410	 1.7057	 0.3403	 2.0460	65.7826	99.9562	
  1037	 1.0800	 0.2505	 1.3305	 1.9297	 0.5791	 2.5088	 1.7342	 0.3118	 2.0460	65.8750	99.9569	
  1038	 1.0947	 0.2289	 1.3236	 1.9434	 0.5743	 2.5177	 1.7397	 0.3037	 2.0434	65.8290	99.9580	
  1039	 1.0559	 0.2510	 1.3068	 1.8806	 0.5754	 2.4559	 1.6728	 0.2965	 1.9693	65.8288	99.9569	
  1040	 1.0254	 0.2783	 1.3036	 1.7895	 0.5723	 2.3618	 1.5391	 0.2821	 1.8212	65.6891	99.9559	
  1041	 0.9288	 0.2802	 1.2090	 1.6421	 0.5610	 2.2031	 1.3935	 0.2719	 1.6654	65.5487	99.9531	
  1042	 0.9110	 0.2539	 1.1648	 1.6194	 0.5338	 2.1532	 1.3858	 0.2438	 1.6296	65.5952	99.9521	
  1043	 0.8585	 0.1909	 1.0494	 1.5314	 0.4663	 1.9976	 1.2609	 0.1770	 1.4379	65.4537	99.9523	
  1044	 0.7452	 0.1825	 0.9277	 1.3968	 0.4363	 1.8331	 1.1146	 0.1547	 1.2693	65.3585	99.9507	
  1045	 0.6013	 0.2014	 0.8027	 1.2019	 0.4488	 1.6507	 0.9225	 0.1733	 1.0958	65.1216	99.9477	
  1046	 0.5215	 0.2136	 0.7352	 1.1263	 0.4685	 1.5948	 0.8445	 0.1823	 1.0269	65.0740	99.9489	
  1047	 0.3357	 0.2067	 0.5424	 0.9370	 0.4579	 1.3949	 0.6627	 0.1726	 0.8353	64.9781	99.9482	
  1048	 0.2328	 0.2354	 0.4682	 0.8477	 0.4824	 1.3301	 0.5855	 0.1937	 0.7792	64.9781	99.9482	
  1049	 0.2087	 0.2359	 0.4445	 0.8340	 0.4873	 1.3212	 0.5980	 0.2016	 0.7997	65.0266	99.9473	
  1050	 0.2254	 0.2462	 0.4717	 0.8622	 0.4914	 1.3536	 0.6162	 0.2014	 0.8175	65.0736	99.9483	
  1051	 0.1761	 0.2312	 0.4073	 0.8049	 0.4693	 1.2743	 0.5437	 0.2023	 0.7461	64.9314	99.9472	
  1052	 0.1436	 0.2265	 0.3701	 0.7639	 0.4838	 1.2478	 0.5138	 0.2067	 0.7205	64.8843	99.9477	
  1053	 0.1110	 0.2218	 0.3329	 0.7357	 0.4797	 1.2154	 0.4839	 0.2111	 0.6950	64.8372	99.9475	
  1054	 0.1026	 0.2167	 0.3193	 0.7220	 0.4845	 1.2066	 0.4839	 0.2111	 0.6950	64.8377	99.9472	
  1055	 0.0869	 0.2223	 0.3092	 0.7084	 0.4894	 1.1977	 0.4602	 0.2195	 0.6797	64.7902	99.9477	
  1056	 0.0701	 0.2120	 0.2821	 0.6857	 0.4622	 1.1479	 0.4469	 0.1995	 0.6465	64.8368	99.9457	
  1057	 0.1100	 0.2058	 0.3159	 0.7622	 0.4563	 1.2185	 0.5437	 0.2023	 0.7461	64.9811	99.9457	
  1058	 0.1898	 0.1936	 0.3834	 0.8314	 0.4459	 1.2773	 0.6029	 0.1814	 0.7843	65.0277	99.9465	
  1059	 0.1867	 0.1456	 0.3323	 0.7916	 0.3684	 1.1600	 0.5135	 0.1021	 0.6156	64.9758	99.9463	
  1060	 0.1059	 0.1419	 0.2478	 0.7079	 0.3698	 1.0777	 0.4592	 0.1028	 0.5619	64.9762	99.9448	
  1061	 0.1059	 0.1419	 0.2478	 0.7151	 0.3743	 1.0894	 0.4544	 0.1229	 0.5773	64.8823	99.9451	
  1062	 0.0912	 0.1635	 0.2547	 0.6959	 0.4022	 1.0981	 0.4614	 0.1390	 0.6003	64.9302	99.9444	
  1063	 0.0680	 0.1800	 0.2481	 0.7049	 0.4342	 1.1392	 0.4706	 0.1912	 0.6618	64.8385	99.9455	
  1064	 0.0544	 0.2176	 0.2720	 0.6938	 0.4804	 1.1743	 0.4602	 0.2195	 0.6797	64.8385	99.9470	
  1065	 0.1016	 0.2007	 0.3023	 0.7767	 0.4652	 1.2419	 0.5737	 0.1979	 0.7716	65.0763	99.9474	
  1066	 0.1573	 0.1889	 0.3462	 0.8395	 0.4642	 1.3037	 0.6398	 0.1930	 0.8328	65.1241	99.9482	
  1067	 0.1331	 0.1894	 0.3225	 0.8314	 0.4459	 1.2773	 0.6265	 0.1731	 0.7996	65.2175	99.9484	
  1068	 0.1331	 0.1894	 0.3225	 0.8378	 0.4366	 1.2744	 0.6565	 0.1687	 0.8251	65.3120	99.9467	
  1069	 0.1730	 0.1832	 0.3563	 0.9070	 0.4262	 1.3333	 0.7407	 0.1635	 0.9042	65.4535	99.9468	
  1070	 0.2307	 0.2034	 0.4342	 0.9579	 0.4576	 1.4155	 0.7798	 0.2114	 0.9912	65.3139	99.9467	
  1071	 0.2811	 0.2344	 0.5155	 0.9960	 0.5075	 1.5035	 0.8016	 0.2715	 1.0731	65.1276	99.9473	
  1072	 0.3986	 0.3068	 0.7054	 1.1131	 0.5929	 1.7060	 0.9209	 0.3464	 1.2673	65.1292	99.9483	
  1073	 0.5697	 0.3354	 0.9051	 1.3123	 0.6493	 1.9616	 1.1481	 0.4079	 1.5560	65.2261	99.9490	
  1074	 0.7629	 0.3315	 1.0944	 1.5208	 0.6320	 2.1528	 1.3284	 0.3935	 1.7219	65.3656	99.9504	
  1075	 0.8017	 0.3094	 1.1111	 1.5964	 0.6124	 2.2088	 1.4049	 0.3603	 1.7652	65.5513	99.9527	
  1076	 0.8228	 0.2610	 1.0837	 1.6028	 0.6030	 2.2059	 1.4397	 0.3357	 1.7754	65.5517	99.9530	
  1077	 0.8249	 0.2929	 1.1178	 1.6101	 0.6075	 2.2176	 1.4049	 0.3603	 1.7652	65.4587	99.9533	
  1078	 0.8185	 0.3197	 1.1383	 1.6045	 0.6306	 2.2351	 1.4119	 0.3763	 1.7883	65.5051	99.9529	
  1079	 0.8175	 0.3037	 1.1212	 1.5755	 0.6127	 2.1882	 1.3798	 0.3445	 1.7243	65.5043	99.9524	
  1080	 0.7839	 0.2831	 1.0670	 1.5746	 0.5989	 2.1735	 1.3853	 0.3364	 1.7218	65.5511	99.9535	
  1081	 0.8322	 0.2821	 1.1143	 1.6092	 0.5937	 2.2030	 1.4153	 0.3320	 1.7473	65.5510	99.9529	
  1082	 0.8249	 0.2929	 1.1178	 1.5883	 0.5941	 2.1824	 1.3909	 0.3283	 1.7192	65.5505	99.9523	
  1083	 0.7850	 0.2991	 1.0840	 1.5537	 0.5993	 2.1529	 1.3373	 0.3411	 1.6784	65.4576	99.9531	
  1084	 0.7608	 0.2995	 1.0603	 1.5191	 0.6045	 2.1235	 1.3192	 0.3413	 1.6605	65.4576	99.9523	
  1085	 0.7451	 0.3052	 1.0502	 1.5191	 0.6045	 2.1235	 1.3129	 0.3374	 1.6503	65.5039	99.9532	
  1086	 0.7367	 0.3000	 1.0367	 1.5045	 0.5955	 2.1000	 1.2885	 0.3336	 1.6222	65.4572	99.9531	
  1087	 0.7199	 0.2897	 1.0096	 1.4836	 0.5959	 2.0794	 1.2704	 0.3339	 1.6043	65.4109	99.9532	
  1088	 0.7283	 0.2949	 1.0231	 1.4981	 0.6048	 2.1029	 1.3066	 0.3334	 1.6400	65.5041	99.9529	
  1089	 0.7692	 0.3047	 1.0739	 1.5263	 0.6089	 2.1353	 1.3310	 0.3371	 1.6681	65.5039	99.9524	
  1090	 0.7766	 0.2939	 1.0705	 1.5045	 0.5955	 2.1000	 1.2941	 0.3255	 1.6196	65.4103	99.9517	
  1091	 0.7272	 0.2789	 1.0061	 1.4618	 0.5824	 2.0442	 1.2328	 0.3102	 1.5430	65.3632	99.9532	
  1092	 0.7021	 0.2634	 0.9654	 1.4327	 0.5645	 1.9972	 1.2076	 0.2944	 1.5021	65.3630	99.9526	
  1093	 0.6937	 0.2582	 0.9519	 1.4118	 0.5649	 1.9767	 1.1895	 0.2947	 1.4842	65.3163	99.9521	
  1094	 0.6390	 0.2860	 0.9250	 1.3626	 0.5611	 1.9237	 1.1053	 0.2998	 1.4051	65.2683	99.9525	
  1095	 0.5740	 0.2766	 0.8506	 1.2434	 0.5539	 1.7973	 0.9778	 0.2893	 1.2672	65.0790	99.9508	
  1096	 0.5781	 0.3405	 0.9186	 1.2623	 0.6318	 1.8940	 1.0469	 0.3327	 1.3796	65.2678	99.9512	
  1097	 0.4700	 0.2893	 0.7594	 1.1815	 0.5688	 1.7502	 0.9786	 0.3014	 1.2800	65.2683	99.9496	
  1098	 0.4438	 0.2579	 0.7017	 1.1532	 0.5646	 1.7179	 0.9228	 0.2780	 1.2007	65.1739	99.9531	
  1099	 0.3577	 0.2969	 0.6546	 1.1058	 0.5884	 1.6943	 0.8747	 0.2826	 1.1573	65.3139	99.9552	
  1100	 0.3714	 0.2593	 0.6307	 1.0878	 0.5244	 1.6122	 0.8028	 0.1909	 0.9937	65.3574	99.9568	
  1101	 0.2266	 0.1395	 0.3661	 0.8835	 0.3852	 1.2687	 0.5649	 0.0531	 0.6180	65.2116	99.9552	
  1102	 0.0745	 0.0305	 0.1050	 0.7036	 0.3009	 1.0044	 0.4157	-0.0175	 0.3982	65.0689	99.9528	
  1103	 0.1269	 0.0935	 0.2204	 0.7899	 0.3408	 1.1307	 0.4674	 0.0382	 0.5056	65.0695	99.9543	
  1104	 0.1826	 0.0817	 0.2643	 0.7745	 0.3181	 1.0926	 0.4463	-0.0098	 0.4365	65.0661	99.9523	
  1105	-0.0976	-0.0141	-0.1117	 0.4510	 0.1718	 0.6227	 0.0984	-0.1704	-0.0720	65.0584	99.9503	
  1106	-0.2278	-0.0328	-0.2606	 0.2599	 0.1336	 0.3935	-0.1517	-0.2115	-0.3632	64.7626	99.9502	
  1107	-0.3317	-0.0201	-0.3518	 0.0950	 0.1778	 0.2728	-0.3465	-0.1365	-0.4830	64.1792	99.9488	
  1108	-0.5081	-0.0059	-0.5140	-0.1199	 0.2044	 0.0845	-0.6048	-0.1130	-0.7178	63.7817	99.9502	
  1109	-0.5627	 0.0219	-0.5409	-0.0973	 0.2316	 0.1343	-0.4732	-0.1349	-0.6081	64.4225	99.9504	
  1110	-0.4742	-0.3533	-0.8275	-0.0556	-0.2198	-0.2755	-0.6410	-0.6118	-1.2528	64.5933	99.9574	
  1111	-0.9822	-0.4819	-1.4641	-0.7313	-0.4108	-1.1421	-1.3525	-0.7919	-2.1444	64.0204	99.9486	
  1112	-1.4598	-0.5150	-1.9748	-1.2954	-0.4932	-1.7887	-1.8561	-0.8297	-2.6858	63.6553	99.9354	
  1113	-1.5576	-0.4064	-1.9639	-1.3368	-0.3730	-1.7098	-1.8048	-0.6814	-2.4862	63.7231	99.9312	
  1114	-1.4013	-0.2334	-1.6347	-1.1218	-0.1742	-1.2960	-1.5375	-0.4553	-1.9928	63.7448	99.9307	
  1115	-1.0477	-0.0004	-1.0482	-0.8003	 0.0503	-0.7500	-1.2513	-0.2174	-1.4688	63.5542	99.9298	
  1116	-1.0814	 0.1016	-0.9798	-0.9101	 0.1948	-0.7153	-1.4110	-0.0624	-1.4734	62.8544	99.9307	
  1117	-1.2273	 0.0885	-1.1388	-1.0293	 0.1876	-0.8417	-1.5030	-0.0854	-1.5884	62.9543	99.9319	
  1118	-1.3353	-0.0854	-1.4207	-1.0742	 0.0274	-1.0469	-1.4568	-0.2188	-1.6756	63.3146	99.9282	
  1119	-1.4138	-0.3025	-1.7164	-1.0427	-0.1388	-1.1815	-1.3421	-0.3209	-1.6631	63.5342	99.9272	
  1120	-1.4305	-0.4356	-1.8661	-0.9833	-0.1950	-1.1783	-1.2154	-0.3226	-1.5380	63.5079	99.9276	
  1121	-1.4199	-0.5211	-1.9411	-0.8312	-0.2205	-1.0517	-1.0170	-0.3372	-1.3542	63.8180	99.9349	
  1122	-1.4534	-0.6645	-2.1179	-0.8527	-0.3397	-1.1924	-1.0298	-0.4498	-1.4796	63.8666	99.9358	
  1123	-1.7252	-0.7551	-2.4803	-1.1027	-0.4275	-1.5302	-1.2271	-0.5157	-1.7428	63.8674	99.9324	
  1124	-1.8470	-0.7687	-2.6156	-1.1309	-0.4316	-1.5625	-1.1986	-0.5442	-1.7428	64.2569	99.9359	
  1125	-1.8395	-0.9022	-2.7417	-1.0793	-0.6119	-1.6912	-1.1512	-0.7582	-1.9094	64.8251	99.9381	
  1126	-1.9819	-1.2355	-3.2174	-1.2346	-0.9726	-2.2072	-1.3527	-1.0938	-2.4465	64.9133	99.9370	
  1127	-2.2358	-1.4225	-3.6583	-1.4872	-1.1017	-2.5889	-1.5632	-1.1797	-2.7429	64.6271	99.9348	
  1128	-2.3209	-1.3674	-3.6883	-1.5641	-0.9900	-2.5541	-1.6317	-1.0138	-2.6454	64.1073	99.9342	
  1129	-2.2854	-1.1921	-3.4774	-1.4892	-0.7981	-2.2873	-1.5435	-0.8538	-2.3973	64.1613	99.9385	
  1130	-2.0766	-1.0789	-3.1554	-1.2481	-0.7424	-1.9905	-1.3199	-0.8527	-2.1726	64.6844	99.9416	
  1131	-1.8477	-1.0301	-2.8778	-1.0379	-0.7322	-1.7701	-1.0901	-0.8476	-1.9377	64.9709	99.9378	
  1132	-1.7061	-0.9582	-2.6643	-0.8635	-0.6247	-1.4882	-0.9025	-0.7413	-1.6438	64.9758	99.9405	
  1133	-1.3684	-0.5969	-1.9653	-0.5599	-0.2389	-0.7988	-0.6629	-0.4746	-1.1375	64.9751	99.9506	
  1134	-1.2812	-0.6199	-1.9012	-0.6005	-0.3302	-0.9307	-0.8764	-0.6088	-1.4851	64.7199	99.9534	
  1135	-1.3263	-0.6937	-2.0201	-0.6694	-0.4256	-1.0950	-1.0019	-0.6877	-1.6896	64.5695	99.9536	
  1136	-1.4596	-0.7604	-2.2200	-0.8232	-0.4276	-1.2508	-1.1697	-0.6654	-1.8351	64.0863	99.9550	
  1137	-1.4900	-0.7331	-2.2232	-0.8724	-0.4314	-1.3038	-1.1786	-0.6129	-1.7915	63.9930	99.9475	
  1138	-1.4134	-0.7934	-2.2067	-0.6758	-0.4163	-1.0921	-0.7136	-0.4136	-1.1272	64.0878	99.9295	
  1139	-1.3492	-0.9227	-2.2719	-0.6908	-0.5448	-1.2357	-0.8177	-0.5371	-1.3547	63.7904	99.9305	
  1140	-1.6368	-1.0076	-2.6444	-1.0955	-0.6484	-1.7439	-1.3124	-0.6273	-1.9397	63.1401	99.9280	
  1141	-1.7092	-1.0062	-2.7154	-1.2101	-0.6925	-1.9025	-1.5439	-0.7612	-2.3052	63.2037	99.9369	
  1142	-1.9389	-1.1937	-3.1326	-1.5598	-0.9211	-2.4809	-1.9952	-1.0332	-3.0285	62.9615	99.9375	
  1143	-2.2620	-1.4539	-3.7160	-1.8026	-1.2298	-3.0324	-2.1458	-1.3252	-3.4710	63.6044	99.9320	
  1144	-2.5086	-1.5290	-4.0377	-1.9210	-1.2232	-3.1442	-2.1573	-1.2163	-3.3737	63.3914	99.9296	
  1145	-2.3439	-1.4737	-3.8175	-1.6727	-1.1630	-2.8357	-1.7812	-1.1890	-2.9702	64.1395	99.9285	
  1146	-2.1644	-1.4399	-3.6043	-1.2543	-1.0643	-2.3186	-1.1228	-1.0888	-2.2116	65.2161	99.9296	
  1147	-1.8391	-1.2703	-3.1095	-0.9401	-0.8442	-1.7843	-0.9516	-0.8534	-1.8050	64.6060	99.9397	
  1148	-1.6347	-0.9757	-2.6104	-0.6250	-0.6104	-1.2354	-0.5858	-0.7977	-1.3835	65.8269	99.9496	
  1149	-1.4613	-1.1605	-2.6218	-0.5978	-0.8454	-1.4432	-0.7988	-1.0245	-1.8233	65.3014	99.9532	
  1150	-1.2924	-1.0412	-2.3336	-0.6264	-0.7437	-1.3701	-0.9806	-1.0342	-2.0148	64.9038	99.9576	
  1151	-1.4131	-1.0388	-2.4519	-0.7537	-0.7692	-1.5229	-1.1687	-1.0479	-2.2166	64.7046	99.9588	
  1152	-1.7164	-1.1181	-2.8345	-1.0803	-0.8510	-1.9313	-1.4557	-1.1006	-2.5563	64.5069	99.9543	
  1153	-1.8644	-1.1631	-3.0275	-1.1495	-0.8407	-1.9901	-1.3697	-0.9769	-2.3466	64.3823	99.9455	
  1154	-1.8475	-1.2755	-3.1230	-1.1055	-0.9196	-2.0251	-1.2519	-0.9260	-2.1779	64.1102	99.9359	
  1155	-1.9040	-1.5251	-3.4291	-1.2155	-1.2259	-2.4414	-1.4368	-1.2860	-2.7228	64.4261	99.9381	
  1156	-2.1621	-1.6533	-3.8154	-1.4006	-1.3929	-2.7936	-1.5947	-1.5014	-3.0961	65.0020	99.9413	
  1157	-2.1904	-1.7168	-3.9072	-1.2596	-1.3723	-2.6319	-1.1300	-1.4067	-2.5367	65.6848	99.9296	
  1158	-1.6489	-1.4449	-3.0938	-0.5663	-1.0115	-1.5778	-0.4123	-1.0254	-1.4378	65.7821	99.9395	
  1159	-1.2230	-1.0906	-2.3136	-0.0811	-0.7391	-0.8202	 0.0029	-0.9503	-0.9474	66.8006	99.9535	
  1160	-0.9793	-1.3089	-2.2881	 0.0802	-1.0638	-0.9836	-0.0264	-1.2357	-1.2622	66.7642	99.9530	
  1161	-0.8997	-1.0757	-1.9754	 0.1060	-0.8757	-0.7697	-0.2493	-1.2248	-1.4741	66.7300	99.9695	
  1162	-1.1012	-1.1997	-2.3009	-0.1680	-0.8986	-1.0666	-0.2922	-1.1357	-1.4279	66.2504	99.9545	
  1163	-1.0728	-1.2590	-2.3317	-0.2005	-0.9717	-1.1721	-0.4310	-1.2346	-1.6656	66.0624	99.9581	
  1164	-1.3300	-1.2485	-2.5785	-0.4090	-0.9544	-1.3634	-0.5952	-1.1519	-1.7471	65.8249	99.9549	
  1165	-1.2440	-1.1649	-2.4088	-0.3029	-0.8228	-1.1257	-0.4121	-0.9208	-1.3328	65.4506	99.9483	
  1166	-1.2648	-1.3618	-2.6266	-0.3467	-1.0750	-1.4217	-0.3856	-1.1828	-1.5684	66.0142	99.9410	
  1167	-1.4240	-1.7054	-3.1294	-0.4947	-1.4312	-1.9260	-0.5159	-1.4388	-1.9547	65.9672	99.9329	
  1168	-1.6255	-1.8294	-3.4549	-0.5418	-1.5132	-2.0550	-0.3680	-1.5897	-1.9576	66.9448	99.9359	
  1169	-1.2602	-1.7887	-3.0489	-0.0768	-1.4521	-1.5289	 0.1197	-1.5154	-1.3957	67.3036	99.9397	
  1170	-1.0503	-1.6595	-2.7099	 0.1002	-1.3033	-1.2031	 0.2482	-1.3882	-1.1400	67.1196	99.9433	
  1171	-0.8751	-1.5670	-2.4421	 0.3194	-1.2610	-0.9416	 0.4500	-1.4472	-0.9972	67.8128	99.9497	
  1172	-0.6556	-1.6621	-2.3177	 0.4544	-1.3369	-0.8825	 0.4198	-1.5475	-1.1277	67.4570	99.9567	
  1173	-0.7589	-1.2652	-2.0241	 0.2371	-0.9009	-0.6637	 0.3234	-1.1436	-0.8202	66.9890	99.9489	
  1174	-0.6182	-1.2094	-1.8276	 0.3846	-0.8896	-0.5050	 0.3123	-1.1274	-0.8151	66.8079	99.9554	
  1175	-0.6760	-1.2296	-1.9055	 0.3837	-0.9034	-0.5196	 0.3485	-1.1278	-0.7793	66.9444	99.9555	
  1176	-0.6696	-1.2564	-1.9260	 0.4529	-0.9137	-0.4608	 0.4760	-1.1174	-0.6414	67.1236	99.9548	
  1177	-0.5804	-1.2475	-1.8279	 0.5294	-0.9196	-0.3902	 0.5163	-1.1501	-0.6339	67.2189	99.9568	
  1178	-0.6234	-1.2893	-1.9127	 0.4632	-0.9737	-0.5105	 0.4221	-1.2093	-0.7872	67.1767	99.9570	
  1179	-0.6832	-1.3414	-2.0246	 0.3905	-1.0185	-0.6280	 0.3663	-1.2327	-0.8664	67.0836	99.9549	
  1180	-0.6988	-1.4585	-2.1573	 0.4400	-1.1205	-0.6805	 0.5242	-1.3193	-0.7952	67.4914	99.9518	
  1181	-0.7909	-1.7608	-2.5517	 0.4112	-1.4696	-1.0584	 0.6005	-1.6545	-1.0540	68.2701	99.9460	
  1182	-0.9282	-2.0141	-2.9423	 0.2555	-1.7245	-1.4690	 0.4174	-1.8857	-1.4682	68.2342	99.9451	
  1183	-0.9155	-2.0677	-2.9832	 0.3294	-1.7717	-1.4423	 0.5504	-1.8833	-1.3329	68.3578	99.9419	
  1184	-0.7403	-1.9752	-2.7155	 0.5256	-1.6509	-1.1252	 0.7646	-1.7371	-0.9725	68.2530	99.9418	
  1185	-0.4916	-1.8681	-2.3597	 0.7684	-1.5676	-0.7992	 0.9667	-1.6914	-0.7247	68.4369	99.9449	
  1186	-0.4014	-1.8432	-2.2446	 0.8475	-1.5321	-0.6847	 1.0587	-1.6684	-0.6097	68.4798	99.9448	
  1187	-0.2796	-1.8297	-2.1092	 0.9650	-1.5525	-0.5875	 1.1581	-1.7221	-0.5639	68.7582	99.9459	
  1188	-0.2575	-1.8621	-2.1196	 0.9978	-1.5852	-0.5874	 1.1811	-1.7425	-0.5614	68.7571	99.9462	
  1189	-0.2669	-1.8833	-2.1502	 0.9760	-1.5987	-0.6226	 1.1740	-1.7585	-0.5845	68.7571	99.9454	
  1190	-0.2512	-1.8889	-2.1401	 1.0380	-1.6135	-0.5755	 1.2520	-1.7676	-0.5155	68.9325	99.9458	
  1191	-0.1871	-1.8955	-2.0827	 1.1017	-1.6008	-0.4991	 1.3196	-1.7483	-0.4287	68.8825	99.9461	
  1192	-0.1462	-1.8857	-2.0319	 1.1235	-1.5874	-0.4639	 1.3266	-1.7323	-0.4057	68.7935	99.9460	
  1193	-0.1620	-1.8800	-2.0420	 1.1171	-1.5781	-0.4610	 1.3093	-1.7200	-0.4107	68.7478	99.9471	
  1194	-0.1693	-1.8692	-2.0385	 1.1316	-1.5691	-0.4375	 1.3281	-1.7082	-0.3801	68.7903	99.9476	
  1195	-0.1273	-1.8434	-1.9707	 1.1688	-1.5329	-0.3641	 1.3602	-1.6764	-0.3161	68.7437	99.9484	
  1196	-0.0854	-1.8175	-1.9029	 1.1906	-1.5195	-0.3289	 1.3672	-1.6603	-0.2931	68.7012	99.9476	
  1197	-0.0528	-1.8128	-1.8657	 1.2543	-1.5068	-0.2525	 1.4648	-1.6455	-0.1807	68.8285	99.9474	
  1198	 0.0605	-1.8044	-1.7439	 1.3662	-1.5041	-0.1379	 1.5797	-1.6429	-0.0633	68.9161	99.9468	
  1199	 0.1025	-1.7786	-1.6761	 1.4171	-1.4727	-0.0556	 1.6473	-1.6237	 0.0236	69.0024	99.9473	
  1200	 0.1256	-1.7951	-1.6695	 1.4291	-1.5051	-0.0761	 1.6458	-1.6478	-0.0020	69.0057	99.9463	
  1201	 0.1246	-1.8111	-1.6865	 1.4419	-1.5238	-0.0819	 1.6562	-1.6761	-0.0200	69.0965	99.9474	
  1202	 0.1235	-1.8270	-1.7035	 1.4474	-1.5469	-0.0994	 1.6381	-1.6759	-0.0378	69.0069	99.9473	
  1203	 0.1235	-1.8270	-1.7035	 1.4265	-1.5465	-0.1200	 1.6311	-1.6919	-0.0609	69.0545	99.9466	
  1204	 0.1487	-1.8115	-1.6628	 1.4637	-1.5103	-0.0467	 1.7182	-1.6488	 0.0695	69.0884	99.9450	
  1205	 0.3166	-1.7082	-1.3916	 1.6607	-1.3757	 0.2850	 1.9645	-1.4708	 0.4938	68.9746	99.9425	
  1206	 0.6323	-1.4371	-0.8048	 2.0301	-1.0554	 0.9747	 2.3840	-1.1259	 1.2582	68.8520	99.9431	
  1207	 1.2513	-0.9640	 0.2873	 2.5175	-0.6359	 1.8816	 2.7130	-0.7798	 1.9332	68.6008	99.9475	
  1208	 1.6658	-0.7855	 0.8802	 2.8047	-0.5119	 2.2928	 2.8231	-0.7571	 2.0660	68.5857	99.9543	
  1209	 1.5650	-0.8475	 0.7175	 2.4867	-0.6813	 1.8054	 2.3824	-0.9527	 1.4297	68.3144	99.9479	
  1210	 1.4895	-0.8940	 0.5955	 2.4422	-0.7220	 1.7202	 2.3935	-0.9690	 1.4245	68.3983	99.9452	
  1211	 1.8842	-0.8966	 0.9876	 2.8857	-0.7801	 2.1057	 2.9200	-0.9516	 1.9684	68.8739	99.9348	
  1212	 1.4709	-1.1818	 0.2891	 2.5011	-0.8977	 1.6034	 2.7223	-0.9249	 1.7974	68.1670	99.9241	
  1213	 1.5672	-0.9383	 0.6290	 2.9290	-0.6474	 2.2816	 3.3090	-0.8117	 2.4973	69.6250	99.9410	
  1214	 2.2496	-0.9786	 1.2711	 3.4630	-0.8220	 2.6410	 3.5790	-1.1413	 2.4377	70.2757	99.9510	
  1215	 1.5296	-1.1456	 0.3840	 2.8157	-0.7835	 2.0322	 3.0398	-0.9693	 2.0705	69.0820	99.9505	
  1216	 1.6744	-1.0258	 0.6486	 2.9456	-0.7167	 2.2289	 3.0441	-0.8968	 2.1473	68.9178	99.9538	
  1217	 1.4634	-1.0482	 0.4152	 2.7490	-0.7318	 2.0173	 2.8310	-0.9263	 1.9047	68.8357	99.9563	
  1218	 1.3280	-1.0242	 0.3038	 2.6123	-0.6834	 1.9289	 2.6466	-0.8796	 1.7669	68.5283	99.9597	
  1219	 1.1536	-0.9780	 0.1756	 2.3965	-0.6706	 1.7259	 2.3791	-0.9084	 1.4707	68.4566	99.9613	
  1220	 0.7465	-1.1673	-0.4208	 1.8503	-0.9143	 0.9359	 1.7836	-1.1665	 0.6172	68.2190	99.9568	
  1221	 0.2712	-1.4139	-1.1427	 1.4814	-1.1151	 0.3663	 1.6182	-1.3052	 0.3130	68.4714	99.9496	
  1222	 0.3983	-1.5658	-1.1674	 1.6753	-1.3667	 0.3085	 1.7991	-1.6095	 0.1896	69.4345	99.9515	
  1223	 0.1185	-2.0297	-1.9112	 1.2344	-1.8238	-0.5894	 1.3301	-1.9739	-0.6438	68.8734	99.9404	
  1224	-0.1452	-1.8697	-2.0149	 0.9769	-1.5849	-0.6080	 1.0129	-1.6276	-0.6147	67.6711	99.9417	
