OxySoft export of:	C:\Users\TO3 TechSupport\Documents\Train2Adapt\T2A_41
Export date:	2022/09/16 00:08:40
Start of measurement:	2022-09-15 23:02:23.768

Datafile sample rate:	10.00	Hz
Datafile duration:	3438.400	s
Datafile total number of samples:	34384

Description:	

Optode-template:	PortaMon TSI Fit Factor
Optode distance (mm):	 35.00
Optode gradients (mm):	 5.00
DPF:	6.23

Device id:	334
# Receivers:	1
# Light sources:	6
# ADC:	2

Light source wavelengths:
device	index	wavelength
1	1	849	nm
1	2	759	nm
1	3	846	nm
1	4	757	nm
1	5	848	nm
1	6	757	nm

Export sample rate:	10.00	Hz
Selected time span:	0	3438.400
Selected time span (sample numbers):	0	34384


Legend:
Column	Trace (Measurement)
1	(Sample number)
2	Rx1-Tx1 O2Hb (T2A_41)
3	Rx1-Tx1 HHb (T2A_41)
4	Rx1-Tx1 tHb (T2A_41)
5	Rx1-Tx2 O2Hb (T2A_41)
6	Rx1-Tx2 HHb (T2A_41)
7	Rx1-Tx2 tHb (T2A_41)
8	Rx1-Tx3 O2Hb (T2A_41)
9	Rx1-Tx3 HHb (T2A_41)
10	Rx1-Tx3 tHb (T2A_41)
11	Rx1-Tx1,Tx2,Tx3 TSI% (T2A_41)
12	Rx1-Tx1,Tx2,Tx3 TSI Fit Factor (T2A_41)
13	(Event)


1	2	3	4	5	6	7	8	9	10	11	12	13
     0	122.0228	58.7136	180.7365	97.0174	46.9653	143.9827	78.1927	41.5124	119.7050	11.5652	98.7634	
     1	-0.2969	-0.2276	-0.5245	-0.3543	-0.2311	-0.5854	-0.3107	-0.1840	-0.4948	57.4544	99.9977	
     2	-0.2316	-0.1874	-0.4190	-0.3102	-0.1781	-0.4884	-0.2518	-0.1808	-0.4327	57.5688	99.9973	
     3	-0.2123	-0.1307	-0.3429	-0.2059	-0.1396	-0.3455	-0.1526	-0.0959	-0.2487	57.6416	99.9978	
     4	 0.0000	 0.0000	 0.0000	 0.0831	 0.0255	 0.1086	 0.1135	 0.1278	 0.2412	57.5051	99.9982	
     5	 0.3329	 0.0556	 0.3885	 0.3382	-0.2428	 0.0954	 0.0259	-0.4468	-0.4210	58.7012	99.9964	
     6	-0.7235	-0.5200	-1.2435	-0.8666	-0.5982	-1.4648	-0.8655	-0.4197	-1.2852	56.9069	99.9976	
     7	-0.1952	 0.1337	-0.0615	 0.0741	 0.3164	 0.3906	 0.3494	 0.4341	 0.7835	57.7725	99.9973	
     8	 0.5635	 0.2275	 0.7910	 0.5396	 0.1520	 0.6916	 0.4033	 0.0614	 0.4645	57.9618	99.9968	
     9	 0.1164	-0.0179	 0.0986	 0.0814	-0.0013	 0.0801	 0.0766	 0.0029	 0.0794	57.5613	99.9974	
    10	 0.0123	-0.0521	-0.0398	-0.0238	-0.0532	-0.0770	-0.0401	-0.0817	-0.1220	57.6547	99.9972	
    11	-0.0918	-0.0864	-0.1782	-0.1273	-0.0783	-0.2056	-0.1451	-0.0686	-0.2138	57.4597	99.9975	
    12	-0.1225	-0.0754	-0.1978	-0.1327	-0.0559	-0.1885	-0.1322	-0.0492	-0.1815	57.5119	99.9974	
    13	-0.0653	-0.0402	-0.1055	-0.0761	-0.0210	-0.0972	-0.0542	-0.0228	-0.0771	57.6002	99.9973	
    14	-0.0082	-0.0050	-0.0132	-0.0142	-0.0087	-0.0228	-0.0107	 0.0158	 0.0050	57.5639	99.9977	
    15	-0.0163	-0.0100	-0.0263	-0.0478	-0.0036	-0.0515	-0.0312	-0.0309	-0.0622	57.6676	99.9972	
    16	-0.0326	-0.0201	-0.0527	-0.0346	-0.0083	-0.0429	-0.0122	-0.0077	-0.0199	57.6442	99.9974	
    17	 0.0480	 0.0146	 0.0626	 0.0557	 0.0215	 0.0771	 0.0766	 0.0029	 0.0794	57.7659	99.9972	
    18	 0.0552	 0.0041	 0.0593	 0.0673	-0.0100	 0.0572	 0.0238	 0.0036	 0.0273	57.5949	99.9977	
    19	 0.0163	 0.0101	 0.0264	 0.0274	 0.0041	 0.0314	 0.0223	-0.0199	 0.0024	57.7532	99.9973	
    20	 0.0000	 0.0000	 0.0000	-0.0000	 0.0000	 0.0000	 0.0001	-0.0000	-0.0001	57.6390	99.9975	
    21	 0.0480	 0.0146	 0.0626	 0.0407	-0.0006	 0.0400	 0.0346	-0.0122	 0.0223	57.7117	99.9975	
    22	 0.0163	 0.0101	 0.0264	-0.0000	 0.0000	 0.0000	-0.0122	-0.0077	-0.0199	57.6287	99.9975	
    23	-0.0316	-0.0045	-0.0362	-0.0495	-0.0304	-0.0800	-0.0441	-0.0503	-0.0946	57.7404	99.9975	
    24	-0.0551	-0.0041	-0.0592	-0.0877	 0.0105	-0.0773	-0.0542	-0.0228	-0.0771	57.6702	99.9970	
    25	-0.0235	 0.0005	-0.0230	-0.0478	-0.0036	-0.0515	 0.0033	-0.0431	-0.0399	57.8310	99.9971	
    26	 0.0255	 0.0306	 0.0562	 0.0424	 0.0262	 0.0685	 0.0421	 0.0151	 0.0571	57.7220	99.9974	
    27	 0.0572	 0.0352	 0.0924	 0.0565	 0.0349	 0.0914	 0.0536	 0.0111	 0.0645	57.7168	99.9972	
    28	 0.0572	 0.0352	 0.0924	 0.0432	 0.0396	 0.0828	 0.0428	 0.0269	 0.0696	57.6390	99.9973	
    29	 0.0418	 0.0407	 0.0825	 0.0424	 0.0262	 0.0685	 0.0191	 0.0232	 0.0422	57.6339	99.9976	
    30	 0.0255	 0.0306	 0.0562	 0.0282	 0.0175	 0.0457	 0.0353	-0.0005	 0.0347	57.7557	99.9974	
    31	 0.0255	 0.0306	 0.0562	 0.0016	 0.0269	 0.0285	 0.0116	-0.0041	 0.0074	57.7091	99.9972	
    32	 0.0010	 0.0156	 0.0166	-0.0266	 0.0094	-0.0172	-0.0129	-0.0194	-0.0324	57.7066	99.9972	
    33	-0.0388	 0.0060	-0.0328	-0.0753	-0.0076	-0.0829	-0.0549	-0.0345	-0.0896	57.7014	99.9973	
    34	-0.0633	-0.0091	-0.0724	-0.1036	-0.0250	-0.1286	-0.0739	-0.0578	-0.1318	57.7378	99.9973	
    35	-0.0551	-0.0041	-0.0592	-0.0886	-0.0029	-0.0915	-0.0671	-0.0422	-0.1094	57.7014	99.9971	
    36	-0.0470	 0.0010	-0.0460	-0.0620	-0.0123	-0.0743	-0.0441	-0.0503	-0.0946	57.7819	99.9972	
    37	-0.0388	 0.0060	-0.0328	-0.0744	 0.0058	-0.0687	-0.0542	-0.0228	-0.0771	57.6650	99.9972	
    38	-0.0306	 0.0110	-0.0196	-0.0478	-0.0036	-0.0515	-0.0312	-0.0309	-0.0622	57.7455	99.9973	
    39	-0.0388	 0.0060	-0.0328	-0.0611	 0.0011	-0.0601	-0.0434	-0.0386	-0.0821	57.7429	99.9971	
    40	-0.0694	 0.0170	-0.0525	-0.0886	-0.0029	-0.0915	-0.0549	-0.0345	-0.0896	57.7845	99.9973	
    41	-0.0776	 0.0120	-0.0657	-0.1019	 0.0018	-0.1001	-0.0671	-0.0422	-0.1094	57.7819	99.9971	
    42	-0.0848	 0.0225	-0.0623	-0.1143	 0.0199	-0.0945	-0.0549	-0.0345	-0.0896	57.8259	99.9969	
    43	-0.0694	 0.0170	-0.0525	-0.1010	 0.0152	-0.0859	-0.0819	 0.0050	-0.0770	57.5897	99.9974	
    44	-0.0766	 0.0275	-0.0491	-0.0877	 0.0105	-0.0773	-0.0542	-0.0228	-0.0771	57.7870	99.9973	
    45	-0.0460	 0.0165	-0.0294	-0.0541	 0.0054	-0.0486	-0.0474	-0.0072	-0.0547	57.6702	99.9974	
    46	-0.0623	 0.0065	-0.0558	-0.0744	 0.0058	-0.0687	-0.0542	-0.0228	-0.0771	57.7091	99.9972	
    47	-0.0694	 0.0170	-0.0525	-0.0877	 0.0105	-0.0773	-0.0657	-0.0187	-0.0845	57.7066	99.9972	
    48	-0.0541	 0.0115	-0.0426	-0.1010	 0.0152	-0.0859	-0.0549	-0.0345	-0.0896	57.7429	99.9969	
    49	-0.0541	 0.0115	-0.0426	-0.0877	 0.0105	-0.0773	-0.0549	-0.0345	-0.0896	57.7429	99.9970	
    50	-0.0613	 0.0220	-0.0393	-0.0877	 0.0105	-0.0773	-0.0542	-0.0228	-0.0771	57.7455	99.9972	
    51	-0.0694	 0.0170	-0.0525	-0.1019	 0.0018	-0.1001	-0.0779	-0.0264	-0.1044	57.7014	99.9973	
    52	-0.0848	 0.0225	-0.0623	-0.1152	 0.0065	-0.1087	-0.0671	-0.0422	-0.1094	57.8209	99.9971	
    53	-0.0929	 0.0174	-0.0755	-0.1285	 0.0112	-0.1173	-0.0901	-0.0341	-0.1243	57.7404	99.9971	
    54	-0.1083	 0.0229	-0.0853	-0.1160	-0.0069	-0.1230	-0.0671	-0.0422	-0.1094	57.8649	99.9973	
    55	-0.0776	 0.0120	-0.0657	-0.1019	 0.0018	-0.1001	-0.0779	-0.0264	-0.1044	57.7040	99.9973	
    56	-0.0848	 0.0225	-0.0623	-0.1152	 0.0065	-0.1087	-0.0901	-0.0341	-0.1243	57.7378	99.9972	
    57	-0.0929	 0.0174	-0.0755	-0.1285	 0.0112	-0.1173	-0.1016	-0.0300	-0.1318	57.6988	99.9971	
    58	-0.1011	 0.0124	-0.0887	-0.1293	-0.0022	-0.1316	-0.0854	-0.0537	-0.1393	57.8183	99.9971	
    59	-0.1164	 0.0179	-0.0985	-0.1426	 0.0025	-0.1402	-0.0977	-0.0614	-0.1592	57.8548	99.9969	
    60	-0.1327	 0.0079	-0.1249	-0.1701	-0.0016	-0.1716	-0.1329	-0.0610	-0.1939	57.7717	99.9969	
    61	-0.1338	-0.0077	-0.1414	-0.1850	-0.0237	-0.2087	-0.1451	-0.0686	-0.2138	57.7301	99.9971	
    62	-0.1797	 0.0088	-0.1709	-0.1992	-0.0324	-0.2315	-0.1796	-0.0564	-0.2361	57.7301	99.9975	
    63	-0.1736	-0.0173	-0.1908	-0.2133	-0.0411	-0.2544	-0.1749	-0.0761	-0.2511	57.7301	99.9973	
    64	-0.1582	-0.0228	-0.1810	-0.1992	-0.0324	-0.2315	-0.1634	-0.0801	-0.2437	57.7301	99.9971	
    65	-0.1511	-0.0333	-0.1844	-0.1992	-0.0324	-0.2315	-0.1526	-0.0959	-0.2487	57.7691	99.9968	
    66	-0.1736	-0.0173	-0.1908	-0.2125	-0.0277	-0.2401	-0.1749	-0.0761	-0.2511	57.7301	99.9971	
    67	-0.1817	-0.0223	-0.2040	-0.2266	-0.0364	-0.2630	-0.1763	-0.0996	-0.2760	57.8056	99.9969	
    68	-0.1817	-0.0223	-0.2040	-0.2266	-0.0364	-0.2630	-0.1763	-0.0996	-0.2760	57.8056	99.9969	
    69	-0.1971	-0.0168	-0.2139	-0.2399	-0.0317	-0.2716	-0.1879	-0.0955	-0.2834	57.8056	99.9969	
    70	-0.2052	-0.0218	-0.2270	-0.2603	-0.0313	-0.2916	-0.1879	-0.0955	-0.2834	57.8082	99.9969	
    71	-0.2052	-0.0218	-0.2270	-0.2603	-0.0313	-0.2916	-0.2109	-0.0874	-0.2983	57.7250	99.9970	
    72	-0.2134	-0.0268	-0.2402	-0.2744	-0.0401	-0.3145	-0.2001	-0.1032	-0.3033	57.8056	99.9969	
    73	-0.1981	-0.0323	-0.2304	-0.2470	-0.0360	-0.2830	-0.1879	-0.0955	-0.2834	57.7691	99.9969	
    74	-0.1899	-0.0273	-0.2172	-0.2266	-0.0364	-0.2630	-0.1763	-0.0996	-0.2760	57.8082	99.9969	
    75	-0.1971	-0.0168	-0.2139	-0.2204	-0.0454	-0.2658	-0.1763	-0.0996	-0.2760	57.8472	99.9971	
    76	-0.1971	-0.0168	-0.2139	-0.2532	-0.0270	-0.2802	-0.1763	-0.0996	-0.2760	57.8472	99.9968	
    77	-0.2124	-0.0113	-0.2237	-0.2337	-0.0407	-0.2744	-0.1763	-0.0996	-0.2760	57.8887	99.9971	
    78	-0.2124	-0.0113	-0.2237	-0.2399	-0.0317	-0.2716	-0.1763	-0.0996	-0.2760	57.8887	99.9969	
    79	-0.2124	-0.0113	-0.2237	-0.2532	-0.0270	-0.2802	-0.1986	-0.0797	-0.2784	57.7691	99.9970	
    80	-0.2124	-0.0113	-0.2237	-0.2532	-0.0270	-0.2802	-0.1986	-0.0797	-0.2784	57.7691	99.9970	
    81	-0.2277	-0.0058	-0.2335	-0.2603	-0.0313	-0.2916	-0.1986	-0.0797	-0.2784	57.8107	99.9972	
    82	-0.2277	-0.0058	-0.2335	-0.2736	-0.0266	-0.3002	-0.1879	-0.0955	-0.2834	57.8887	99.9969	
    83	-0.2042	-0.0063	-0.2105	-0.2391	-0.0183	-0.2573	-0.1641	-0.0919	-0.2561	57.8913	99.9968	
    84	-0.1889	-0.0118	-0.2007	-0.2258	-0.0230	-0.2487	-0.1641	-0.0919	-0.2561	57.8497	99.9968	
    85	-0.2032	 0.0093	-0.1939	-0.2258	-0.0230	-0.2487	-0.1641	-0.0919	-0.2561	57.9278	99.9970	
    86	-0.2042	-0.0063	-0.2105	-0.2399	-0.0317	-0.2716	-0.1763	-0.0996	-0.2760	57.8862	99.9970	
    87	-0.2124	-0.0113	-0.2237	-0.2470	-0.0360	-0.2830	-0.1763	-0.0996	-0.2760	57.8887	99.9970	
    88	-0.2359	-0.0108	-0.2467	-0.2744	-0.0401	-0.3145	-0.2008	-0.1149	-0.3158	57.9227	99.9969	
    89	-0.2440	-0.0159	-0.2599	-0.3010	-0.0307	-0.3317	-0.2238	-0.1068	-0.3307	57.8421	99.9968	
    90	-0.2522	-0.0209	-0.2731	-0.3027	-0.0575	-0.3602	-0.2583	-0.0946	-0.3530	57.7198	99.9973	
    91	-0.2675	-0.0154	-0.2829	-0.3027	-0.0575	-0.3602	-0.2421	-0.1183	-0.3605	57.8787	99.9972	
    92	-0.2369	-0.0264	-0.2633	-0.3010	-0.0307	-0.3317	-0.2116	-0.0991	-0.3108	57.8082	99.9968	
    93	-0.2205	-0.0163	-0.2369	-0.2470	-0.0360	-0.2830	-0.2001	-0.1032	-0.3033	57.8447	99.9969	
    94	-0.2287	-0.0214	-0.2501	-0.2611	-0.0448	-0.3059	-0.2001	-0.1032	-0.3033	57.8472	99.9970	
    95	-0.2440	-0.0159	-0.2599	-0.2877	-0.0354	-0.3231	-0.2238	-0.1068	-0.3307	57.8421	99.9969	
    96	-0.2450	-0.0314	-0.2764	-0.3027	-0.0575	-0.3602	-0.2313	-0.1341	-0.3655	57.8761	99.9969	
    97	-0.2685	-0.0309	-0.2995	-0.3027	-0.0575	-0.3602	-0.2353	-0.1027	-0.3381	57.8082	99.9972	
    98	-0.2430	-0.0003	-0.2433	-0.2532	-0.0270	-0.2802	-0.1749	-0.0761	-0.2511	57.8988	99.9972	
    99	-0.2195	-0.0008	-0.2203	-0.2665	-0.0223	-0.2888	-0.1879	-0.0955	-0.2834	57.8862	99.9969	
   100	-0.2828	-0.0099	-0.2927	-0.3293	-0.0481	-0.3774	-0.2428	-0.1300	-0.3729	57.9568	99.9969	
   101	-0.3083	-0.0405	-0.3489	-0.3788	-0.0786	-0.4573	-0.2971	-0.1528	-0.4500	57.8685	99.9969	
   102	-0.3012	-0.0510	-0.3522	-0.3788	-0.0786	-0.4573	-0.2971	-0.1528	-0.4500	57.8294	99.9969	
   103	-0.3083	-0.0405	-0.3489	-0.3310	-0.0749	-0.4058	-0.2665	-0.1336	-0.4003	57.8812	99.9971	
   104	-0.2604	-0.0259	-0.2863	-0.3018	-0.0441	-0.3459	-0.2238	-0.1068	-0.3307	57.8472	99.9969	
   105	-0.2277	-0.0058	-0.2335	-0.2362	-0.0810	-0.3172	-0.2626	-0.1650	-0.4277	57.9317	99.9971	
   106	-0.4635	-0.1360	-0.5995	-0.5625	-0.1918	-0.7543	-0.5256	-0.2400	-0.7657	57.6365	99.9973	
   107	-0.5931	-0.2009	-0.7940	-0.6765	-0.2749	-0.9513	-0.6024	-0.3447	-0.9472	57.8671	99.9972	
   108	-0.6523	-0.2672	-0.9194	-0.7397	-0.4169	-1.1567	-0.7429	-0.4330	-1.1760	57.7524	99.9980	
   109	-0.7809	-0.3165	-1.0974	-0.8786	-0.4638	-1.3424	-0.8798	-0.4625	-1.3425	57.6234	99.9980	
   110	-0.8503	-0.2995	-1.1499	-0.9160	-0.4095	-1.3255	-0.8777	-0.4273	-1.3051	57.6839	99.9978	
   111	-0.7850	-0.2593	-1.0443	-0.8444	-0.3525	-1.1970	-0.7983	-0.3774	-1.1758	57.6969	99.9977	
   112	-0.6819	-0.2406	-0.9225	-0.7684	-0.3315	-1.0998	-0.7271	-0.3666	-1.0938	57.6943	99.9976	
   113	-0.6594	-0.2566	-0.9161	-0.7638	-0.3673	-1.1311	-0.7415	-0.4095	-1.1511	57.7181	99.9976	
   114	-0.6931	-0.2923	-0.9854	-0.8017	-0.4293	-1.2310	-0.7971	-0.4558	-1.2530	57.7050	99.9979	
   115	-0.7401	-0.2914	-1.0314	-0.8283	-0.4199	-1.2482	-0.8187	-0.4242	-1.2430	57.6365	99.9980	
   116	-0.6747	-0.2512	-0.9259	-0.7771	-0.3626	-1.1397	-0.7631	-0.3779	-1.1410	57.6023	99.9978	
   117	-0.7146	-0.2607	-0.9753	-0.8187	-0.3753	-1.1940	-0.8004	-0.4127	-1.2132	57.6734	99.9977	
   118	-0.8105	-0.2900	-1.1005	-0.8823	-0.4145	-1.2968	-0.8547	-0.4355	-1.2902	57.7181	99.9979	
   119	-0.7625	-0.2753	-1.0379	-0.8407	-0.4018	-1.2425	-0.8119	-0.4086	-1.2206	57.6839	99.9979	
   120	-0.7227	-0.2658	-0.9885	-0.8274	-0.4065	-1.2339	-0.7842	-0.4364	-1.2207	57.7944	99.9977	
   121	-0.6829	-0.2562	-0.9391	-0.7646	-0.3807	-1.1454	-0.7631	-0.3779	-1.1410	57.6050	99.9980	
   122	-0.6421	-0.2310	-0.8731	-0.7401	-0.3140	-1.0541	-0.7081	-0.3434	-1.0515	57.6155	99.9976	
   123	-0.6737	-0.2356	-0.9093	-0.7559	-0.3496	-1.1055	-0.7163	-0.3824	-1.0988	57.7705	99.9977	
   124	-0.6574	-0.2256	-0.8830	-0.7418	-0.3409	-1.0826	-0.6926	-0.3788	-1.0715	57.8125	99.9976	
   125	-0.6268	-0.2365	-0.8633	-0.7497	-0.3586	-1.1083	-0.7055	-0.3982	-1.1039	57.7601	99.9975	
   126	-0.6666	-0.2461	-0.9127	-0.7646	-0.3807	-1.1454	-0.7415	-0.4095	-1.1511	57.7575	99.9978	
   127	-0.6911	-0.2612	-0.9523	-0.7929	-0.3982	-1.1911	-0.7882	-0.4050	-1.1933	57.6339	99.9980	
   128	-0.6982	-0.2507	-0.9489	-0.8054	-0.3800	-1.1854	-0.7645	-0.4014	-1.1659	57.7207	99.9977	
   129	-0.6972	-0.2351	-0.9324	-0.8045	-0.3666	-1.1712	-0.7645	-0.4014	-1.1659	57.7575	99.9977	
   130	-0.6747	-0.2512	-0.9259	-0.7912	-0.3713	-1.1626	-0.7530	-0.4054	-1.1585	57.7181	99.9976	
   131	-0.6747	-0.2512	-0.9259	-0.7779	-0.3760	-1.1540	-0.7415	-0.4095	-1.1511	57.7601	99.9977	
   132	-0.6737	-0.2356	-0.9093	-0.7896	-0.3445	-1.1341	-0.7293	-0.4018	-1.1312	57.8022	99.9974	
   133	-0.6502	-0.2361	-0.8863	-0.7763	-0.3492	-1.1255	-0.7400	-0.3860	-1.1262	57.6786	99.9976	
   134	-0.6574	-0.2256	-0.8830	-0.7692	-0.3449	-1.1141	-0.7055	-0.3982	-1.1039	57.8442	99.9974	
   135	-0.6737	-0.2356	-0.9093	-0.7771	-0.3626	-1.1397	-0.7400	-0.3860	-1.1262	57.7233	99.9977	
   136	-0.6727	-0.2201	-0.8928	-0.7692	-0.3449	-1.1141	-0.7393	-0.3743	-1.1137	57.7233	99.9977	
   137	-0.6717	-0.2045	-0.8762	-0.7817	-0.3268	-1.1084	-0.7271	-0.3666	-1.0938	57.7653	99.9975	
   138	-0.6717	-0.2045	-0.8762	-0.7817	-0.3268	-1.1084	-0.7163	-0.3824	-1.0988	57.8442	99.9974	
   139	-0.6646	-0.2150	-0.8796	-0.7684	-0.3315	-1.0998	-0.7156	-0.3707	-1.0864	57.7679	99.9976	
   140	-0.6411	-0.2155	-0.8566	-0.7542	-0.3228	-1.0770	-0.7264	-0.3549	-1.0814	57.6444	99.9976	
   141	-0.6482	-0.2050	-0.8532	-0.7542	-0.3228	-1.0770	-0.7156	-0.3707	-1.0864	57.7627	99.9976	
   142	-0.6636	-0.1995	-0.8630	-0.7808	-0.3134	-1.0942	-0.7156	-0.3707	-1.0864	57.8047	99.9974	
   143	-0.6564	-0.2100	-0.8664	-0.7808	-0.3134	-1.0942	-0.7271	-0.3666	-1.0938	57.7233	99.9974	
   144	-0.6717	-0.2045	-0.8762	-0.7684	-0.3315	-1.0998	-0.7501	-0.3585	-1.1087	57.6812	99.9978	
   145	-0.6799	-0.2095	-0.8894	-0.7950	-0.3221	-1.1170	-0.7393	-0.3743	-1.1137	57.7627	99.9974	
   146	-0.6717	-0.2045	-0.8762	-0.7950	-0.3221	-1.1170	-0.7508	-0.3702	-1.1212	57.7181	99.9975	
   147	-0.6870	-0.1990	-0.8861	-0.7958	-0.3355	-1.1313	-0.7508	-0.3702	-1.1212	57.7601	99.9977	
   148	-0.6870	-0.1990	-0.8861	-0.7941	-0.3087	-1.1028	-0.7271	-0.3666	-1.0938	57.8073	99.9974	
   149	-0.6636	-0.1995	-0.8630	-0.7667	-0.3046	-1.0713	-0.7156	-0.3707	-1.0864	57.8047	99.9974	
   150	-0.6625	-0.1839	-0.8465	-0.7924	-0.2818	-1.0743	-0.7264	-0.3549	-1.0814	57.7627	99.9972	
   151	-0.6707	-0.1890	-0.8597	-0.7808	-0.3134	-1.0942	-0.7271	-0.3666	-1.0938	57.8022	99.9975	
   152	-0.6789	-0.1940	-0.8729	-0.8066	-0.2905	-1.0971	-0.7379	-0.3508	-1.0888	57.7259	99.9972	
   153	-0.6789	-0.1940	-0.8729	-0.7941	-0.3087	-1.1028	-0.7609	-0.3427	-1.1037	57.6418	99.9976	
   154	-0.6789	-0.1940	-0.8729	-0.8074	-0.3040	-1.1114	-0.7501	-0.3585	-1.1087	57.7207	99.9974	
   155	-0.6942	-0.1885	-0.8827	-0.8074	-0.3040	-1.1114	-0.7393	-0.3743	-1.1137	57.8416	99.9973	
   156	-0.7024	-0.1935	-0.8959	-0.8216	-0.3127	-1.1342	-0.7739	-0.3621	-1.1360	57.7181	99.9975	
   157	-0.7187	-0.2036	-0.9223	-0.8091	-0.3308	-1.1399	-0.7746	-0.3738	-1.1485	57.7601	99.9977	
   158	-0.7024	-0.1935	-0.8959	-0.8074	-0.3040	-1.1114	-0.7501	-0.3585	-1.1087	57.7653	99.9974	
   159	-0.6544	-0.1789	-0.8333	-0.7791	-0.2865	-1.0657	-0.7196	-0.3393	-1.0590	57.7259	99.9974	
   160	-0.6625	-0.1839	-0.8465	-0.7800	-0.2999	-1.0799	-0.7501	-0.3585	-1.1087	57.7155	99.9975	
   161	-0.6952	-0.2040	-0.8992	-0.8091	-0.3308	-1.1399	-0.7631	-0.3779	-1.1410	57.7575	99.9976	
   162	-0.7177	-0.1880	-0.9057	-0.8207	-0.2993	-1.1200	-0.7846	-0.3463	-1.1310	57.6812	99.9976	
   163	-0.6779	-0.1784	-0.8563	-0.8057	-0.2771	-1.0829	-0.7426	-0.3312	-1.0739	57.6865	99.9973	
   164	-0.6769	-0.1629	-0.8398	-0.8111	-0.2547	-1.0658	-0.7304	-0.3235	-1.0540	57.7285	99.9971	
   165	-0.6850	-0.1679	-0.8529	-0.7924	-0.2818	-1.0743	-0.7426	-0.3312	-1.0739	57.7259	99.9975	
   166	-0.6779	-0.1784	-0.8563	-0.7854	-0.2775	-1.0629	-0.7426	-0.3312	-1.0739	57.6865	99.9975	
   167	-0.6697	-0.1734	-0.8431	-0.7970	-0.2460	-1.0430	-0.7189	-0.3275	-1.0465	57.7311	99.9970	
   168	-0.6687	-0.1579	-0.8266	-0.7712	-0.2688	-1.0400	-0.7297	-0.3117	-1.0415	57.6891	99.9976	
   169	-0.6769	-0.1629	-0.8398	-0.7978	-0.2594	-1.0572	-0.7426	-0.3312	-1.0739	57.7233	99.9972	
   170	-0.6769	-0.1629	-0.8398	-0.7978	-0.2594	-1.0572	-0.7534	-0.3154	-1.0689	57.6444	99.9974	
   171	-0.6922	-0.1574	-0.8496	-0.8111	-0.2547	-1.0658	-0.7541	-0.3271	-1.0813	57.7233	99.9972	
   172	-0.6932	-0.1729	-0.8661	-0.8190	-0.2724	-1.0915	-0.7609	-0.3427	-1.1037	57.7207	99.9973	
   173	-0.7157	-0.1569	-0.8726	-0.8323	-0.2677	-1.1001	-0.7609	-0.3427	-1.1037	57.8022	99.9972	
   174	-0.6922	-0.1574	-0.8496	-0.7978	-0.2594	-1.0572	-0.7196	-0.3393	-1.0590	57.8493	99.9972	
   175	-0.6769	-0.1629	-0.8398	-0.7970	-0.2460	-1.0430	-0.7196	-0.3393	-1.0590	57.8073	99.9970	
   176	-0.6769	-0.1629	-0.8398	-0.7978	-0.2594	-1.0572	-0.7189	-0.3275	-1.0465	57.7705	99.9972	
   177	-0.6759	-0.1473	-0.8232	-0.7962	-0.2326	-1.0287	-0.7297	-0.3117	-1.0415	57.7285	99.9971	
   178	-0.6840	-0.1524	-0.8364	-0.7962	-0.2326	-1.0287	-0.7297	-0.3117	-1.0415	57.7311	99.9971	
   179	-0.6840	-0.1524	-0.8364	-0.8095	-0.2279	-1.0373	-0.7297	-0.3117	-1.0415	57.7311	99.9970	
   180	-0.6912	-0.1418	-0.8330	-0.8095	-0.2279	-1.0373	-0.7067	-0.3199	-1.0266	57.8544	99.9969	
   181	-0.6912	-0.1418	-0.8330	-0.8095	-0.2279	-1.0373	-0.7189	-0.3275	-1.0465	57.8493	99.9969	
   182	-0.6922	-0.1574	-0.8496	-0.8111	-0.2547	-1.0658	-0.7304	-0.3235	-1.0540	57.7705	99.9972	
   183	-0.6840	-0.1524	-0.8364	-0.8095	-0.2279	-1.0373	-0.7412	-0.3077	-1.0490	57.6891	99.9970	
   184	-0.6912	-0.1418	-0.8330	-0.8095	-0.2279	-1.0373	-0.7412	-0.3077	-1.0490	57.7285	99.9971	
   185	-0.6912	-0.1418	-0.8330	-0.8361	-0.2185	-1.0545	-0.7534	-0.3154	-1.0689	57.7233	99.9968	
   186	-0.6993	-0.1469	-0.8462	-0.8244	-0.2500	-1.0744	-0.7541	-0.3271	-1.0813	57.7627	99.9972	
   187	-0.6993	-0.1469	-0.8462	-0.8111	-0.2547	-1.0658	-0.7649	-0.3113	-1.0763	57.6839	99.9974	
   188	-0.7065	-0.1364	-0.8429	-0.8236	-0.2366	-1.0602	-0.7534	-0.3154	-1.0689	57.7653	99.9972	
   189	-0.7065	-0.1364	-0.8429	-0.8377	-0.2453	-1.0830	-0.7649	-0.3113	-1.0763	57.7233	99.9972	
   190	-0.7075	-0.1519	-0.8594	-0.8323	-0.2677	-1.1001	-0.7771	-0.3190	-1.0962	57.6812	99.9974	
   191	-0.7075	-0.1519	-0.8594	-0.8377	-0.2453	-1.0830	-0.7379	-0.3508	-1.0888	57.8836	99.9968	
   192	-0.6922	-0.1574	-0.8496	-0.8111	-0.2547	-1.0658	-0.7541	-0.3271	-1.0813	57.7233	99.9972	
   193	-0.7004	-0.1624	-0.8628	-0.8199	-0.2859	-1.1057	-0.7846	-0.3463	-1.1310	57.7129	99.9975	
   194	-0.7820	-0.2127	-0.9947	-0.8815	-0.4011	-1.2826	-0.8568	-0.4707	-1.3276	57.9691	99.9978	
   195	-0.9259	-0.2565	-1.1825	-1.0124	-0.4302	-1.4426	-0.9578	-0.4890	-1.4468	57.9346	99.9977	
   196	-0.9974	-0.2707	-1.2681	-1.0706	-0.4919	-1.5625	-1.0188	-0.5273	-1.5463	58.0062	99.9979	
   197	-1.0392	-0.3113	-1.3506	-1.1334	-0.5177	-1.6511	-1.0677	-0.5580	-1.6258	57.9615	99.9977	
   198	-1.1035	-0.3360	-1.4395	-1.1962	-0.5435	-1.7396	-1.1234	-0.6043	-1.7278	58.0333	99.9977	
   199	-1.1444	-0.3611	-1.5055	-1.2236	-0.5475	-1.7711	-1.1342	-0.5885	-1.7228	57.9666	99.9976	
   200	-1.0801	-0.3365	-1.4165	-1.1546	-0.5307	-1.6854	-1.0752	-0.5854	-1.6607	58.0458	99.9977	
   201	-1.0566	-0.3369	-1.3935	-1.1555	-0.5441	-1.6996	-1.0774	-0.6206	-1.6980	58.1126	99.9976	
   202	-1.1056	-0.3671	-1.4726	-1.2049	-0.5746	-1.7796	-1.1363	-0.6237	-1.7601	57.9911	99.9977	
   203	-1.1382	-0.3872	-1.5254	-1.2270	-0.6011	-1.8281	-1.1499	-0.6549	-1.8049	58.0704	99.9977	
   204	-1.1464	-0.3922	-1.5386	-1.2536	-0.5917	-1.8453	-1.1391	-0.6707	-1.8099	58.1523	99.9973	
   205	-1.1545	-0.3972	-1.5518	-1.2677	-0.6004	-1.8681	-1.1737	-0.6585	-1.8323	58.0282	99.9974	
   206	-1.1790	-0.4123	-1.5914	-1.2898	-0.6269	-1.9166	-1.1981	-0.6738	-1.8720	58.0257	99.9975	
   207	-1.1954	-0.4224	-1.6177	-1.2640	-0.6497	-1.9137	-1.1873	-0.6897	-1.8770	58.1101	99.9978	
   208	-1.1800	-0.4279	-1.6079	-1.2756	-0.6182	-1.8938	-1.1981	-0.6738	-1.8720	57.9885	99.9976	
   209	-1.1637	-0.4178	-1.5815	-1.2623	-0.6229	-1.8852	-1.1744	-0.6702	-1.8447	58.0307	99.9976	
   210	-1.1800	-0.4279	-1.6079	-1.2906	-0.6403	-1.9309	-1.1880	-0.7014	-1.8895	58.1051	99.9974	
   211	-1.2270	-0.4269	-1.6540	-1.3118	-0.6533	-1.9652	-1.2232	-0.7009	-1.9243	58.1051	99.9976	
   212	-1.2515	-0.4420	-1.6935	-1.3268	-0.6755	-2.0022	-1.2699	-0.6964	-1.9665	57.9809	99.9979	
   213	-1.2668	-0.4365	-1.7034	-1.3517	-0.6393	-1.9910	-1.2462	-0.6928	-1.9391	58.0704	99.9975	
   214	-1.2505	-0.4265	-1.6770	-1.3118	-0.6533	-1.9652	-1.2462	-0.6928	-1.9391	58.0654	99.9979	
   215	-1.2270	-0.4269	-1.6540	-1.2914	-0.6537	-1.9451	-1.2225	-0.6892	-1.9118	58.0679	99.9979	
   216	-1.2199	-0.4375	-1.6573	-1.2914	-0.6537	-1.9451	-1.2340	-0.6851	-1.9192	57.9860	99.9979	
   217	-1.2433	-0.4370	-1.6803	-1.3118	-0.6533	-1.9652	-1.2225	-0.6892	-1.9118	58.0729	99.9977	
   218	-1.2189	-0.4219	-1.6408	-1.2906	-0.6403	-1.9309	-1.2110	-0.6933	-1.9044	58.1076	99.9977	
   219	-1.2035	-0.4274	-1.6309	-1.2781	-0.6584	-1.9365	-1.2110	-0.6933	-1.9044	58.0654	99.9978	
   220	-1.2444	-0.4525	-1.6969	-1.3268	-0.6755	-2.0022	-1.2599	-0.7240	-1.9839	58.0579	99.9978	
   221	-1.2842	-0.4621	-1.7463	-1.3870	-0.6610	-2.0481	-1.2944	-0.7118	-2.0062	57.9809	99.9975	
   222	-1.2678	-0.4521	-1.7199	-1.3525	-0.6527	-2.0052	-1.2815	-0.6924	-1.9739	57.9437	99.9977	
   223	-1.2515	-0.4420	-1.6935	-1.3251	-0.6486	-1.9738	-1.2232	-0.7009	-1.9243	58.1126	99.9976	
   224	-1.2199	-0.4375	-1.6573	-1.2906	-0.6403	-1.9309	-1.2002	-0.7091	-1.9094	58.1498	99.9976	
   225	-1.2270	-0.4269	-1.6540	-1.2906	-0.6403	-1.9309	-1.2117	-0.7050	-1.9168	58.1473	99.9978	
   226	-1.2668	-0.4365	-1.7034	-1.3126	-0.6668	-1.9794	-1.2354	-0.7086	-1.9441	58.1498	99.9979	
   227	-1.2750	-0.4415	-1.7165	-1.3384	-0.6439	-1.9824	-1.2469	-0.7045	-1.9516	58.1101	99.9977	
   228	-1.2587	-0.4315	-1.6902	-1.3180	-0.6443	-1.9623	-1.2117	-0.7050	-1.9168	58.1945	99.9976	
   229	-1.2658	-0.4210	-1.6868	-1.3180	-0.6443	-1.9623	-1.2232	-0.7009	-1.9243	58.1920	99.9977	
   230	-1.2740	-0.4260	-1.7000	-1.3392	-0.6574	-1.9966	-1.2699	-0.6964	-1.9665	58.0629	99.9979	
   231	-1.2903	-0.4361	-1.7264	-1.3658	-0.6480	-2.0138	-1.2707	-0.7082	-1.9789	58.1051	99.9976	
   232	-1.2903	-0.4361	-1.7264	-1.3525	-0.6527	-2.0052	-1.2599	-0.7240	-1.9839	58.1846	99.9977	
   233	-1.2750	-0.4415	-1.7165	-1.3259	-0.6621	-1.9880	-1.2469	-0.7045	-1.9516	58.1101	99.9979	
   234	-1.2597	-0.4470	-1.7067	-1.3126	-0.6668	-1.9794	-1.2361	-0.7204	-1.9566	58.1473	99.9978	
   235	-1.2750	-0.4415	-1.7165	-1.3259	-0.6621	-1.9880	-1.2469	-0.7045	-1.9516	58.1101	99.9979	
   236	-1.2750	-0.4415	-1.7165	-1.3259	-0.6621	-1.9880	-1.2469	-0.7045	-1.9516	58.1101	99.9979	
   237	-1.2750	-0.4415	-1.7165	-1.3392	-0.6574	-1.9966	-1.2469	-0.7045	-1.9516	58.1101	99.9977	
   238	-1.2903	-0.4361	-1.7264	-1.3392	-0.6574	-1.9966	-1.2592	-0.7122	-1.9715	58.1473	99.9978	
   239	-1.2985	-0.4411	-1.7396	-1.3658	-0.6480	-2.0138	-1.2707	-0.7082	-1.9789	58.1076	99.9977	
   240	-1.3138	-0.4356	-1.7494	-1.3534	-0.6661	-2.0194	-1.2822	-0.7041	-1.9864	58.1076	99.9980	
   241	-1.3220	-0.4406	-1.7626	-1.3737	-0.6657	-2.0395	-1.2714	-0.7199	-1.9914	58.1895	99.9977	
   242	-1.3067	-0.4461	-1.7528	-1.3534	-0.6661	-2.0194	-1.2592	-0.7122	-1.9715	58.1523	99.9978	
   243	-1.2832	-0.4466	-1.7297	-1.3384	-0.6439	-1.9824	-1.2469	-0.7045	-1.9516	58.1126	99.9977	
   244	-1.2903	-0.4361	-1.7264	-1.3384	-0.6439	-1.9824	-1.2469	-0.7045	-1.9516	58.1523	99.9978	
   245	-1.2985	-0.4411	-1.7396	-1.3525	-0.6527	-2.0052	-1.2707	-0.7082	-1.9789	58.1076	99.9978	
   246	-1.3138	-0.4356	-1.7494	-1.3658	-0.6480	-2.0138	-1.2822	-0.7041	-1.9864	58.1076	99.9978	
   247	-1.3138	-0.4356	-1.7494	-1.3658	-0.6480	-2.0138	-1.2822	-0.7041	-1.9864	58.1076	99.9978	
   248	-1.3220	-0.4406	-1.7626	-1.3800	-0.6567	-2.0366	-1.2944	-0.7118	-2.0062	58.1051	99.9978	
   249	-1.3455	-0.4401	-1.7856	-1.4269	-0.6469	-2.0739	-1.3066	-0.7194	-2.0261	58.1449	99.9974	
   250	-1.3689	-0.4397	-1.8086	-1.4153	-0.6784	-2.0938	-1.3411	-0.7073	-2.0485	58.0629	99.9979	
   251	-1.3853	-0.4497	-1.8350	-1.4411	-0.6556	-2.0967	-1.3479	-0.7228	-2.0709	58.1026	99.9977	
   252	-1.3618	-0.4502	-1.8120	-1.4136	-0.6516	-2.0653	-1.3059	-0.7077	-2.0137	58.1126	99.9977	
   253	-1.3455	-0.4401	-1.7856	-1.3737	-0.6657	-2.0395	-1.2951	-0.7235	-2.0187	58.1871	99.9979	
   254	-1.3455	-0.4401	-1.7856	-1.4066	-0.6473	-2.0538	-1.3167	-0.6919	-2.0087	58.0282	99.9977	
   255	-1.3689	-0.4397	-1.8086	-1.4136	-0.6516	-2.0653	-1.3066	-0.7194	-2.0261	58.1895	99.9977	
   256	-1.3843	-0.4342	-1.8184	-1.4278	-0.6603	-2.0881	-1.3296	-0.7113	-2.0410	58.1473	99.9978	
   257	-1.3843	-0.4342	-1.8184	-1.4278	-0.6603	-2.0881	-1.3296	-0.7113	-2.0410	58.1473	99.9978	
   258	-1.4078	-0.4337	-1.8415	-1.4544	-0.6509	-2.1053	-1.3249	-0.7310	-2.0560	58.2689	99.9975	
   259	-1.4159	-0.4387	-1.8547	-1.4685	-0.6596	-2.1282	-1.3594	-0.7188	-2.0783	58.1449	99.9977	
   260	-1.4312	-0.4332	-1.8645	-1.4818	-0.6549	-2.1368	-1.3594	-0.7188	-2.0783	58.1871	99.9976	
   261	-1.4312	-0.4332	-1.8645	-1.4818	-0.6549	-2.1368	-1.3594	-0.7188	-2.0783	58.1871	99.9976	
   262	-1.4006	-0.4442	-1.8448	-1.4535	-0.6375	-2.0911	-1.3411	-0.7073	-2.0485	58.1101	99.9976	
   263	-1.3843	-0.4342	-1.8184	-1.4332	-0.6379	-2.0710	-1.3059	-0.7077	-2.0137	58.1945	99.9975	
   264	-1.3679	-0.4241	-1.7921	-1.4332	-0.6379	-2.0710	-1.3174	-0.7036	-2.0211	58.1473	99.9975	
   265	-1.3761	-0.4291	-1.8053	-1.4402	-0.6422	-2.0825	-1.3404	-0.6955	-2.0360	58.0654	99.9977	
   266	-1.3761	-0.4291	-1.8053	-1.4402	-0.6422	-2.0825	-1.3404	-0.6955	-2.0360	58.0654	99.9977	
   267	-1.3833	-0.4186	-1.8019	-1.4402	-0.6422	-2.0825	-1.3404	-0.6955	-2.0360	58.1051	99.9977	
   268	-1.3986	-0.4131	-1.8117	-1.4535	-0.6375	-2.0911	-1.3411	-0.7073	-2.0485	58.1846	99.9976	
   269	-1.4068	-0.4182	-1.8249	-1.4801	-0.6281	-2.1083	-1.3641	-0.6991	-2.0633	58.1026	99.9975	
   270	-1.4149	-0.4232	-1.8381	-1.4943	-0.6368	-2.1311	-1.3594	-0.7188	-2.0783	58.1821	99.9973	
   271	-1.4302	-0.4177	-1.8479	-1.4943	-0.6368	-2.1311	-1.3594	-0.7188	-2.0783	58.2243	99.9974	
   272	-1.4068	-0.4182	-1.8249	-1.4544	-0.6509	-2.1053	-1.3411	-0.7073	-2.0485	58.1871	99.9977	
   273	-1.3914	-0.4237	-1.8151	-1.4668	-0.6328	-2.0997	-1.3519	-0.6914	-2.0434	58.0654	99.9975	
   274	-1.4221	-0.4127	-1.8347	-1.4810	-0.6415	-2.1225	-1.3641	-0.6991	-2.0633	58.1449	99.9976	
   275	-1.4374	-0.4072	-1.8446	-1.4943	-0.6368	-2.1311	-1.3756	-0.6951	-2.0708	58.1449	99.9976	
   276	-1.4456	-0.4122	-1.8578	-1.5076	-0.6321	-2.1397	-1.3709	-0.7147	-2.0857	58.2243	99.9974	
   277	-1.4456	-0.4122	-1.8578	-1.5084	-0.6456	-2.1540	-1.3709	-0.7147	-2.0857	58.2243	99.9974	
   278	-1.4537	-0.4172	-1.8709	-1.5350	-0.6362	-2.1712	-1.4054	-0.7025	-2.1080	58.1001	99.9974	
   279	-1.4772	-0.4167	-1.8940	-1.5358	-0.6496	-2.1854	-1.4062	-0.7142	-2.1205	58.1821	99.9975	
   280	-1.4854	-0.4218	-1.9072	-1.5429	-0.6539	-2.1968	-1.4184	-0.7219	-2.1404	58.1796	99.9975	
   281	-1.4537	-0.4172	-1.8709	-1.5217	-0.6409	-2.1626	-1.3939	-0.7066	-2.1006	58.1424	99.9975	
   282	-1.4527	-0.4017	-1.8544	-1.5076	-0.6321	-2.1397	-1.3594	-0.7188	-2.0783	58.3062	99.9974	
   283	-1.4527	-0.4017	-1.8544	-1.5076	-0.6321	-2.1397	-1.3871	-0.6910	-2.0782	58.1449	99.9976	
   284	-1.4691	-0.4117	-1.8808	-1.5475	-0.6180	-2.1655	-1.4054	-0.7025	-2.1080	58.1424	99.9973	
   285	-1.4834	-0.3907	-1.8740	-1.5342	-0.6227	-2.1569	-1.4101	-0.6829	-2.0931	58.1449	99.9976	
   286	-1.4762	-0.4012	-1.8774	-1.5475	-0.6180	-2.1655	-1.4054	-0.7025	-2.1080	58.1821	99.9973	
   287	-1.4834	-0.3907	-1.8740	-1.5608	-0.6133	-2.1741	-1.4054	-0.7025	-2.1080	58.2219	99.9972	
   288	-1.4834	-0.3907	-1.8740	-1.5483	-0.6315	-2.1798	-1.4054	-0.7025	-2.1080	58.2219	99.9974	
   289	-1.4834	-0.3907	-1.8740	-1.5608	-0.6133	-2.1741	-1.4054	-0.7025	-2.1080	58.2219	99.9972	
   290	-1.4752	-0.3857	-1.8609	-1.5209	-0.6274	-2.1483	-1.3871	-0.6910	-2.0782	58.2268	99.9975	
   291	-1.4599	-0.3911	-1.8510	-1.5130	-0.6097	-2.1226	-1.3756	-0.6951	-2.0708	58.2268	99.9975	
   292	-1.4599	-0.3911	-1.8510	-1.5200	-0.6140	-2.1341	-1.3979	-0.6752	-2.0732	58.1051	99.9975	
   293	-1.4589	-0.3756	-1.8345	-1.5130	-0.6097	-2.1226	-1.3864	-0.6793	-2.0658	58.1846	99.9975	
   294	-1.4589	-0.3756	-1.8345	-1.5130	-0.6097	-2.1226	-1.3864	-0.6793	-2.0658	58.1846	99.9975	
   295	-1.4752	-0.3857	-1.8609	-1.5475	-0.6180	-2.1655	-1.4054	-0.7025	-2.1080	58.2194	99.9973	
   296	-1.4915	-0.3957	-1.8872	-1.5608	-0.6133	-2.1741	-1.4292	-0.7061	-2.1354	58.1772	99.9974	
   297	-1.5140	-0.3797	-1.8937	-1.5741	-0.6087	-2.1827	-1.4400	-0.6903	-2.1304	58.1796	99.9975	
   298	-1.5222	-0.3847	-1.9069	-1.5757	-0.6355	-2.2112	-1.4407	-0.7021	-2.1428	58.2194	99.9975	
   299	-1.5385	-0.3948	-1.9333	-1.5969	-0.6485	-2.2455	-1.4759	-0.7016	-2.1776	58.1349	99.9976	
   300	-1.5232	-0.4003	-1.9234	-1.5757	-0.6355	-2.2112	-1.4407	-0.7021	-2.1428	58.1821	99.9975	
   301	-1.4915	-0.3957	-1.8872	-1.5483	-0.6315	-2.1798	-1.4169	-0.6984	-2.1155	58.1821	99.9975	
   302	-1.4834	-0.3907	-1.8740	-1.5608	-0.6133	-2.1741	-1.4331	-0.6747	-2.1080	58.0604	99.9974	
   303	-1.4987	-0.3852	-1.8839	-1.5616	-0.6268	-2.1884	-1.4400	-0.6903	-2.1304	58.1374	99.9975	
   304	-1.5069	-0.3902	-1.8971	-1.5616	-0.6268	-2.1884	-1.4400	-0.6903	-2.1304	58.1399	99.9976	
   305	-1.5058	-0.3747	-1.8805	-1.5741	-0.6087	-2.1827	-1.4439	-0.6589	-2.1030	58.0629	99.9974	
   306	-1.5130	-0.3641	-1.8771	-1.5874	-0.6040	-2.1913	-1.4561	-0.6666	-2.1229	58.0976	99.9974	
   307	-1.5130	-0.3641	-1.8771	-1.5874	-0.6040	-2.1913	-1.4561	-0.6666	-2.1229	58.0976	99.9974	
   308	-1.5130	-0.3641	-1.8771	-1.6007	-0.5993	-2.1999	-1.4400	-0.6903	-2.1304	58.2169	99.9971	
   309	-1.5048	-0.3591	-1.8640	-1.5608	-0.6133	-2.1741	-1.4324	-0.6630	-2.0955	58.1424	99.9975	
   310	-1.4814	-0.3596	-1.8409	-1.5529	-0.5956	-2.1484	-1.3979	-0.6752	-2.0732	58.2243	99.9972	
   311	-1.4804	-0.3440	-1.8244	-1.5520	-0.5822	-2.1342	-1.4195	-0.6436	-2.0632	58.1026	99.9974	
   312	-1.5038	-0.3436	-1.8474	-1.5732	-0.5952	-2.1685	-1.4324	-0.6630	-2.0955	58.1796	99.9974	
   313	-1.4895	-0.3646	-1.8541	-1.5865	-0.5905	-2.1771	-1.4439	-0.6589	-2.1030	58.0579	99.9972	
   314	-1.5048	-0.3591	-1.8640	-1.5874	-0.6040	-2.1913	-1.4331	-0.6747	-2.1080	58.1796	99.9972	
   315	-1.5048	-0.3591	-1.8640	-1.5874	-0.6040	-2.1913	-1.4561	-0.6666	-2.1229	58.0951	99.9974	
   316	-1.5130	-0.3641	-1.8771	-1.6015	-0.6127	-2.2142	-1.4407	-0.7021	-2.1428	58.2543	99.9971	
   317	-1.5375	-0.3792	-1.9167	-1.6422	-0.6120	-2.2542	-1.4975	-0.6700	-2.1676	58.0131	99.9971	
   318	-1.5283	-0.3586	-1.8870	-1.5874	-0.6040	-2.1913	-1.4324	-0.6630	-2.0955	58.1871	99.9973	
   319	-1.4804	-0.3440	-1.8244	-1.5520	-0.5822	-2.1342	-1.4195	-0.6436	-2.0632	58.1026	99.9974	
   320	-1.4722	-0.3390	-1.8112	-1.5520	-0.5822	-2.1342	-1.4080	-0.6476	-2.0557	58.1424	99.9973	
   321	-1.4875	-0.3335	-1.8210	-1.5653	-0.5775	-2.1428	-1.4195	-0.6436	-2.0632	58.1424	99.9973	
   322	-1.4957	-0.3385	-1.8342	-1.5786	-0.5728	-2.1514	-1.4425	-0.6355	-2.0781	58.0604	99.9973	
   323	-1.4957	-0.3385	-1.8342	-1.5919	-0.5681	-2.1600	-1.4195	-0.6436	-2.0632	58.1449	99.9970	
   324	-1.5028	-0.3280	-1.8308	-1.5919	-0.5681	-2.1600	-1.4425	-0.6355	-2.0781	58.1001	99.9972	
   325	-1.5110	-0.3330	-1.8440	-1.5928	-0.5815	-2.1742	-1.4432	-0.6472	-2.0905	58.1399	99.9972	
   326	-1.5263	-0.3275	-1.8539	-1.5998	-0.5858	-2.1857	-1.4432	-0.6472	-2.0905	58.1821	99.9972	
   327	-1.5110	-0.3330	-1.8440	-1.5919	-0.5681	-2.1600	-1.4303	-0.6278	-2.0582	58.1076	99.9971	
   328	-1.4793	-0.3285	-1.8078	-1.5512	-0.5688	-2.1200	-1.4073	-0.6359	-2.0433	58.1449	99.9973	
   329	-1.4793	-0.3285	-1.8078	-1.5645	-0.5641	-2.1286	-1.4188	-0.6318	-2.0507	58.1026	99.9972	
   330	-1.4793	-0.3285	-1.8078	-1.5778	-0.5594	-2.1372	-1.4188	-0.6318	-2.0507	58.1026	99.9970	
   331	-1.4793	-0.3285	-1.8078	-1.5911	-0.5547	-2.1458	-1.4188	-0.6318	-2.0507	58.1026	99.9969	
   332	-1.5018	-0.3125	-1.8143	-1.5786	-0.5728	-2.1514	-1.4188	-0.6318	-2.0507	58.1846	99.9971	
   333	-1.4947	-0.3230	-1.8177	-1.5911	-0.5547	-2.1458	-1.4195	-0.6436	-2.0632	58.1821	99.9970	
   334	-1.5182	-0.3225	-1.8407	-1.5928	-0.5815	-2.1742	-1.4540	-0.6314	-2.0855	58.1001	99.9973	
   335	-1.5335	-0.3170	-1.8505	-1.6194	-0.5721	-2.1914	-1.4432	-0.6472	-2.0905	58.2219	99.9970	
   336	-1.5335	-0.3170	-1.8505	-1.5928	-0.5815	-2.1742	-1.4303	-0.6278	-2.0582	58.1895	99.9972	
   337	-1.4947	-0.3230	-1.8177	-1.5840	-0.5503	-2.1343	-1.4296	-0.6160	-2.0457	58.0654	99.9971	
   338	-1.5018	-0.3125	-1.8143	-1.5707	-0.5550	-2.1257	-1.4181	-0.6201	-2.0383	58.1473	99.9973	
   339	-1.5171	-0.3070	-1.8241	-1.5973	-0.5456	-2.1429	-1.4296	-0.6160	-2.0457	58.1473	99.9971	
   340	-1.5325	-0.3015	-1.8340	-1.6044	-0.5500	-2.1544	-1.4296	-0.6160	-2.0457	58.1895	99.9971	
   341	-1.5171	-0.3070	-1.8241	-1.5911	-0.5547	-2.1458	-1.4404	-0.6002	-2.0407	58.0679	99.9972	
   342	-1.5325	-0.3015	-1.8340	-1.6044	-0.5500	-2.1544	-1.4296	-0.6160	-2.0457	58.1895	99.9971	
   343	-1.5478	-0.2960	-1.8438	-1.6044	-0.5500	-2.1544	-1.4296	-0.6160	-2.0457	58.2317	99.9972	
   344	-1.5478	-0.2960	-1.8438	-1.6177	-0.5453	-2.1630	-1.4411	-0.6120	-2.0532	58.1895	99.9971	
   345	-1.5406	-0.3065	-1.8471	-1.6185	-0.5587	-2.1772	-1.4641	-0.6038	-2.0680	58.0654	99.9971	
   346	-1.5325	-0.3015	-1.8340	-1.5919	-0.5681	-2.1600	-1.4188	-0.6318	-2.0507	58.2689	99.9971	
   347	-1.5253	-0.3120	-1.8373	-1.5928	-0.5815	-2.1742	-1.4540	-0.6314	-2.0855	58.1399	99.9973	
   348	-1.5406	-0.3065	-1.8471	-1.6273	-0.5899	-2.2171	-1.4860	-0.6741	-2.1601	58.2444	99.9972	
   349	-1.5641	-0.3060	-1.8702	-1.7062	-0.5483	-2.2545	-1.5806	-0.5867	-2.1673	57.7614	99.9970	
   350	-1.5631	-0.2905	-1.8536	-1.7257	-0.5345	-2.2602	-1.6402	-0.6016	-2.2419	57.6978	99.9972	
   351	-1.6846	-0.3503	-2.0349	-1.8679	-0.6350	-2.5030	-1.7821	-0.7133	-2.4955	57.7889	99.9971	
   352	-1.7336	-0.3805	-2.1141	-1.9519	-0.6738	-2.6258	-1.8310	-0.7440	-2.5751	57.7836	99.9964	
   353	-1.7050	-0.3032	-2.0083	-1.8895	-0.5452	-2.4347	-1.7405	-0.6081	-2.3487	57.7004	99.9965	
   354	-1.5264	-0.2082	-1.7346	-1.6987	-0.4276	-2.1263	-1.5641	-0.5086	-2.0727	57.7189	99.9968	
   355	-1.4305	-0.1790	-1.6094	-1.5952	-0.4025	-1.9976	-1.4706	-0.5176	-1.9883	57.8783	99.9969	
   356	-1.4386	-0.1840	-1.6226	-1.6093	-0.4112	-2.0205	-1.5159	-0.4896	-2.0056	57.6738	99.9971	
   357	-1.4448	-0.1579	-1.6027	-1.5847	-0.3445	-1.9292	-1.4818	-0.4117	-1.8937	57.5782	99.9972	
   358	-1.3560	-0.1182	-1.4742	-1.5140	-0.3010	-1.8150	-1.4093	-0.3774	-1.7868	57.5809	99.9971	
   359	-1.3315	-0.1031	-1.4346	-1.4866	-0.2970	-1.7836	-1.3978	-0.3815	-1.7793	57.6153	99.9972	
   360	-1.3478	-0.1132	-1.4610	-1.5344	-0.3006	-1.8350	-1.4330	-0.3810	-1.8141	57.5304	99.9970	
   361	-1.3795	-0.1177	-1.4972	-1.5361	-0.3274	-1.8635	-1.4574	-0.3964	-1.8539	57.5675	99.9973	
   362	-1.3795	-0.1177	-1.4972	-1.5494	-0.3227	-1.8721	-1.4466	-0.4122	-1.8589	57.6472	99.9971	
   363	-1.3478	-0.1132	-1.4610	-1.5078	-0.3100	-1.8178	-1.4107	-0.4009	-1.8117	57.6525	99.9972	
   364	-1.3315	-0.1031	-1.4346	-1.4866	-0.2970	-1.7836	-1.4093	-0.3774	-1.7868	57.5729	99.9973	
   365	-1.3387	-0.0926	-1.4312	-1.4858	-0.2835	-1.7693	-1.4186	-0.3381	-1.7569	57.4590	99.9975	
   366	-1.3223	-0.0825	-1.4049	-1.4716	-0.2748	-1.7465	-1.3956	-0.3462	-1.7420	57.5385	99.9974	
   367	-1.3142	-0.0775	-1.3917	-1.4770	-0.2524	-1.7294	-1.3719	-0.3426	-1.7147	57.5836	99.9971	
   368	-1.2988	-0.0830	-1.3818	-1.4637	-0.2571	-1.7208	-1.3719	-0.3426	-1.7147	57.5412	99.9971	
   369	-1.3142	-0.0775	-1.3917	-1.4770	-0.2524	-1.7294	-1.3949	-0.3345	-1.7295	57.4987	99.9972	
   370	-1.3295	-0.0720	-1.4015	-1.4779	-0.2658	-1.7436	-1.4111	-0.3108	-1.7220	57.4220	99.9975	
   371	-1.3060	-0.0725	-1.3785	-1.4496	-0.2484	-1.6980	-1.3529	-0.3194	-1.6724	57.5519	99.9972	
   372	-1.2897	-0.0624	-1.3521	-1.4213	-0.2309	-1.6523	-1.3400	-0.3000	-1.6400	57.5149	99.9974	
   373	-1.2815	-0.0574	-1.3389	-1.4080	-0.2356	-1.6437	-1.3292	-0.3158	-1.6450	57.5916	99.9974	
   374	-1.2897	-0.0624	-1.3521	-1.4346	-0.2263	-1.6609	-1.3522	-0.3076	-1.6599	57.5095	99.9973	
   375	-1.2897	-0.0624	-1.3521	-1.4346	-0.2263	-1.6609	-1.3400	-0.3000	-1.6400	57.5149	99.9972	
   376	-1.2887	-0.0469	-1.3355	-1.4275	-0.2219	-1.6494	-1.3285	-0.3040	-1.6326	57.5942	99.9972	
   377	-1.2887	-0.0469	-1.3355	-1.4275	-0.2219	-1.6494	-1.3393	-0.2882	-1.6276	57.5149	99.9973	
   378	-1.2887	-0.0469	-1.3355	-1.4275	-0.2219	-1.6494	-1.3393	-0.2882	-1.6276	57.5149	99.9973	
   379	-1.2652	-0.0473	-1.3125	-1.3868	-0.2226	-1.6094	-1.3148	-0.2729	-1.5878	57.4806	99.9975	
   380	-1.2335	-0.0428	-1.2763	-1.3452	-0.2099	-1.5551	-1.2796	-0.2733	-1.5530	57.5229	99.9976	
   381	-1.2254	-0.0378	-1.2631	-1.3382	-0.2055	-1.5437	-1.2796	-0.2733	-1.5530	57.5202	99.9976	
   382	-1.2254	-0.0378	-1.2631	-1.3452	-0.2099	-1.5551	-1.2796	-0.2733	-1.5530	57.5202	99.9975	
   383	-1.2254	-0.0378	-1.2631	-1.3515	-0.2008	-1.5523	-1.2674	-0.2657	-1.5331	57.5256	99.9974	
   384	-1.2325	-0.0272	-1.2598	-1.3382	-0.2055	-1.5437	-1.2674	-0.2657	-1.5331	57.5652	99.9976	
   385	-1.2325	-0.0272	-1.2598	-1.3382	-0.2055	-1.5437	-1.2674	-0.2657	-1.5331	57.5652	99.9976	
   386	-1.2325	-0.0272	-1.2598	-1.3648	-0.1961	-1.5609	-1.2836	-0.2419	-1.5256	57.4464	99.9974	
   387	-1.2162	-0.0172	-1.2334	-1.2974	-0.2062	-1.5036	-1.2484	-0.2424	-1.4909	57.5309	99.9979	
   388	-1.1927	-0.0177	-1.2104	-1.2958	-0.1794	-1.4751	-1.2246	-0.2388	-1.4635	57.5336	99.9976	
   389	-1.1845	-0.0126	-1.1972	-1.2825	-0.1841	-1.4665	-1.2138	-0.2546	-1.4685	57.6101	99.9976	
   390	-1.1845	-0.0126	-1.1972	-1.2825	-0.1841	-1.4665	-1.2138	-0.2546	-1.4685	57.6101	99.9976	
   391	-1.1917	-0.0021	-1.1938	-1.2958	-0.1794	-1.4751	-1.2138	-0.2546	-1.4685	57.6497	99.9975	
   392	-1.1845	-0.0126	-1.1972	-1.2949	-0.1660	-1.4609	-1.2131	-0.2429	-1.4561	57.5732	99.9974	
   393	-1.1917	-0.0021	-1.1938	-1.2825	-0.1841	-1.4665	-1.2246	-0.2388	-1.4635	57.5705	99.9977	
   394	-1.1835	 0.0029	-1.1806	-1.2949	-0.1660	-1.4609	-1.2131	-0.2429	-1.4561	57.6101	99.9974	
   395	-1.1580	 0.0335	-1.1245	-1.2454	-0.1355	-1.3809	-1.1636	-0.2004	-1.3641	57.6234	99.9976	
   396	-1.1202	 0.0120	-1.1082	-1.2347	-0.1804	-1.4151	-1.2261	-0.2623	-1.4884	57.5465	99.9978	
   397	-1.2743	-0.0679	-1.3423	-1.4704	-0.3643	-1.8348	-1.5512	-0.4891	-2.0404	57.5668	99.9980	
   398	-1.5938	-0.2795	-1.8733	-1.8846	-0.6839	-2.5685	-1.9693	-0.7971	-2.7665	57.6012	99.9977	
   399	-1.8469	-0.4353	-2.2822	-2.0983	-0.8414	-2.9397	-2.1288	-0.9086	-3.0375	57.6527	99.9973	
   400	-1.7398	-0.2351	-1.9749	-1.8991	-0.5897	-2.4888	-1.8706	-0.6221	-2.4928	57.6553	99.9974	
   401	-1.2878	 0.0880	-1.1997	-1.4400	-0.2038	-1.6438	-1.4177	-0.2246	-1.6423	57.4427	99.9976	
   402	-1.0103	 0.3783	-0.6320	-1.1763	 0.1005	-1.0759	-1.1724	 0.0425	-1.1300	57.3850	99.9978	
   403	-1.1216	 0.3546	-0.7670	-1.3643	-0.0798	-1.4441	-1.4533	-0.1340	-1.5874	57.4088	99.9976	
   404	-1.4858	 0.0557	-1.4302	-1.8707	-0.3531	-2.2238	-1.8625	-0.3911	-2.2537	57.1569	99.9951	
   405	-1.7848	-0.2030	-1.9878	-2.1078	-0.6667	-2.7745	-2.1987	-0.7040	-2.9028	57.2564	99.9967	
   406	-2.0958	-0.6483	-2.7441	-2.3400	-1.1192	-3.4591	-2.3733	-1.1639	-3.5374	57.8185	99.9968	
   407	-2.4823	-1.1699	-3.6522	-2.5950	-1.6114	-4.2065	-2.6333	-1.5757	-4.2091	57.9460	99.9976	
   408	-3.0262	-1.5794	-4.6056	-2.9170	-1.9773	-4.8943	-3.0147	-1.8606	-4.8754	57.9184	99.9993	
   409	-3.2342	-1.8866	-5.1208	-3.2342	-2.1599	-5.3941	-3.2313	-2.0419	-5.2733	57.5849	99.9985	
   410	-3.5465	-2.1087	-5.6552	-3.5074	-2.2895	-5.7969	-3.3988	-2.0906	-5.4895	57.3478	99.9977	
   411	-3.4200	-1.9711	-5.3911	-3.3714	-2.1799	-5.5513	-3.2353	-2.0105	-5.2459	57.6069	99.9976	
   412	-3.3119	-1.8746	-5.1865	-3.2521	-2.1193	-5.3714	-3.1078	-1.9416	-5.0495	57.7414	99.9972	
   413	-3.0496	-1.6982	-4.7478	-3.0516	-1.9572	-5.0088	-2.8954	-1.8308	-4.7263	57.8624	99.9969	
   414	-2.9404	-1.5863	-4.5267	-2.9793	-1.8868	-4.8661	-2.8606	-1.7412	-4.6019	57.7281	99.9964	
   415	-2.8692	-1.3334	-4.2026	-3.1342	-1.6471	-4.7813	-3.0750	-1.5935	-4.6686	57.1871	99.9958	
   416	-3.1428	-1.4421	-4.5849	-3.3862	-1.9828	-5.3691	-3.3822	-2.2044	-5.5867	58.7375	99.9974	
   417	-2.8025	-1.6357	-4.4382	-3.4689	-2.6525	-6.1214	-3.8669	-2.8365	-6.7035	58.5149	99.9928	
   418	-2.9740	-1.7413	-4.7153	-3.6253	-2.7617	-6.3870	-3.9219	-2.8711	-6.7930	58.5459	99.9886	
   419	-3.2219	-1.9387	-5.1606	-3.8456	-2.8072	-6.6528	-4.1430	-2.7390	-6.8821	57.4320	99.9873	
   420	-3.6396	-1.9719	-5.6114	-4.1181	-2.6013	-6.7194	-4.1799	-2.3782	-6.5582	56.8124	99.9852	
   421	-3.4469	-1.6592	-5.1060	-3.8398	-2.1720	-6.0119	-3.8021	-1.9601	-5.7623	56.8130	99.9877	
   422	-3.6359	-1.5516	-5.1875	-3.8842	-1.9028	-5.7870	-3.8200	-1.5761	-5.3962	56.1098	99.9902	
   423	-3.8240	-1.3091	-5.1332	-3.9438	-1.5529	-5.4967	-3.8354	-1.2469	-5.0824	55.9502	99.9939	
   424	-3.7486	-1.1134	-4.8621	-3.8631	-1.3484	-5.2115	-3.7996	-1.0437	-4.8434	55.7140	99.9949	
   425	-3.7303	-1.0723	-4.8026	-3.8315	-1.2774	-5.1088	-3.7601	-0.9737	-4.7339	55.6532	99.9953	
   426	-3.6610	-0.9699	-4.6309	-3.7142	-1.1407	-4.8548	-3.6121	-0.8581	-4.4703	55.7803	99.9961	
   427	-3.5426	-0.8373	-4.3800	-3.4863	-0.9745	-4.4608	-3.4192	-0.6805	-4.0998	55.7992	99.9978	
   428	-3.4845	-0.7866	-4.2711	-3.4484	-0.9125	-4.3610	-3.4077	-0.6845	-4.0924	55.8564	99.9984	
   429	-3.5335	-0.8168	-4.3502	-3.4680	-0.8988	-4.3667	-3.2927	-0.7252	-4.0180	56.3068	99.9979	
   430	-3.1695	-1.2496	-4.4191	-2.8664	-1.4950	-4.3614	-2.6223	-1.2978	-3.9202	58.1275	99.9979	
   431	-2.9133	-1.1665	-4.0797	-2.5682	-1.1824	-3.7506	-2.1856	-0.8765	-3.0622	57.5639	99.9974	
   432	-2.7946	-1.3920	-4.1866	-2.6960	-1.5963	-4.2924	-2.7203	-1.4610	-4.1814	57.3631	99.9992	
   433	-3.9728	-1.6694	-5.6422	-4.1380	-1.7241	-5.8621	-3.9422	-1.1672	-5.1095	54.7977	99.9888	
   434	-4.1504	-1.7489	-5.8993	-4.2284	-1.9731	-6.2015	-4.1589	-1.6422	-5.8012	55.9450	99.9950	
   435	-4.5034	-1.9961	-6.4996	-4.3814	-2.0287	-6.4100	-4.1046	-1.6194	-5.7242	56.0758	99.9954	
   436	-4.1950	-2.0749	-6.2699	-4.0880	-2.1186	-6.2066	-3.8408	-1.7246	-5.5655	56.3157	99.9957	
   437	-3.8814	-2.1954	-6.0767	-3.6802	-2.2284	-5.9087	-3.3832	-1.8323	-5.2156	56.9453	99.9961	
   438	-3.2605	-2.1715	-5.4320	-3.0393	-2.1945	-5.2338	-2.6834	-1.8218	-4.5053	57.5709	99.9957	
   439	-2.5683	-2.0140	-4.5823	-2.3135	-2.1083	-4.4218	-1.9822	-1.7877	-3.7700	58.3141	99.9963	
   440	-2.0670	-1.8995	-3.9665	-1.8038	-2.0006	-3.8045	-1.4989	-1.6647	-3.1637	58.4671	99.9964	
   441	-1.7700	-1.7913	-3.5612	-1.4642	-1.8945	-3.3587	-1.1640	-1.5672	-2.7313	58.6942	99.9969	
   442	-1.5954	-1.7584	-3.3538	-1.3120	-1.8523	-3.1644	-1.0271	-1.5376	-2.5648	58.6965	99.9970	
   443	-1.5392	-1.7388	-3.2780	-1.2351	-1.8179	-3.0530	-0.9247	-1.4959	-2.4207	58.7555	99.9970	
   444	-1.5056	-1.7031	-3.2087	-1.1944	-1.8185	-3.0129	-0.9329	-1.5349	-2.4680	58.8910	99.9977	
   445	-1.8941	-2.2558	-4.1499	-1.8840	-2.6301	-4.5141	-2.1062	-2.2835	-4.3898	57.7903	99.9974	
   446	-3.8359	-2.7048	-6.5408	-3.7448	-2.5002	-6.2450	-3.4444	-1.6788	-5.1233	54.9522	99.9892	
   447	-3.8516	-2.3413	-6.1929	-3.6366	-2.2918	-5.9284	-3.3681	-1.7777	-5.1459	56.3865	99.9958	
   448	-3.8598	-2.3463	-6.2061	-3.5410	-2.2844	-5.8255	-3.1722	-1.7450	-4.9173	56.7785	99.9953	
   449	-4.1046	-2.6164	-6.7210	-4.0234	-2.6074	-6.6307	-3.7946	-1.9328	-5.7275	55.5995	99.9906	
   450	-4.5946	-2.7987	-7.3932	-4.5285	-2.7509	-7.2794	-4.1143	-2.1676	-6.2820	56.0309	99.9895	
   451	-4.6273	-2.6994	-7.3268	-4.2881	-2.6029	-6.8910	-3.7601	-1.9450	-5.7052	56.5160	99.9908	
   452	-4.0880	-2.8451	-6.9331	-3.8859	-2.9094	-6.7954	-3.4334	-2.3722	-5.8057	57.3644	99.9898	
   453	-3.3800	-3.1706	-6.5506	-3.1878	-3.2657	-6.4536	-2.7874	-2.6664	-5.4538	57.8236	99.9881	
   454	-2.4624	-2.7997	-5.2621	-2.1755	-2.8354	-5.0109	-1.6605	-2.2971	-3.9577	58.6278	99.9899	
   455	-2.6898	-3.0443	-5.7341	-2.6757	-3.1178	-5.7934	-2.6081	-2.5199	-5.1281	56.8134	99.9928	
   456	-3.7865	-3.1521	-6.9386	-3.7502	-3.2383	-6.9885	-3.5148	-2.6492	-6.1641	56.7350	99.9898	
   457	-2.9828	-3.2097	-6.1924	-3.1945	-3.3730	-6.5675	-2.7874	-2.6664	-5.4538	56.9818	99.9714	
   458	-3.3544	-3.2593	-6.6138	-3.6335	-3.4371	-7.0707	-3.4092	-2.6505	-6.0598	55.9118	99.9720	
   459	-3.1902	-2.0535	-5.2437	-3.1113	-2.3678	-5.4790	-3.0200	-2.0446	-5.0647	57.6258	99.9953	
   460	-3.4158	-2.1476	-5.5633	-3.4218	-2.4430	-5.8649	-2.9270	-1.9635	-4.8906	57.7770	99.9798	
   461	-2.8827	-2.1479	-5.0306	-3.1726	-2.8052	-5.9778	-2.9596	-2.5036	-5.4633	58.5137	99.9768	
   462	-1.6005	-0.7464	-2.3469	-1.5586	-1.2308	-2.7894	-1.0953	-0.7222	-1.8175	58.3783	99.9739	
   463	 2.1124	 1.5094	 3.6218	 2.7618	 1.2374	 3.9992	 3.4656	 1.7373	 5.2028	60.1690	99.9867	
   464	 6.2102	 3.7784	 9.9885	 7.1768	 3.2611	10.4379	 7.3233	 3.4499	10.7732	61.9245	99.9996	
   465	 5.9533	 2.2319	 8.1852	 5.5196	 0.8866	 6.4061	 4.6095	 0.4458	 5.0552	62.2634	99.9997	
   466	 2.1660	-0.0848	 2.0812	 1.3382	-1.0963	 0.2419	 0.4957	-1.5181	-1.0225	59.7801	99.9992	
   467	-0.3490	-1.2748	-1.6238	-1.6704	-2.6919	-4.3622	-2.5574	-3.0414	-5.5989	58.8782	99.9871	
   468	-1.9203	-1.5703	-3.4906	-2.7340	-2.6381	-5.3721	-3.0795	-2.7370	-5.8166	58.6909	99.9844	
   469	-2.7693	-2.2124	-4.9817	-3.4770	-3.1087	-6.5858	-3.8626	-3.2517	-7.1145	58.3819	99.9932	
   470	-3.3558	-2.9168	-6.2726	-3.8341	-3.8185	-7.6526	-4.0348	-3.7665	-7.8013	59.0244	99.9874	
   471	-2.4258	-2.5981	-5.0239	-2.4296	-3.0951	-5.5247	-2.2276	-2.8342	-5.0619	59.4711	99.9897	
   472	-1.0867	-1.8931	-2.9799	-1.0907	-2.3348	-3.4255	-0.8399	-1.9395	-2.7795	59.2230	99.9851	
   473	-0.5693	-1.5298	-2.0992	-0.6379	-1.9398	-2.5777	-0.4027	-1.6084	-2.0112	59.1654	99.9870	
   474	-0.2436	-1.4637	-1.7073	-0.3830	-1.8859	-2.2690	-0.2870	-1.6373	-1.9243	59.1204	99.9910	
   475	-0.3395	-1.6123	-1.9518	-0.6084	-2.0119	-2.6203	-0.5453	-1.7318	-2.2773	58.5983	99.9891	
   476	-0.3365	-1.5656	-1.9021	-0.6811	-1.9793	-2.6605	-0.6719	-1.6871	-2.3591	58.2449	99.9883	
   477	-0.1865	-1.4285	-1.6150	-0.3639	-1.7968	-2.1607	-0.1768	-1.4664	-1.6432	58.8067	99.9870	
   478	 0.0442	-1.3760	-1.3318	-0.0612	-1.7393	-1.8005	 0.1743	-1.3926	-1.2183	59.1316	99.9867	
   479	 0.2474	-1.2659	-1.0186	 0.1907	-1.6227	-1.4320	 0.4909	-1.3066	-0.8158	59.5216	99.9870	
   480	 0.1515	-1.4145	-1.2630	-0.0106	-1.7983	-1.8088	 0.2017	-1.5221	-1.3205	59.3374	99.9878	
   481	-0.0637	-1.7112	-1.7749	-0.4128	-2.2523	-2.6650	-0.3255	-2.0793	-2.4049	59.5549	99.9867	
   482	-0.6717	-2.2647	-2.9364	-1.1514	-2.9780	-4.1294	-1.2123	-2.8512	-4.0635	59.6813	99.9852	
   483	-1.5986	-2.6561	-4.2547	-2.3849	-3.4672	-5.8521	-2.6162	-3.2364	-5.8528	58.1359	99.9757	
   484	-2.2961	-2.6526	-4.9486	-3.2731	-3.4343	-6.7074	-3.6363	-3.1998	-6.8362	56.6509	99.9762	
   485	-2.5475	-2.4192	-4.9667	-3.3233	-3.2590	-6.5823	-3.4488	-3.0142	-6.4631	57.6412	99.9705	
   486	-2.1791	-2.1775	-4.3566	-2.8788	-2.9980	-5.8769	-2.8986	-2.9508	-5.8495	58.8014	99.9787	
   487	-1.6568	-1.6171	-3.2739	-2.1367	-2.5408	-4.6775	-2.1769	-2.3844	-4.5615	59.1676	99.9770	
   488	 0.5843	-0.1777	 0.4066	-0.0059	-0.8544	-0.8603	 0.2273	-0.6139	-0.3867	58.7058	99.9682	
   489	 3.0471	 1.1742	 4.2213	 3.3972	 0.8553	 4.2525	 4.1197	 1.3803	 5.4999	60.3989	99.9770	
   490	 7.6919	 3.7799	11.4718	 8.6632	 3.1196	11.7828	 8.8880	 3.1909	12.0788	63.6641	99.9991	
   491	 7.3688	 2.0583	 9.4271	 6.8146	 0.5113	 7.3258	 5.6747	 0.0875	 5.7620	63.0897	99.9987	
   492	 2.6211	-0.8048	 1.8163	 1.6749	-1.9073	-0.2324	 0.6333	-2.4480	-1.8148	60.6556	99.9995	
   493	-0.5147	-2.0187	-2.5335	-1.6200	-3.4085	-5.0286	-2.3491	-3.8704	-6.2196	60.8028	99.9916	
   494	-2.1289	-2.3705	-4.4994	-2.9643	-3.3858	-6.3501	-3.3396	-3.4425	-6.7822	58.7705	99.9847	
   495	-3.0814	-2.5539	-5.6353	-3.5761	-3.3889	-6.9650	-3.9329	-3.4427	-7.3758	58.5742	99.9949	
   496	-3.8591	-3.0624	-6.9215	-4.1771	-3.9783	-8.1553	-4.3193	-4.0017	-8.3211	59.7146	99.9912	
   497	-3.1582	-3.3774	-6.5357	-3.0348	-3.9707	-7.0055	-2.8236	-3.7507	-6.5744	60.4684	99.9910	
   498	-2.2775	-2.8501	-5.1276	-2.1178	-3.1093	-5.2272	-1.7925	-2.7301	-4.5227	59.2768	99.9915	
   499	-1.4581	-2.1815	-3.6396	-1.4450	-2.5659	-4.0109	-1.2688	-2.2316	-3.5006	59.0943	99.9907	
   500	-1.1653	-1.8968	-3.0621	-1.2316	-2.3056	-3.5372	-1.1565	-2.0255	-3.1821	58.8661	99.9924	
   501	-0.9234	-1.7926	-2.7160	-0.9859	-2.1800	-3.1659	-0.8795	-1.8176	-2.6972	58.6753	99.9900	
   502	-0.7050	-1.6880	-2.3930	-0.7402	-2.0544	-2.7946	-0.6125	-1.7741	-2.3867	59.0520	99.9924	
   503	-0.5559	-1.6858	-2.2417	-0.6092	-2.0253	-2.6345	-0.4864	-1.7287	-2.2152	58.9444	99.9923	
   504	-0.5129	-1.7489	-2.2619	-0.5328	-2.1071	-2.6399	-0.3716	-1.8711	-2.2429	59.4621	99.9931	
   505	-0.5822	-1.9707	-2.5529	-0.6398	-2.4050	-3.0448	-0.3883	-2.2430	-2.6313	60.2307	99.9910	
   506	-1.0870	-2.6248	-3.7119	-1.2999	-3.2887	-4.5886	-1.3964	-3.2717	-4.6682	60.5112	99.9948	
   507	-2.5916	-3.2227	-5.8143	-3.1237	-3.8708	-6.9945	-3.2863	-3.5333	-6.8197	57.8492	99.9815	
   508	-3.1465	-2.8328	-5.9793	-3.4627	-3.4221	-6.8848	-3.4709	-3.1863	-6.6573	58.2668	99.9876	
   509	-2.9985	-2.7268	-5.7253	-3.4135	-3.2888	-6.7023	-3.2295	-3.0797	-6.3093	58.5175	99.9814	
   510	-2.4290	-2.4060	-4.8351	-2.7859	-3.2501	-6.0360	-2.9236	-3.1698	-6.0935	59.3843	99.9885	
   511	-2.0961	-2.4698	-4.5658	-2.6168	-3.4812	-6.0980	-2.7743	-3.3245	-6.0989	59.5091	99.9767	
   512	-0.6409	-1.4246	-2.0655	-0.8913	-2.4053	-3.2965	-1.0086	-2.2037	-3.2124	60.0946	99.9811	
   513	 1.4263	-0.7342	 0.6921	 1.3519	-1.2039	 0.1480	 1.7262	-0.8917	 0.8345	60.3316	99.9813	
   514	 4.5990	 1.4131	 6.0121	 5.6728	 1.3806	 7.0534	 6.5947	 2.0886	 8.6833	61.6065	99.9880	
   515	 8.4515	 2.9188	11.3703	 9.0557	 1.7887	10.8444	 8.3992	 1.3252	 9.7242	65.3498	99.9962	
   516	 4.6692	-0.4098	 4.2594	 3.8315	-1.5456	 2.2860	 2.8374	-1.7519	 1.0854	60.9681	99.9972	
   517	 1.5861	-1.2927	 0.2935	 0.7644	-2.3393	-1.5749	-0.0609	-2.6584	-2.7194	60.2679	99.9985	
   518	 0.0374	-1.7236	-1.6862	-1.2083	-2.9099	-4.1182	-1.9694	-3.0333	-5.0028	58.4148	99.9833	
   519	-1.1340	-1.5341	-2.6682	-2.0289	-2.4487	-4.4776	-2.5039	-2.5447	-5.0487	58.0736	99.9898	
   520	-2.3215	-1.7128	-4.0343	-3.1155	-2.4348	-5.5503	-3.5204	-2.4494	-5.9698	56.8834	99.9922	
   521	-3.1738	-2.0435	-5.2173	-3.8461	-2.9235	-6.7696	-4.1093	-3.0566	-7.1661	58.2838	99.9913	
   522	-2.9342	-2.7021	-5.6363	-3.0897	-3.2182	-6.3079	-2.7720	-2.9955	-5.7677	59.3367	99.9844	
   523	-1.4278	-1.8344	-3.2623	-1.4739	-2.1583	-3.6322	-1.1926	-1.8449	-3.0376	58.8124	99.9891	
   524	-0.5605	-1.1512	-1.7117	-0.8958	-1.6088	-2.5047	-0.8410	-1.3756	-2.2167	58.2449	99.9881	
   525	-0.3975	-0.8120	-1.2094	-0.8038	-1.3330	-2.1368	-0.7481	-1.1026	-1.8509	58.1198	99.9851	
   526	-0.0802	-0.5121	-0.5923	-0.4561	-0.9899	-1.4461	-0.3739	-0.7432	-1.1172	58.0257	99.9855	
   527	 0.2271	-0.3678	-0.1407	-0.1788	-0.7933	-0.9721	-0.0970	-0.5353	-0.6324	57.8211	99.9858	
   528	 0.5057	-0.1813	 0.3243	 0.1613	-0.5709	-0.4095	 0.2781	-0.3561	-0.0780	58.1129	99.9882	
   529	 0.5925	-0.1727	 0.4198	 0.2649	-0.5458	-0.2809	 0.3669	-0.3455	 0.0213	58.1596	99.9895	
   530	 0.6426	-0.2463	 0.3962	 0.3288	-0.6095	-0.2807	 0.4295	-0.4755	-0.0461	58.4665	99.9915	
   531	 0.4795	-0.5856	-0.1061	 0.1823	-0.9962	-0.8139	 0.3288	-0.8776	-0.5489	58.9970	99.9903	
   532	 0.0480	-1.0751	-1.0271	-0.2574	-1.6152	-1.8725	-0.1134	-1.5847	-1.6982	59.8273	99.9901	
   533	-0.7806	-1.6450	-2.4256	-1.3177	-2.2683	-3.5860	-1.4958	-2.0016	-3.4974	57.8470	99.9849	
   534	-1.9845	-1.7143	-3.6988	-2.6415	-2.2460	-4.8875	-2.6401	-2.0769	-4.7171	57.2716	99.9833	
   535	-2.2827	-1.7188	-4.0014	-2.9633	-2.3926	-5.3560	-3.0684	-2.1654	-5.2339	57.0166	99.9796	
   536	-1.5857	-1.2449	-2.8306	-2.1346	-1.8563	-3.9910	-2.0275	-1.7597	-3.7874	58.2266	99.9828	
   537	-0.7607	-1.0953	-1.8560	-1.4751	-2.0688	-3.5439	-1.6747	-2.0463	-3.7211	58.9453	99.9800	
   538	 0.5305	-0.5243	 0.0062	-0.1783	-1.4375	-1.6158	-0.3275	-1.3352	-1.6627	58.9719	99.9766	
   539	 2.7792	 0.4271	 3.2063	 2.4889	 0.0251	 2.5140	 2.8678	 0.4017	 3.2694	59.3135	99.9748	
   540	 6.1214	 2.6488	 8.7702	 6.9149	 2.4423	 9.3572	 7.4516	 3.0449	10.4964	60.9839	99.9904	
   541	 8.9902	 3.3699	12.3601	 8.9125	 2.2162	11.1286	 8.1843	 1.7548	 9.9390	63.7499	99.9998	
   542	 5.3036	 0.4286	 5.7321	 4.3419	-0.8831	 3.4588	 3.1401	-1.3133	 1.8267	61.2461	99.9993	
   543	 1.1614	-1.3153	-0.1540	 0.1172	-2.3642	-2.2470	-0.8764	-2.6401	-3.5166	58.8115	99.9980	
   544	-0.9907	-1.8639	-2.8547	-2.4005	-3.0643	-5.4647	-3.4343	-3.1632	-6.5976	56.5159	99.9865	
   545	-2.9117	-1.7477	-4.6594	-3.8879	-2.6141	-6.5020	-4.4672	-2.6604	-7.1277	56.1245	99.9910	
   546	-3.9603	-1.8409	-5.8013	-4.7832	-2.5856	-7.3688	-5.2835	-2.6538	-7.9374	55.7401	99.9949	
   547	-4.9962	-2.4637	-7.4599	-5.6556	-3.2777	-8.9333	-5.8288	-3.4144	-9.2433	57.4208	99.9914	
   548	-4.5642	-2.5709	-7.1351	-4.6412	-2.9235	-7.5647	-4.2556	-2.5613	-6.8170	57.4952	99.9844	
   549	-3.1499	-1.4316	-4.5815	-3.2872	-1.7027	-4.9898	-3.0981	-1.3935	-4.4917	56.7455	99.9913	
   550	-2.5809	-0.6334	-3.2143	-2.8574	-1.0254	-3.8828	-2.6953	-0.7564	-3.4518	56.5845	99.9877	
   551	-2.0778	-0.2491	-2.3269	-2.3825	-0.6039	-2.9865	-2.1867	-0.3126	-2.4994	56.4264	99.9863	
   552	-1.7870	 0.0046	-1.7825	-2.0178	-0.3148	-2.3327	-1.8243	-0.0509	-1.8753	56.5722	99.9893	
   553	-1.5697	 0.2130	-1.3567	-1.7762	-0.0371	-1.8132	-1.5391	 0.1961	-1.3431	56.5952	99.9908	
   554	-1.4831	 0.3410	-1.1420	-1.6784	 0.1134	-1.5650	-1.4392	 0.2927	-1.1467	56.6855	99.9924	
   555	-1.6024	 0.1929	-1.4095	-1.8610	-0.0893	-1.9503	-1.7101	 0.0886	-1.6216	56.5236	99.9924	
   556	-1.9167	-0.0603	-1.9769	-2.0843	-0.2913	-2.3757	-1.7865	-0.1062	-1.8928	56.9320	99.9916	
   557	-1.9369	-0.2519	-2.1888	-2.1203	-0.6486	-2.7689	-1.9281	-0.6018	-2.5300	57.7698	99.9936	
   558	-2.1908	-0.6620	-2.8527	-2.7623	-1.1344	-3.8967	-2.7872	-0.9158	-3.7031	56.0461	99.9860	
   559	-3.1975	-0.8339	-4.0313	-3.9259	-1.3742	-5.3001	-4.1937	-1.2462	-5.4400	54.9413	99.9905	
   560	-4.0398	-1.0090	-5.0488	-4.7269	-1.4681	-6.1949	-4.7688	-1.2349	-6.0037	54.5894	99.9844	
   561	-3.5439	-0.6142	-4.1580	-4.1016	-1.2505	-5.3521	-4.3167	-1.1428	-5.4596	55.5287	99.9910	
   562	-3.1730	-0.8188	-3.9918	-3.8736	-1.6256	-5.4993	-4.1248	-1.5643	-5.6892	56.2255	99.9864	
   563	-2.2011	-0.5787	-2.7798	-2.9715	-1.3277	-4.2992	-3.1048	-1.1153	-4.2202	56.1100	99.9763	
   564	 0.0630	 0.3672	 0.4302	-0.5937	-0.1465	-0.7402	-0.7240	 0.2678	-0.4563	55.7226	99.9780	
   565	 2.0998	 1.8003	 3.9001	 2.2463	 1.7964	 4.0427	 2.5878	 2.4731	 5.0608	56.6352	99.9871	
   566	 5.0990	 3.9303	 9.0293	 5.4541	 3.6436	 9.0977	 5.4973	 3.7594	 9.2566	59.1807	99.9990	
   567	 4.2175	 2.0590	 6.2765	 3.4608	 0.8945	 4.3553	 2.1384	 0.6774	 2.8157	58.0747	99.9997	
   568	 0.2045	-0.2324	-0.0279	-1.0023	-1.0299	-2.0322	-2.1183	-1.0262	-3.1446	54.4836	99.9969	
   569	-1.5681	-0.3682	-1.9364	-3.1137	-1.4282	-4.5419	-4.2937	-1.6366	-5.9303	53.7745	99.9944	
   570	-3.7750	-0.3086	-4.0835	-5.1673	-1.1206	-6.2879	-5.9909	-1.0429	-7.0339	51.6231	99.9868	
   571	-5.1549	 0.0511	-5.1038	-6.2664	-0.5473	-6.8137	-6.9153	-0.4945	-7.4099	50.9656	99.9937	
   572	-6.3812	-0.1216	-6.5027	-7.4578	-0.6882	-8.1460	-7.9797	-0.8019	-8.7817	51.1148	99.9956	
   573	-7.1117	-0.7505	-7.8622	-7.7125	-1.2834	-8.9959	-7.7084	-1.1735	-8.8820	53.1887	99.9882	
   574	-5.9044	-0.0221	-5.9265	-6.1290	-0.0888	-6.2178	-5.7643	 0.2740	-5.4905	53.1290	99.9892	
   575	-4.9751	 1.0128	-3.9624	-5.3558	 0.8645	-4.4913	-5.2158	 1.1833	-4.0326	52.3322	99.9908	
   576	-4.5939	 1.6953	-2.8985	-5.0179	 1.4852	-3.5328	-4.8432	 1.7112	-3.1321	52.5419	99.9902	
   577	-4.2164	 2.0770	-2.1394	-4.6058	 1.8808	-2.7250	-4.3787	 2.1047	-2.2742	52.7073	99.9898	
   578	-3.7112	 2.3731	-1.3381	-4.1501	 2.2132	-1.9369	-3.9510	 2.4751	-1.4759	52.3832	99.9892	
   579	-3.5777	 2.6195	-0.9582	-4.0165	 2.5017	-1.5148	-3.8160	 2.7632	-1.0529	52.1590	99.9899	
   580	-3.4983	 2.8774	-0.6209	-3.8688	 2.7990	-1.0698	-3.6161	 3.0582	-0.5579	52.2249	99.9906	
   581	-3.3453	 3.0611	-0.2841	-3.7066	 3.0020	-0.7045	-3.4732	 3.2836	-0.1897	52.0342	99.9910	
   582	-3.2219	 3.2714	 0.0495	-3.5568	 3.2232	-0.3336	-3.3134	 3.4969	 0.1834	52.0479	99.9915	
   583	-3.0485	 3.4081	 0.3596	-3.3909	 3.3770	-0.0139	-3.1503	 3.6671	 0.5167	51.9322	99.9913	
   584	-2.9210	 3.5612	 0.6403	-3.2852	 3.5452	 0.2600	-3.0171	 3.8299	 0.8127	51.8901	99.9907	
   585	-2.8659	 3.6847	 0.8187	-3.2394	 3.6250	 0.3855	-3.0474	 3.9125	 0.8650	51.7341	99.9914	
   586	-2.9017	 3.7373	 0.8355	-3.3442	 3.6894	 0.3452	-3.1624	 3.9532	 0.7906	51.4950	99.9912	
   587	-2.9283	 3.8105	 0.8821	-3.4239	 3.7175	 0.2936	-3.2660	 3.9897	 0.7237	51.3277	99.9899	
   588	-2.9162	 3.8777	 0.9615	-3.4189	 3.7980	 0.3791	-3.2826	 4.1035	 0.8209	51.0643	99.9898	
   589	-2.7988	 3.9947	 1.1958	-3.2617	 3.9206	 0.6589	-3.1109	 4.2227	 1.1118	51.1982	99.9903	
   590	-2.6682	 4.0751	 1.4069	-3.1719	 4.0533	 0.8814	-3.0021	 4.3701	 1.3680	50.9644	99.9897	
   591	-2.6060	 4.1880	 1.5820	-3.0600	 4.2125	 1.1525	-2.8688	 4.5329	 1.6640	50.9623	99.9907	
   592	-2.5479	 4.2388	 1.6909	-3.0213	 4.2879	 1.2666	-2.7895	 4.5828	 1.7933	51.0242	99.9904	
   593	-2.5142	 4.2744	 1.7602	-2.9585	 4.3137	 1.3552	-2.7596	 4.5903	 1.8305	51.0964	99.9917	
   594	-2.4713	 4.2113	 1.7400	-2.9768	 4.2379	 1.2611	-2.7606	 4.4767	 1.7160	51.2088	99.9909	
   595	-2.4855	 4.1130	 1.6275	-3.0339	 4.0868	 1.0529	-2.8823	 4.3099	 1.4274	51.1935	99.9911	
   596	-2.7170	 3.8062	 1.0893	-3.3546	 3.6314	 0.2768	-3.2999	 3.7200	 0.4200	51.6400	99.9920	
   597	-3.3547	 3.2793	-0.0754	-4.0968	 3.1742	-0.9226	-4.1231	 3.4172	-0.7059	50.3737	99.9903	
   598	-4.0877	 3.0967	-0.9910	-4.8226	 3.0880	-1.7346	-4.7456	 3.4214	-1.3243	49.7117	99.9878	
   599	-4.4360	 3.1660	-1.2700	-5.0877	 3.1954	-1.8923	-4.9430	 3.5571	-1.3860	49.6264	99.9879	
   600	-4.4075	 3.2432	-1.1642	-5.0207	 3.2882	-1.7325	-4.8547	 3.6577	-1.1970	49.6841	99.9882	
   601	-4.3330	 3.3040	-1.0290	-4.9554	 3.3542	-1.6012	-4.7853	 3.7352	-1.0503	49.6261	99.9877	
   602	-4.2738	 3.3703	-0.9035	-4.9034	 3.4249	-1.4785	-4.7221	 3.8088	-0.9135	49.6076	99.9873	
   603	-4.2320	 3.4110	-0.8210	-4.8531	 3.4688	-1.3843	-4.7010	 3.8672	-0.8338	49.4948	99.9879	
   604	-4.1902	 3.4516	-0.7385	-4.8514	 3.4956	-1.3558	-4.6873	 3.8984	-0.7891	49.4449	99.9864	
   605	-4.1004	 3.5069	-0.5934	-4.7375	 3.5787	-1.1588	-4.5145	 3.9392	-0.5754	49.7435	99.9870	
   606	-3.8921	 3.5754	-0.3167	-4.5305	 3.6289	-0.9016	-4.3395	 4.0153	-0.3243	49.7249	99.9867	
   607	-3.7747	 3.5731	-0.2016	-4.4490	 3.6275	-0.8215	-4.2867	 4.0146	-0.2722	49.6258	99.9867	
   608	-3.7747	 3.5731	-0.2016	-4.4536	 3.6634	-0.7902	-4.2547	 4.0573	-0.1975	49.5839	99.9862	
   609	-3.7094	 3.6133	-0.0961	-4.3899	 3.7026	-0.6874	-4.2012	 4.0684	-0.1329	49.6570	99.9870	
   610	-3.6614	 3.6279	-0.0335	-4.3538	 3.7377	-0.6160	-4.1624	 4.1266	-0.0359	49.5213	99.9866	
   611	-3.5399	 3.6877	 0.1478	-4.1812	 3.7796	-0.4017	-3.9928	 4.2106	 0.2176	49.6227	99.9862	
   612	-3.3592	 3.6945	 0.3353	-4.0166	 3.8036	-0.2130	-3.8552	 4.2519	 0.3966	49.5215	99.9864	
   613	-3.3102	 3.7247	 0.4145	-3.9397	 3.8381	-0.1016	-3.7866	 4.3176	 0.5309	49.4802	99.9865	
   614	-3.2112	 3.8005	 0.5893	-3.8532	 3.9172	 0.0640	-3.6997	 4.3948	 0.6950	49.4570	99.9863	
   615	-3.1377	 3.8458	 0.7080	-3.7904	 3.9430	 0.1525	-3.6515	 4.4138	 0.7621	49.4854	99.9862	
   616	-3.0887	 3.8759	 0.7872	-3.7463	 3.9959	 0.2496	-3.5391	 4.4280	 0.8888	49.7204	99.9858	
   617	-2.9437	 3.8159	 0.8723	-3.6657	 3.9811	 0.3154	-3.4700	 4.4036	 0.9334	49.5501	99.9859	
   618	-2.9252	 3.7377	 0.8125	-3.6317	 3.8732	 0.2415	-3.4973	 4.3413	 0.8439	49.4466	99.9860	
   619	-2.9446	 3.6810	 0.7365	-3.6687	 3.8246	 0.1559	-3.5382	 4.2478	 0.7095	49.5267	99.9871	
   620	-2.9822	 3.5832	 0.6009	-3.7365	 3.7184	-0.0182	-3.6204	 4.1510	 0.5304	49.4460	99.9864	
   621	-3.0587	 3.4913	 0.4326	-3.7956	 3.6433	-0.1523	-3.6614	 4.0575	 0.3960	49.5630	99.9871	
   622	-3.0321	 3.4181	 0.3860	-3.7536	 3.5531	-0.2005	-3.5987	 3.9275	 0.3286	49.9090	99.9875	
   623	-3.0095	 3.2828	 0.2732	-3.7708	 3.3879	-0.3829	-3.6770	 3.7992	 0.1221	49.7249	99.9868	
   624	-3.0462	 3.2005	 0.1543	-3.8369	 3.3085	-0.5285	-3.7186	 3.6940	-0.0247	49.8168	99.9863	
   625	-3.0319	 3.1794	 0.1475	-3.8182	 3.2813	-0.5369	-3.6841	 3.6818	-0.0024	49.8715	99.9854	
   626	-3.0411	 3.1588	 0.1178	-3.8340	 3.2458	-0.5883	-3.7092	 3.6547	-0.0546	49.8561	99.9850	
   627	-3.0257	 3.1533	 0.1276	-3.8066	 3.2498	-0.5568	-3.6517	 3.6344	-0.0174	50.0335	99.9853	
   628	-2.9175	 3.1304	 0.2130	-3.6878	 3.1941	-0.4937	-3.5503	 3.5626	 0.0122	50.2588	99.9857	
   629	-2.9072	 3.0472	 0.1400	-3.7389	 3.1368	-0.6021	-3.5851	 3.4730	-0.1122	50.2237	99.9853	
   630	-2.9337	 3.0010	 0.0673	-3.7502	 3.0654	-0.6848	-3.6501	 3.4660	-0.1842	50.0117	99.9849	
   631	-2.9684	 2.9498	-0.0185	-3.8271	 3.0309	-0.7962	-3.6849	 3.3764	-0.3087	50.1439	99.9846	
   632	-3.0092	 2.9247	-0.0845	-3.8429	 2.9954	-0.8475	-3.7155	 3.3572	-0.3584	50.1439	99.9849	
   633	-2.9326	 2.8972	-0.0354	-3.7756	 2.9853	-0.7903	-3.5997	 3.3283	-0.2716	50.3318	99.9842	
   634	-2.8376	 2.9109	 0.0733	-3.6712	 3.0238	-0.6474	-3.5121	 3.4172	-0.0950	50.1360	99.9840	
   635	-2.7263	 2.9346	 0.2083	-3.5357	 3.0170	-0.5187	-3.4017	 3.3962	-0.0056	50.3324	99.9850	
   636	-2.7099	 2.8253	 0.1154	-3.5370	 2.8873	-0.6497	-3.4807	 3.2562	-0.2246	50.2572	99.9865	
   637	-2.8455	 2.6671	-0.1784	-3.7711	 2.7302	-1.0409	-3.7081	 3.0908	-0.6174	50.0470	99.9845	
   638	-2.8812	 2.6004	-0.2808	-3.8115	 2.6280	-1.1835	-3.7532	 2.9269	-0.8265	50.3490	99.9854	
   639	-2.9239	 2.4248	-0.4991	-3.8976	 2.4460	-1.4516	-3.8850	 2.7876	-1.0976	50.0881	99.9845	
   640	-3.0158	 2.3384	-0.6773	-3.9850	 2.3535	-1.6314	-3.9910	 2.6871	-1.3040	50.0920	99.9852	
   641	-3.0912	 2.2621	-0.8292	-4.1093	 2.2125	-1.8969	-4.1494	 2.4972	-1.6522	50.2199	99.9851	
   642	-3.1167	 2.2315	-0.8853	-4.1809	 2.1555	-2.0253	-4.2219	 2.4629	-1.7591	50.1027	99.9828	
   643	-3.0086	 2.3279	-0.6807	-4.0137	 2.2198	-1.7939	-3.9887	 2.5304	-1.4584	50.5532	99.9812	
   644	-2.7503	 2.4421	-0.3083	-3.7564	 2.3139	-1.4425	-3.6998	 2.6442	-1.0558	50.7387	99.9789	
   645	-2.5656	 2.5110	-0.0545	-3.6159	 2.3876	-1.2283	-3.5561	 2.6893	-0.8669	50.7788	99.9787	
   646	-2.5961	 2.4027	-0.1934	-3.7481	 2.2287	-1.5194	-3.8047	 2.4654	-1.3394	50.5938	99.9807	
   647	-2.8686	 2.1902	-0.6784	-4.0696	 1.9792	-2.0904	-4.1380	 2.1995	-1.9386	50.5582	99.9795	
   648	-3.0890	 2.0545	-1.0345	-4.2895	 1.8308	-2.4588	-4.2849	 2.0055	-2.2794	50.9016	99.9783	
   649	-3.0827	 1.9090	-1.1737	-4.3346	 1.5452	-2.7894	-4.5377	 1.7111	-2.8266	50.7612	99.9803	
   650	-3.2490	 1.7619	-1.4872	-4.5429	 1.3653	-3.1776	-4.7550	 1.5181	-3.2369	50.7572	99.9791	
   651	-3.5265	 1.4716	-2.0549	-4.9189	 1.0048	-3.9141	-5.2593	 1.1447	-4.1147	50.3884	99.9793	
   652	-3.8643	 1.2189	-2.6454	-5.3009	 0.8725	-4.4284	-5.6284	 1.1612	-4.4673	49.3435	99.9756	
   653	-4.1186	 1.2862	-2.8324	-5.2852	 1.4494	-3.8358	-5.2671	 1.9869	-3.2803	48.4803	99.9771	
   654	-3.4831	 2.0208	-1.4623	-4.0148	 2.5285	-1.4863	-3.5969	 2.8896	-0.7074	50.7657	99.9903	
   655	-2.8074	 2.2875	-0.5198	-3.3243	 2.8121	-0.5121	-3.0541	 3.2194	 0.1653	50.4864	99.9927	
   656	-2.6398	 2.2115	-0.4283	-3.2141	 2.7253	-0.4889	-3.0472	 3.2350	 0.1876	49.9475	99.9925	
   657	-2.5144	 2.3336	-0.1808	-3.0263	 2.6863	-0.3400	-2.9910	 2.9993	 0.0082	50.8450	99.9957	
   658	-3.1246	 1.8684	-1.2562	-3.7397	 2.3628	-1.3769	-3.5060	 2.9354	-0.5707	49.7998	99.9893	
   659	-2.6868	 2.2125	-0.4743	-3.3597	 2.5711	-0.7886	-3.2892	 2.9248	-0.3646	50.3286	99.9932	
   660	-2.7970	 2.0850	-0.7120	-3.5115	 2.4261	-1.0854	-3.4520	 2.8564	-0.5957	50.0196	99.9917	
   661	-2.7940	 2.1316	-0.6624	-3.5223	 2.4710	-1.0513	-3.4445	 2.8837	-0.5609	50.0588	99.9914	
   662	-2.7491	 2.2189	-0.5302	-3.4923	 2.5152	-0.9771	-3.4686	 2.9702	-0.4985	49.8374	99.9910	
   663	-2.7257	 2.3378	-0.3879	-3.4786	 2.6268	-0.8517	-3.4338	 3.0598	-0.3741	49.8868	99.9906	
   664	-2.6329	 2.4397	-0.1932	-3.3364	 2.7273	-0.6090	-3.2527	 3.1397	-0.1131	50.1873	99.9909	
   665	-2.4390	 2.5293	 0.0903	-3.1489	 2.7913	-0.3576	-3.1076	 3.2083	 0.1007	50.1873	99.9912	
   666	-2.3992	 2.5389	 0.1397	-3.1489	 2.7913	-0.3576	-3.1374	 3.2009	 0.0634	50.0689	99.9912	
   667	-2.4461	 2.5398	 0.0937	-3.2170	 2.7880	-0.4291	-3.2133	 3.2097	-0.0037	49.9311	99.9908	
   668	-2.5166	 2.5412	 0.0246	-3.3197	 2.7763	-0.5434	-3.3265	 3.1838	-0.1428	49.8458	99.9905	
   669	-2.6034	 2.5326	-0.0708	-3.4153	 2.7689	-0.6464	-3.4030	 3.1808	-0.2223	49.8013	99.9899	
   670	-2.5779	 2.5632	-0.0147	-3.3471	 2.7723	-0.5749	-3.3495	 3.1919	-0.1577	49.9346	99.9904	
   671	-2.5289	 2.5933	 0.0644	-3.3322	 2.7944	-0.5378	-3.3311	 3.2034	-0.1278	49.9192	99.9898	
   672	-2.5749	 2.6098	 0.0350	-3.3907	 2.8356	-0.5551	-3.3926	 3.2551	-0.1376	49.7228	99.9899	
   673	-2.6178	 2.6730	 0.0551	-3.4148	 2.8852	-0.5296	-3.4020	 3.2944	-0.1077	49.8117	99.9899	
   674	-2.6475	 2.6995	 0.0520	-3.4796	 2.9356	-0.5441	-3.4757	 3.3384	-0.1374	49.5944	99.9900	
   675	-2.6833	 2.7521	 0.0689	-3.4975	 2.9761	-0.5214	-3.4614	 3.3813	-0.0802	49.6990	99.9893	
   676	-2.6108	 2.7818	 0.1710	-3.4206	 3.0106	-0.4100	-3.4125	 3.4120	-0.0006	49.6598	99.9902	
   677	-2.6251	 2.8028	 0.1777	-3.4729	 3.0428	-0.4301	-3.4585	 3.4283	-0.0304	49.5604	99.9898	
   678	-2.7017	 2.8303	 0.1286	-3.5527	 3.0710	-0.4817	-3.5391	 3.4567	-0.0824	49.4713	99.9898	
   679	-2.7926	 2.8788	 0.0862	-3.6192	 3.0945	-0.5247	-3.6243	 3.5048	-0.1196	49.3873	99.9899	
   680	-2.8458	 2.9058	 0.0601	-3.6857	 3.1180	-0.5677	-3.6865	 3.5448	-0.1418	49.2641	99.9891	
   681	-2.8581	 2.9580	 0.0999	-3.6745	 3.1894	-0.4851	-3.6545	 3.5874	-0.0672	49.3692	99.9900	
   682	-2.8622	 3.0152	 0.1529	-3.6728	 3.2162	-0.4566	-3.6862	 3.6466	-0.0397	49.2408	99.9897	
   683	-2.9153	 3.0422	 0.1268	-3.7517	 3.2578	-0.4939	-3.7667	 3.6751	-0.0918	49.1014	99.9898	
   684	-2.9838	 3.0747	 0.0909	-3.8502	 3.3132	-0.5371	-3.8404	 3.7191	-0.1215	48.9780	99.9893	
   685	-3.0747	 3.1232	 0.0485	-3.9300	 3.3413	-0.5887	-3.9210	 3.7475	-0.1735	48.9671	99.9892	
   686	-3.1503	 3.1662	 0.0159	-4.0090	 3.3829	-0.6260	-3.9879	 3.8071	-0.1808	48.8545	99.9885	
   687	-3.1473	 3.2129	 0.0655	-3.9852	 3.4362	-0.5490	-3.9850	 3.8541	-0.1310	48.8207	99.9896	
   688	-3.1851	 3.2344	 0.0492	-4.0501	 3.4865	-0.5635	-4.0634	 3.9178	-0.1458	48.5343	99.9896	
   689	-3.2679	 3.2879	 0.0200	-4.1423	 3.5328	-0.6095	-4.1094	 3.9340	-0.1755	48.6523	99.9889	
   690	-3.3426	 3.4658	 0.1232	-4.1119	 3.6934	-0.4185	-4.1582	 4.1971	 0.0388	48.2821	99.9902	
   691	-2.7455	 3.7290	 0.9835	-3.5780	 3.9707	 0.3927	-3.5518	 4.2167	 0.6647	49.2834	99.9921	
   692	-2.1692	 3.4268	 1.2576	-3.1967	 3.5482	 0.3515	-3.3524	 3.8225	 0.4699	49.1474	99.9907	
   693	-2.1509	 3.4680	 1.3171	-3.1684	 3.5656	 0.3972	-3.3524	 3.8225	 0.4699	49.2052	99.9914	
   694	-2.3367	 3.3835	 1.0468	-3.4498	 3.5211	 0.0713	-3.7115	 3.8114	 0.0998	48.4107	99.9915	
   695	-2.7318	 3.3343	 0.6025	-3.9066	 3.4975	-0.4091	-4.2039	 3.8295	-0.3745	47.6643	99.9910	
   696	-3.0005	 3.4227	 0.4222	-4.1962	 3.7574	-0.4388	-4.3745	 4.1176	-0.2570	47.0716	99.9900	
   697	-3.1865	 3.5769	 0.3904	-4.3469	 4.0642	-0.2827	-4.3963	 4.5330	 0.1366	46.5091	99.9880	
   698	-3.2775	 3.7448	 0.4673	-4.2857	 4.2824	-0.0033	-4.2523	 4.6800	 0.4276	47.0601	99.9905	
   699	-3.3255	 3.7302	 0.4047	-4.3211	 4.2606	-0.0604	-4.3443	 4.7125	 0.3680	46.7687	99.9910	
   700	-3.2798	 3.9524	 0.6726	-4.1600	 4.5532	 0.3931	-4.1092	 5.0071	 0.8979	46.9685	99.9919	
   701	-3.1196	 4.1256	 1.0060	-3.9696	 4.7737	 0.8041	-3.8653	 5.2507	 1.3853	46.9902	99.9915	
   702	-3.0748	 4.2130	 1.1382	-3.8469	 4.8879	 1.0410	-3.6703	 5.4636	 1.7932	47.0147	99.9904	
   703	-2.9819	 4.3149	 1.3329	-3.6402	 5.0410	 1.4008	-3.4070	 5.6403	 2.2333	47.2647	99.9912	
   704	-2.9716	 4.2317	 1.2600	-3.6789	 4.9656	 1.2867	-3.4766	 5.4611	 1.9844	47.3879	99.9922	
   705	-3.4116	 4.0951	 0.6835	-4.1482	 4.9601	 0.8119	-3.9025	 5.5097	 1.6070	46.6748	99.9916	
   706	-3.8918	 4.3071	 0.4153	-4.5297	 5.1634	 0.6337	-4.1537	 5.5325	 1.3786	47.3672	99.9916	
   707	-4.1331	 4.5766	 0.4435	-4.6180	 5.5989	 0.9809	-4.0626	 6.1657	 2.1031	46.8808	99.9907	
   708	-4.0435	 4.8706	 0.8271	-4.5569	 5.5978	 1.0410	-4.2648	 6.0274	 1.7625	47.1751	99.9937	
   709	-3.9450	 5.4239	 1.4789	-4.0076	 6.0136	 2.0060	-3.4543	 6.4125	 2.9581	49.2606	99.9944	
   710	-3.4021	 5.8178	 2.4157	-3.6281	 6.6469	 3.0188	-2.7917	 7.1676	 4.3758	48.6400	99.9882	
   711	-2.6927	 6.1202	 3.4275	-2.9463	 6.8994	 3.9531	-2.4187	 7.3116	 4.8928	48.4749	99.9932	
   712	-2.0876	 6.6271	 4.5394	-2.3347	 7.2246	 4.8899	-1.9488	 7.5053	 5.5564	49.0656	99.9947	
   713	-1.5685	 7.2602	 5.6917	-1.9039	 7.5931	 5.6892	-1.6380	 7.6893	 6.0512	49.7163	99.9950	
   714	-1.2278	 7.6789	 6.4511	-1.8177	 7.7751	 5.9573	-1.7519	 7.6516	 5.8996	49.7825	99.9948	
   715	-1.1309	 7.8430	 6.7121	-1.8705	 7.9102	 6.0397	-1.8681	 7.7706	 5.9024	49.2914	99.9944	
   716	-1.0504	 7.9971	 6.9467	-1.8513	 7.9993	 6.1480	-1.9627	 7.8580	 5.8952	48.9578	99.9951	
   717	-1.1292	 8.1128	 6.9837	-1.9880	 8.0956	 6.1076	-2.0892	 7.9027	 5.8133	48.8993	99.9945	
   718	-1.1599	 8.2432	 7.0832	-2.0203	 8.2304	 6.2100	-2.1429	 8.0835	 5.9405	48.5699	99.9948	
   719	-1.2255	 8.4417	 7.2162	-2.0963	 8.4285	 6.3322	-2.2379	 8.2610	 6.0229	48.3616	99.9949	
   720	-1.3471	 8.5012	 7.1541	-2.2692	 8.4896	 6.2204	-2.3795	 8.2511	 5.8714	48.3834	99.9941	
   721	-1.3655	 8.5794	 7.2139	-2.2916	 8.5660	 6.2744	-2.4525	 8.3068	 5.8542	48.2290	99.9944	
   722	-1.5341	 8.6398	 7.1058	-2.4953	 8.5695	 6.0742	-2.6761	 8.3019	 5.6257	48.1062	99.9945	
   723	-1.7526	 8.6546	 6.9020	-2.7725	 8.5920	 5.8195	-2.9241	 8.2816	 5.3574	47.9604	99.9937	
   724	-1.9303	 8.6945	 6.7641	-2.9471	 8.6263	 5.6792	-3.1081	 8.3466	 5.2384	47.7097	99.9939	
   725	-2.0539	 8.7229	 6.6690	-3.1145	 8.6649	 5.5504	-3.2781	 8.3527	 5.0745	47.5345	99.9935	
   726	-2.1336	 8.7037	 6.5702	-3.1827	 8.6616	 5.4789	-3.3357	 8.3730	 5.0373	47.4350	99.9936	
   727	-2.1622	 8.7458	 6.5836	-3.2608	 8.7166	 5.4558	-3.4392	 8.4096	 4.9703	47.1864	99.9934	
   728	-2.3317	 8.7907	 6.4590	-3.4354	 8.7509	 5.3155	-3.6052	 8.3843	 4.7790	47.2500	99.9930	
   729	-2.4707	 8.8246	 6.3540	-3.6295	 8.7989	 5.1694	-3.7893	 8.4494	 4.6600	46.8998	99.9926	
   730	-2.6076	 8.8896	 6.2821	-3.7679	 8.8683	 5.1005	-3.9773	 8.5458	 4.5683	46.5091	99.9932	
   731	-2.6801	 8.9793	 6.2992	-3.8327	 8.9187	 5.0860	-3.9989	 8.5774	 4.5784	46.7119	99.9929	
   732	-2.6240	 8.9989	 6.3749	-3.7965	 8.9538	 5.1573	-3.9670	 8.6201	 4.6530	46.6002	99.9928	
   733	-2.6863	 9.0054	 6.3191	-3.9295	 9.0008	 5.0713	-4.1025	 8.6140	 4.5114	46.3739	99.9919	
   734	-2.8650	 9.0297	 6.1647	-4.1003	 8.9858	 4.8855	-4.3070	 8.6323	 4.3252	46.1653	99.9926	
   735	-2.9876	 9.0737	 6.0860	-4.2200	 9.0281	 4.8081	-4.4234	 8.6494	 4.2259	46.1397	99.9925	
   736	-3.1408	 9.1286	 5.9878	-4.3796	 9.0845	 4.7049	-4.5845	 8.7063	 4.1217	45.9556	99.9925	
   737	-3.0704	 9.1272	 6.0568	-4.3301	 9.1150	 4.7848	-4.5166	 8.7603	 4.2436	45.8363	99.9922	
   738	-3.0387	 9.1318	 6.0930	-4.2848	 9.0784	 4.7936	-4.5180	 8.7368	 4.2187	45.8433	99.9929	
   739	-3.1102	 9.1176	 6.0074	-4.4274	 9.0808	 4.6534	-4.6725	 8.7075	 4.0348	45.5994	99.9923	
   740	-3.2215	 9.0939	 5.8724	-4.5700	 9.0832	 4.5133	-4.7965	 8.6973	 3.9007	45.4536	99.9917	
   741	-3.3277	 9.1479	 5.8202	-4.6934	 9.1748	 4.4814	-4.9026	 8.7888	 3.8860	45.2218	99.9913	
   742	-3.3860	 9.2165	 5.8305	-4.7121	 9.2019	 4.4899	-4.8796	 8.7806	 3.9009	45.5994	99.9912	
   743	-3.2696	 9.1987	 5.9291	-4.6190	 9.1691	 4.5501	-4.8721	 8.8080	 3.9358	45.2413	99.9922	
   744	-3.2991	 9.1058	 5.8067	-4.7142	 9.0588	 4.3446	-5.0140	 8.6962	 3.6821	45.0061	99.9921	
   745	-3.4910	 9.0474	 5.5564	-4.9063	 9.0307	 4.1245	-5.1584	 8.6393	 3.4808	45.0393	99.9915	
   746	-3.5635	 9.0177	 5.4542	-5.0222	 9.0238	 4.0015	-5.2735	 8.6800	 3.4064	44.6654	99.9912	
   747	-3.6453	 9.0868	 5.4415	-5.1041	 9.1280	 4.0240	-5.3436	 8.7827	 3.4390	44.4865	99.9910	
   748	-3.6882	 9.1499	 5.4617	-5.1494	 9.1646	 4.0152	-5.3896	 8.7990	 3.4092	44.5384	99.9910	
   749	-3.6034	 9.1275	 5.5240	-5.0484	 9.1495	 4.1011	-5.2901	 8.7938	 3.5036	44.6133	99.9912	
   750	-3.5831	 9.1997	 5.6166	-5.0371	 9.2209	 4.1838	-5.3257	 8.8843	 3.5585	44.3525	99.9917	
   751	-3.5872	 9.2569	 5.6697	-5.0674	 9.2795	 4.2121	-5.3527	 8.9238	 3.5710	44.2913	99.9914	
   752	-3.5689	 9.2980	 5.7292	-5.0445	 9.3194	 4.2749	-5.3653	 9.0062	 3.6408	44.0584	99.9920	
   753	-3.5097	 9.3643	 5.8546	-5.0121	 9.4039	 4.3918	-5.3705	 9.1159	 3.7454	43.7315	99.9922	
   754	-3.5690	 9.4174	 5.8484	-5.0653	 9.4227	 4.3574	-5.4320	 9.1676	 3.7356	43.6443	99.9924	
   755	-3.4933	 9.2550	 5.7617	-4.9381	 9.2818	 4.3437	-5.2683	 9.0559	 3.7874	43.9379	99.9925	
   756	-3.3266	 9.0441	 5.7175	-4.7919	 9.2301	 4.4383	-5.0753	 9.0416	 3.9662	43.7174	99.9917	
   757	-3.3980	 8.9106	 5.5126	-4.8014	 9.1856	 4.3841	-5.1199	 9.0814	 3.9613	43.3310	99.9927	
   758	-3.4265	 8.8333	 5.4069	-4.8625	 9.1866	 4.3240	-5.1584	 9.1249	 3.9664	42.9820	99.9922	
   759	-3.5623	 8.7945	 5.2323	-4.9137	 9.1293	 4.2156	-5.2823	 8.9229	 3.6405	43.4157	99.9921	
   760	-4.0000	 8.4504	 4.4504	-5.1339	 9.3030	 4.1691	-5.2341	 9.4275	 4.1933	42.3493	99.9914	
   761	-3.8197	 8.9346	 5.1149	-5.1472	 9.3077	 4.1605	-5.8677	 9.3456	 3.4778	41.2853	99.9955	
   762	-4.7027	 8.6149	 3.9122	-5.9723	 9.2635	 3.2912	-6.0236	 9.2927	 3.2690	42.2835	99.9908	
   763	-4.8212	 8.6017	 3.7806	-5.9819	 9.2189	 3.2370	-6.1770	 9.1851	 3.0079	42.3646	99.9917	
   764	-4.8030	 8.7622	 3.9593	-5.9089	 9.6248	 3.7159	-5.9523	 9.5973	 3.6449	42.1772	99.9888	
   765	-4.7882	 9.3535	 4.5653	-5.7139	10.5700	 4.8561	-5.8516	10.9706	 5.1189	39.9163	99.9922	
   766	-4.4563	10.3640	 5.9077	-5.1297	11.6517	 6.5220	-5.0242	11.8294	 6.8051	41.3663	99.9868	
   767	-4.2160	 8.9892	 4.7732	-5.2024	 9.4026	 4.2002	-5.3092	 8.9624	 3.6531	45.1041	99.9862	
   768	-5.4496	 6.8862	 1.4367	-6.4087	 6.9579	 0.5491	-6.3603	 6.6418	 0.2815	46.8955	99.9921	
   769	-5.8984	 6.3711	 0.4727	-6.6310	 7.2077	 0.5767	-5.9333	 7.6781	 1.7446	44.9050	99.9838	
   770	-5.0887	 6.5261	 1.4374	-6.3621	 6.2905	-0.0717	-6.7697	 5.7972	-0.9726	46.6398	99.9936	
   771	-6.8676	 5.4460	-1.4216	-7.5822	 6.0158	-1.5664	-7.2001	 6.4529	-0.7473	44.8367	99.9889	
   772	-6.6589	 6.1268	-0.5321	-7.2850	 6.8564	-0.4287	-6.7250	 7.0225	 0.2974	45.6049	99.9899	
   773	-6.7657	 5.6878	-1.0779	-7.2555	 6.7843	-0.4713	-6.5447	 7.2825	 0.7377	44.6595	99.9894	
   774	-6.3824	 6.4015	 0.0191	-6.6895	 7.4682	 0.7787	-6.0844	 7.8993	 1.8148	44.9385	99.9924	
   775	-6.2003	 6.0657	-0.1346	-6.6107	 6.9881	 0.3774	-6.0398	 7.3739	 1.3340	45.4426	99.9920	
   776	-6.2341	 6.1494	-0.0847	-6.6044	 7.1983	 0.5939	-5.9793	 7.6943	 1.7149	44.9627	99.9918	
   777	-6.1383	 6.2980	 0.1597	-6.5162	 7.3042	 0.7880	-5.9161	 7.7679	 1.8517	45.0484	99.9920	
   778	-6.1596	 6.2102	 0.0506	-6.5009	 7.2234	 0.7225	-5.8859	 7.6853	 1.7993	45.2219	99.9922	
   779	-6.1801	 6.2573	 0.0772	-6.4551	 7.3031	 0.8480	-5.8428	 7.8140	 1.9710	45.1253	99.9928	
   780	-6.1178	 6.2509	 0.1331	-6.3620	 7.2703	 0.9082	-5.7379	 7.8009	 2.0629	45.3103	99.9930	
   781	-5.9452	 6.2527	 0.3074	-6.1816	 7.3298	 1.1482	-5.5183	 7.8372	 2.3188	45.4643	99.9926	
   782	-5.8073	 6.2032	 0.3959	-6.0831	 7.2745	 1.1914	-5.4190	 7.7302	 2.3110	45.6478	99.9921	
   783	-5.7757	 6.2077	 0.4321	-5.9954	 7.2641	 1.2686	-5.3558	 7.8038	 2.4478	45.5622	99.9930	
   784	-5.7032	 6.2374	 0.5342	-5.9522	 7.3036	 1.3514	-5.2739	 7.7988	 2.5248	45.7149	99.9922	
   785	-5.6582	 6.2054	 0.5472	-5.9123	 7.2895	 1.3772	-5.2434	 7.8180	 2.5745	45.5867	99.9923	
   786	-5.6154	 6.2616	 0.6462	-5.8619	 7.3334	 1.4714	-5.1931	 7.8722	 2.6790	45.6050	99.9924	
   787	-5.5194	 6.2908	 0.7714	-5.7160	 7.3846	 1.6686	-5.0263	 7.9092	 2.8827	45.8237	99.9926	
   788	-5.3234	 6.2921	 0.9687	-5.5381	 7.4040	 1.8659	-4.8265	 7.9105	 3.0839	45.9689	99.9921	
   789	-5.2069	 6.2742	 1.0673	-5.4159	 7.4019	 1.9860	-4.6870	 7.8852	 3.1981	46.1440	99.9919	
   790	-5.1375	 6.2573	 1.1198	-5.3307	 7.3513	 2.0205	-4.6295	 7.8649	 3.2353	46.1803	99.9924	
   791	-5.1007	 6.2202	 1.1195	-5.2854	 7.3147	 2.0293	-4.5849	 7.8252	 3.2401	46.2589	99.9925	
   792	-5.0547	 6.2037	 1.1490	-5.2455	 7.3006	 2.0551	-4.5720	 7.8446	 3.2725	46.1135	99.9927	
   793	-5.0088	 6.1872	 1.1785	-5.1790	 7.2771	 2.0981	-4.4800	 7.8121	 3.3320	46.3244	99.9926	
   794	-4.8433	 6.1995	 1.3562	-4.9799	 7.3095	 2.3296	-4.2482	 7.8561	 3.6078	46.5200	99.9925	
   795	-4.6003	 6.1998	 1.5995	-4.7463	 7.3503	 2.6040	-4.0178	 7.8766	 3.8587	46.5962	99.9924	
   796	-4.4890	 6.2236	 1.7345	-4.6241	 7.3483	 2.7242	-3.9014	 7.8594	 3.9580	46.7822	99.9925	
   797	-4.3981	 6.1750	 1.7770	-4.5576	 7.3248	 2.7672	-3.8208	 7.8310	 4.0101	46.7936	99.9921	
   798	-4.3368	 6.1531	 1.8163	-4.4778	 7.2966	 2.8188	-3.7903	 7.8502	 4.0598	46.6551	99.9929	
   799	-4.3245	 6.1009	 1.7764	-4.4828	 7.2161	 2.7333	-3.7776	 7.7678	 3.9900	46.7822	99.9925	
   800	-4.2805	 6.0533	 1.7728	-4.3844	 7.1608	 2.7764	-3.6626	 7.7271	 4.0644	47.0130	99.9928	
   801	-4.0895	 5.9769	 1.8874	-4.1982	 7.0950	 2.8968	-3.4530	 7.5991	 4.1460	47.3838	99.9924	
   802	-3.9546	 5.8808	 1.9262	-4.0490	 6.9806	 2.9316	-3.3739	 7.5472	 4.1732	47.2704	99.9933	
   803	-3.9147	 5.7710	 1.8563	-4.0167	 6.8459	 2.8292	-3.3195	 7.3781	 4.0585	47.5727	99.9930	
   804	-3.8737	 5.6768	 1.8030	-3.9552	 6.7419	 2.7867	-3.2777	 7.2914	 4.0135	47.6448	99.9934	
   805	-3.8563	 5.5830	 1.7267	-3.9548	 6.6390	 2.6842	-3.2719	 7.1934	 3.9214	47.7008	99.9932	
   806	-3.8848	 5.5057	 1.6209	-3.9420	 6.5180	 2.5760	-3.2276	 7.0518	 3.8241	48.1032	99.9932	
   807	-3.7407	 5.4302	 1.6895	-3.7612	 6.4747	 2.7135	-3.0461	 7.0417	 3.9955	48.1662	99.9935	
   808	-3.5242	 5.3844	 1.8601	-3.5219	 6.3901	 2.8683	-2.8364	 6.9136	 4.0771	48.5519	99.9939	
   809	-3.4955	 5.2229	 1.7275	-3.5240	 6.2470	 2.7230	-2.8374	 6.8001	 3.9625	48.4696	99.9936	
   810	-3.4290	 5.1593	 1.7303	-3.4717	 6.2148	 2.7431	-2.7252	 6.7125	 3.9871	48.7422	99.9928	
   811	-3.3932	 5.1067	 1.7135	-3.4289	 6.1380	 2.7091	-2.7051	 6.6574	 3.9522	48.7681	99.9931	
   812	-3.3738	 5.0440	 1.6703	-3.3861	 6.0612	 2.6751	-2.6633	 6.5707	 3.9073	48.9484	99.9933	
   813	-3.2818	 5.0111	 1.7292	-3.2718	 6.0414	 2.7696	-2.5210	 6.5923	 4.0712	49.0082	99.9932	
   814	-3.0581	 4.9547	 1.8966	-3.0511	 5.9840	 2.9329	-2.3369	 6.5273	 4.1903	49.1160	99.9936	
   815	-2.9682	 4.8906	 1.9224	-2.9614	 5.8975	 2.9361	-2.2363	 6.4438	 4.2074	49.3005	99.9934	
   816	-2.9018	 4.8270	 1.9253	-2.8895	 5.8515	 2.9620	-2.1701	 6.3724	 4.2023	49.4083	99.9935	
   817	-2.8598	 4.7484	 1.8885	-2.8679	 5.7617	 2.8937	-2.1351	 6.2702	 4.1349	49.5377	99.9932	
   818	-2.8485	 4.6807	 1.8321	-2.8580	 5.7033	 2.8453	-2.1049	 6.1875	 4.0825	49.6816	99.9929	
   819	-2.8281	 4.6336	 1.8055	-2.7949	 5.6262	 2.8314	-2.0258	 6.1356	 4.1097	49.8899	99.9931	
   820	-2.6299	 4.5466	 1.9167	-2.5821	 5.5510	 2.9690	-1.8201	 6.0389	 4.2187	50.1241	99.9932	
   821	-2.5021	 4.4610	 1.9589	-2.4462	 5.4414	 2.9952	-1.7032	 5.9317	 4.2284	50.2991	99.9935	
   822	-2.4479	 4.3302	 1.8823	-2.4130	 5.3200	 2.9070	-1.6366	 5.7703	 4.1335	50.5416	99.9929	
   823	-2.4294	 4.2520	 1.8225	-2.3844	 5.2345	 2.8501	-1.6233	 5.6996	 4.0762	50.5731	99.9931	
   824	-2.4110	 4.1737	 1.7628	-2.3691	 5.1537	 2.7847	-1.5984	 5.6249	 4.0264	50.6450	99.9930	
   825	-2.3987	 4.1216	 1.7229	-2.3379	 5.1085	 2.7706	-1.5538	 5.5851	 4.0312	50.7348	99.9930	
   826	-2.2076	 4.0451	 1.8375	-2.1384	 5.0380	 2.8996	-1.3352	 5.5079	 4.1726	50.9811	99.9929	
   827	-2.0329	 3.9586	 1.9257	-1.9415	 4.9273	 2.9858	-1.1479	 5.3998	 4.2517	51.2452	99.9931	
   828	-1.9848	 3.8539	 1.8690	-1.8950	 4.8012	 2.9063	-1.0968	 5.2738	 4.1769	51.4161	99.9931	
   829	-1.9409	 3.8063	 1.8654	-1.8239	 4.7419	 2.9179	-1.0522	 5.2340	 4.1817	51.4563	99.9936	
   830	-1.9081	 3.7070	 1.7989	-1.8094	 4.6477	 2.8382	-1.0342	 5.1437	 4.1095	51.4837	99.9934	
   831	-1.9050	 3.6343	 1.7294	-1.7995	 4.5894	 2.7899	-0.9978	 5.0649	 4.0670	51.6357	99.9931	
   832	-1.7957	 3.6269	 1.8313	-1.6499	 4.5913	 2.9414	-0.8271	 5.0706	 4.2434	51.8246	99.9932	
   833	-1.5516	 3.6428	 2.0912	-1.3851	 4.5868	 3.2017	-0.5575	 5.0593	 4.5016	52.1074	99.9933	
   834	-1.4015	 3.6606	 2.2590	-1.1967	 4.6642	 3.4674	-0.3919	 5.1746	 4.7826	51.9499	99.9938	
   835	-1.0443	 3.8506	 2.8063	-0.7985	 4.7290	 3.9305	 0.0319	 5.0908	 5.1226	52.9821	99.9935	
   836	-0.5892	 3.1306	 2.5414	-0.6552	 3.7602	 3.1050	-0.0489	 4.0462	 3.9972	53.4123	99.9934	
   837	-0.7643	 2.6048	 1.8405	-1.0986	 3.1906	 2.0920	-0.6160	 3.5091	 2.8930	52.7346	99.9922	
   838	-1.0562	 2.4549	 1.3987	-1.4042	 2.9765	 1.5723	-0.8948	 3.3678	 2.4729	52.6612	99.9905	
   839	-0.8716	 2.6433	 1.7717	-1.1688	 3.2634	 2.0946	-0.3830	 3.7685	 3.3855	52.8364	99.9848	
   840	 0.4913	 4.0794	 4.5707	 0.6834	 4.8427	 5.5261	 1.2797	 5.1296	 6.4092	53.6235	99.9945	
   841	-0.6922	 2.9926	 2.3004	-1.3943	 3.6788	 2.2845	-0.8855	 3.8142	 2.9286	51.8742	99.9883	
   842	-1.1414	 2.8355	 1.6941	-2.1075	 3.0332	 0.9257	-1.0910	 2.7477	 1.6566	55.1117	99.9714	
   843	-2.2522	 1.5396	-0.7126	-3.6329	 2.4415	-1.1913	-1.9680	 2.8177	 0.8496	51.7640	99.9253	
   844	-0.7412	 2.9624	 2.2212	-2.3299	 3.8243	 1.4945	-0.4357	 3.5773	 3.1415	53.7522	99.9274	
   845	-0.4754	 3.6784	 3.2030	-2.0223	 4.5036	 2.4813	-0.0849	 4.0349	 3.9500	54.3871	99.9323	
   846	-0.4061	 3.9002	 3.4940	-2.2967	 4.4635	 2.1669	-0.6741	 3.8114	 3.1372	53.9760	99.9318	
   847	-0.4376	 3.6569	 3.2193	-2.4766	 3.7597	 1.2831	-1.0886	 2.8847	 1.7960	55.3278	99.9318	
   848	-0.7451	 2.7808	 2.0358	-2.8753	 2.8180	-0.0574	-1.7711	 1.9927	 0.2215	54.8807	99.9383	
   849	-1.7366	 1.6330	-0.1035	-3.7201	 1.8077	-1.9124	-2.6854	 1.3505	-1.3350	53.6538	99.9401	
   850	-2.2999	 1.2862	-1.0137	-3.5115	 1.6655	-1.8460	-2.4862	 1.3401	-1.1463	54.4839	99.9678	
   851	-2.0793	 1.3026	-0.7768	-2.9981	 1.7239	-1.2742	-2.0853	 1.5581	-0.5273	54.4442	99.9765	
   852	-1.3591	 2.0147	 0.6556	-1.9499	 2.2923	 0.3424	-1.3353	 2.1085	 0.7732	54.9587	99.9877	
   853	-0.9304	 2.2189	 1.2885	-1.7349	 2.5795	 0.8446	-0.9278	 2.2403	 1.3125	55.2558	99.9815	
   854	-0.8966	 2.1352	 1.2386	-1.6854	 2.6100	 0.9246	-0.8808	 2.3376	 1.4568	54.8067	99.9819	
   855	-0.8130	 2.2166	 1.4036	-1.6322	 2.5912	 0.9590	-0.9184	 2.2011	 1.2825	55.1771	99.9827	
   856	-1.8458	 0.5507	-1.2951	-3.5130	 0.3368	-3.1762	-3.6703	-0.3639	-4.0344	54.1583	99.9851	
   857	-3.9263	-1.1929	-5.1192	-5.9812	-1.0934	-7.0746	-5.4079	-1.1170	-6.5250	51.6503	99.9400	
   858	-3.9222	-1.1307	-5.0530	-5.7296	-0.8740	-6.6035	-4.8058	-0.6822	-5.4881	52.0822	99.9275	
   859	-3.5780	-0.1724	-3.7504	-4.5943	 0.1090	-4.4853	-3.8740	 0.4455	-3.4286	52.6490	99.9655	
   860	-0.9473	 2.8056	 1.8583	-1.3495	 2.7653	 1.4159	-1.0800	 2.5399	 1.4598	55.3597	99.9939	
   861	 0.2159	 3.7009	 3.9169	-0.4192	 3.6220	 3.2029	-0.3902	 3.3574	 2.9671	54.4687	99.9942	
   862	 0.6677	 4.3821	 5.0497	 0.5032	 4.4610	 4.9642	 0.6702	 4.1818	 4.8519	55.3324	99.9936	
   863	 0.9588	 4.2777	 5.2365	 0.6643	 4.2122	 4.8765	 0.6481	 3.8179	 4.4659	55.6283	99.9931	
   864	 0.7088	 4.0491	 4.7580	 0.2386	 3.9241	 4.1627	 0.1772	 3.5107	 3.6877	55.3342	99.9937	
   865	 0.2486	 3.7210	 3.9696	-0.4180	 3.5325	 3.1146	-0.5719	 3.0739	 2.5019	54.8899	99.9936	
   866	-0.4496	 3.4703	 3.0207	-1.1468	 3.2898	 2.1431	-1.2891	 2.8716	 1.5824	54.4094	99.9941	
   867	-1.0621	 3.2127	 2.1506	-1.7513	 2.9690	 1.2177	-1.8848	 2.5425	 0.6576	54.4728	99.9945	
   868	-0.9553	 3.6517	 2.6964	-1.4108	 3.8491	 2.4382	-1.0721	 3.9341	 2.8619	53.0444	99.9925	
   869	 0.9682	 5.1493	 6.1175	 1.1044	 5.4888	 6.5931	 1.5006	 5.3813	 6.8818	54.9355	99.9936	
   870	 1.5601	 5.4540	 7.0142	 1.7244	 5.9480	 7.6724	 2.1798	 6.0227	 8.2023	54.3013	99.9947	
   871	 2.1347	 5.8525	 7.9872	 2.3506	 6.3983	 8.7489	 2.9093	 6.5263	 9.4355	54.4314	99.9948	
   872	 3.2013	 6.3449	 9.5463	 3.7156	 7.0329	10.7484	 4.3449	 7.3381	11.6829	54.6682	99.9959	
   873	 4.8889	 6.7419	11.6309	 5.6262	 7.5911	13.2174	 6.2477	 7.8109	14.0585	55.6284	99.9927	
   874	 5.9959	 6.7665	12.7624	 6.7037	 7.6490	14.3526	 7.0753	 7.9922	15.0673	55.1964	99.9933	
   875	 6.4185	 6.8774	13.2960	 7.1593	 7.7621	14.9214	 7.4590	 8.1204	15.5793	55.2280	99.9929	
   876	 4.5841	 6.2706	10.8547	 3.9983	 6.4465	10.4448	 3.5156	 6.0603	 9.5758	53.8011	99.9876	
   877	 1.8287	 5.4850	 7.3137	 1.7122	 5.6440	 7.3562	 1.9179	 5.3838	 7.3015	55.1537	99.9932	
   878	 1.1398	 5.0161	 6.1560	 0.9089	 5.1878	 6.0967	 1.1728	 4.9156	 6.0882	54.9284	99.9928	
   879	 0.9887	 4.9828	 5.9716	 0.7309	 5.1685	 5.8994	 1.0352	 4.8743	 5.9093	54.9152	99.9923	
   880	 0.6334	 4.9432	 5.5766	 0.3268	 5.0098	 5.3366	 0.4990	 4.7519	 5.2508	54.5234	99.9941	
   881	 0.0540	 4.3476	 4.4016	-0.7324	 4.0479	 3.3155	-1.0640	 3.1938	 2.1297	55.1337	99.9848	
   882	-1.5718	 3.3319	 1.7601	-2.8798	 3.0731	 0.1933	-3.0302	 2.5455	-0.4848	52.6611	99.9903	
   883	-1.5811	 3.4307	 1.8496	-2.8693	 3.1310	 0.2617	-3.0975	 2.6952	-0.4024	52.2426	99.9917	
   884	-1.2053	 3.4231	 2.2179	-2.7571	 3.1873	 0.4302	-2.9171	 2.7633	-0.1539	51.7176	99.9871	
   885	-1.4188	 3.5156	 2.0969	-2.9660	 3.4324	 0.4664	-2.9204	 3.2921	 0.3716	50.6699	99.9797	
   886	-1.0754	 4.3391	 3.2636	-2.2776	 4.3335	 2.0558	-2.1775	 4.2107	 2.0331	51.0975	99.9863	
   887	-0.6261	 5.3472	 4.7211	-1.3592	 5.5438	 4.1846	-1.0366	 5.4923	 4.4556	51.6682	99.9901	
   888	-0.3617	 5.4353	 5.0737	-1.2533	 5.3899	 4.1366	-1.1883	 5.0243	 3.8360	52.3897	99.9918	
   889	-0.9444	 5.0318	 4.0874	-1.9110	 5.0878	 3.1768	-1.8179	 4.9110	 3.0931	51.2655	99.9909	
   890	-1.3338	 4.3442	 3.0104	-2.4880	 4.2297	 1.7416	-2.7653	 4.0107	 1.2453	50.6390	99.9937	
   891	-2.1172	 3.5036	 1.3864	-3.2499	 3.5670	 0.3171	-3.5043	 3.5463	 0.0420	49.6493	99.9936	
   892	-1.6733	 3.8217	 2.1484	-2.4053	 4.1388	 1.7334	-2.3877	 4.1351	 1.7473	50.7577	99.9940	
   893	-1.0824	 4.1109	 3.0285	-1.8195	 4.4868	 2.6673	-1.7852	 4.4798	 2.6945	50.8138	99.9935	
   894	-0.7028	 4.4043	 3.7015	-1.5134	 4.8172	 3.3038	-1.3527	 4.8306	 3.4778	50.8260	99.9918	
   895	-0.3601	 4.8541	 4.4940	-0.8755	 5.2359	 4.3603	-0.7089	 5.1787	 4.4697	51.8268	99.9933	
   896	-0.1294	 4.9066	 4.7772	-0.6544	 5.2948	 4.6404	-0.5175	 5.3329	 4.8153	51.5356	99.9942	
   897	-0.2825	 4.8422	 4.5597	-0.6170	 5.2405	 4.6235	-0.4743	 5.2697	 4.7953	51.9842	99.9947	
   898	-0.3722	 4.6675	 4.2954	-0.4529	 5.1482	 4.6953	-0.2083	 5.1997	 4.9913	52.6447	99.9944	
   899	-0.1381	 4.4086	 4.2705	-0.3446	 4.8153	 4.4708	-0.2303	 4.8357	 4.6053	52.6491	99.9946	
   900	-0.0306	 4.1314	 4.1008	-0.3459	 4.6856	 4.3397	-0.1465	 4.7642	 4.6176	52.2463	99.9938	
   901	 0.5205	 4.5303	 5.0508	 0.2420	 4.9575	 5.1995	 0.3550	 5.0906	 5.4455	52.4071	99.9957	
   902	 0.3278	 4.2176	 4.5454	-0.0420	 4.6536	 4.6116	 0.0491	 4.6951	 4.7440	52.4669	99.9945	
   903	 0.2810	 3.9798	 4.2609	-0.2713	 4.1385	 3.8672	-0.3885	 3.9683	 3.5797	53.0946	99.9943	
   904	-0.3453	 3.2659	 2.9206	-0.8449	 3.5532	 2.7083	-0.8990	 3.5911	 2.6921	52.4728	99.9956	
   905	-0.3004	 3.3532	 3.0527	-0.6308	 3.6077	 2.9770	-0.5481	 3.5631	 3.0148	53.5846	99.9950	
   906	 0.0247	 2.9263	 2.9511	-0.7071	 3.1482	 2.4411	-0.7826	 2.7946	 2.0119	53.7417	99.9900	
   907	-1.4105	 1.3411	-0.0694	-2.7773	 1.1252	-1.6521	-3.6462	 1.0065	-2.6398	50.6382	99.9974	
   908	-1.3593	 2.2534	 0.8941	-2.1283	 2.9172	 0.7889	-1.4939	 3.2737	 1.7797	51.5248	99.9825	
   909	-0.2560	 2.8282	 2.5722	-0.9014	 3.5183	 2.6169	-0.1779	 3.4682	 3.2903	53.5171	99.9855	
   910	 0.2055	 2.9331	 3.1386	-0.4755	 3.2651	 2.7896	 0.1081	 3.0494	 3.1575	54.8990	99.9869	
   911	-0.1974	 2.4015	 2.2041	-0.8664	 2.8825	 2.0160	-0.3337	 2.7379	 2.4041	54.2586	99.9877	
   912	-0.1831	 2.3804	 2.1974	-0.9632	 2.9646	 2.0014	-0.4654	 2.8923	 2.4269	53.3712	99.9871	
   913	 0.1355	 2.4571	 2.5926	-0.9026	 2.8473	 1.9447	-0.5112	 2.7167	 2.2054	53.3639	99.9854	
   914	-0.1979	 1.9085	 1.7106	-1.5410	 2.0930	 0.5520	-1.4272	 1.9491	 0.5219	52.7001	99.9850	
   915	-0.3827	 1.8395	 1.4568	-1.4391	 2.3105	 0.8714	-0.9451	 2.3424	 1.3972	52.9464	99.9823	
   916	 0.2631	 2.4909	 2.7539	-0.1255	 3.2100	 3.0844	 0.8193	 3.2478	 4.0670	54.9177	99.9852	
   917	 1.2512	 2.8603	 4.1115	 0.8031	 3.2793	 4.0824	 1.5692	 3.0189	 4.5879	56.4974	99.9865	
   918	 1.2901	 2.7350	 4.0251	 1.1371	 2.9694	 4.1065	 1.4918	 2.7105	 4.2021	56.9026	99.9920	
   919	 0.5079	 1.6712	 2.1792	-0.0540	 1.7458	 1.6918	-0.1555	 1.3140	 1.1584	56.1431	99.9898	
   920	-1.3865	-0.2266	-1.6131	-2.4738	-0.3250	-2.7988	-3.1920	-0.3231	-3.5152	52.3924	99.9978	
   921	-2.3224	-0.7579	-3.0803	-3.4683	-0.7959	-4.2642	-4.2968	-0.8141	-5.1110	51.5001	99.9975	
   922	-1.7443	 0.1802	-1.5641	-2.7439	 0.6817	-2.0622	-2.1779	 1.3870	-0.7910	51.4357	99.9642	
   923	 1.2434	 2.4972	 3.7406	 1.2214	 2.6861	 3.9075	 1.5849	 2.5996	 4.1844	56.9940	99.9948	
   924	 1.7539	 2.6323	 4.3862	 1.4157	 3.0765	 4.4922	 2.0181	 2.9622	 4.9802	56.3232	99.9900	
   925	 1.2743	 2.2475	 3.5218	 0.9333	 2.7536	 3.6870	 1.2999	 2.6464	 3.9461	55.5246	99.9910	
   926	 1.1281	 2.4113	 3.5394	 1.0470	 3.1588	 4.2058	 1.6923	 3.2092	 4.9014	55.4052	99.9907	
   927	 1.5968	 2.3864	 3.9832	 1.1153	 2.6208	 3.7361	 1.4226	 2.4411	 3.8636	56.1995	99.9920	
   928	 1.0359	 1.7126	 2.7484	 0.4679	 2.1575	 2.6254	 1.1388	 2.2176	 3.3564	55.6369	99.9861	
   929	 1.3013	 1.8163	 3.1175	 1.1513	 2.2175	 3.3688	 1.7924	 1.9507	 3.7431	57.7971	99.9892	
   930	 0.6262	 0.8334	 1.4596	 0.2297	 1.3920	 1.6217	 1.0765	 1.4783	 2.5546	56.4489	99.9859	
   931	 1.4119	 1.4664	 2.8782	 1.3789	 1.9453	 3.3242	 2.2986	 1.7719	 4.0704	58.5146	99.9885	
   932	 2.3630	 2.1116	 4.4746	 2.4799	 2.5977	 5.0777	 3.4906	 2.4419	 5.9324	59.0562	99.9889	
   933	 2.3245	 1.7595	 4.0840	 2.5154	 2.0782	 4.5936	 3.0783	 2.0360	 5.1142	58.6178	99.9941	
   934	 2.3754	 1.9401	 4.3155	 2.9320	 2.2188	 5.1507	 3.5128	 2.1283	 5.6410	59.6439	99.9940	
   935	 2.0513	 1.2927	 3.3440	 1.8103	 1.1282	 2.9385	 1.6427	 0.7386	 2.3812	58.7129	99.9933	
   936	 0.6190	-0.1265	 0.4925	-0.1206	 0.0289	-0.0916	-0.6077	-0.0431	-0.6509	54.7361	99.9949	
   937	 0.5624	 0.3313	 0.8936	 0.8183	 0.6976	 1.5159	 0.6289	 0.5872	 1.2160	57.0776	99.9840	
   938	 1.8952	 1.1817	 3.0768	 1.0644	 0.7203	 1.7847	-0.0724	 0.2594	 0.1869	55.9363	99.9904	
   939	 0.5033	 0.1456	 0.6490	-1.0080	 0.0752	-0.9327	-1.8812	-0.3126	-2.1939	53.0430	99.9924	
   940	-0.5274	-0.5188	-1.0462	-1.7441	-0.6103	-2.3543	-2.8643	-1.1223	-3.9868	53.4761	99.9822	
   941	-0.4979	-0.4259	-0.9238	-1.7110	-0.1903	-1.9013	-2.5009	-0.2615	-2.7625	51.7690	99.9938	
   942	 1.1168	 1.3892	 2.5061	 0.5787	 1.8648	 2.4435	 0.8166	 2.0377	 2.8542	54.4920	99.9930	
   943	 3.8303	 3.2239	 7.0543	 3.9257	 3.6560	 7.5817	 4.6212	 3.6492	 8.2703	58.0513	99.9927	
   944	 7.0910	 4.1863	11.2773	 7.2556	 4.5214	11.7770	 7.4424	 4.3492	11.7914	59.0186	99.9917	
   945	 6.6392	 3.6245	10.2637	 5.9936	 3.5763	 9.5699	 5.3418	 3.1308	 8.4725	57.4004	99.9889	
   946	 3.8805	 2.0605	 5.9410	 2.5884	 1.7235	 4.3119	 1.8242	 1.2141	 3.0382	56.0819	99.9941	
   947	 1.5017	 0.4319	 1.9336	 0.0700	 0.4686	 0.5387	-0.3370	 0.3529	 0.0158	53.7850	99.9918	
   948	 0.4560	-0.5851	-0.1291	-0.7999	-0.9439	-1.7437	-1.7837	-1.5161	-3.2999	55.6918	99.9905	
   949	-1.9504	-2.1561	-4.1065	-3.0610	-2.3239	-5.3848	-3.9408	-2.1150	-6.0558	52.5633	99.9986	
   950	-0.4819	-0.0578	-0.5397	-0.1554	 0.8840	 0.7286	 0.9932	 1.2678	 2.2610	56.7825	99.9905	
   951	 4.6011	 2.4146	 7.0157	 4.6391	 2.2391	 6.8782	 4.5251	 1.7706	 6.2957	60.4484	99.9908	
   952	 3.4468	 0.6888	 4.1356	 2.9701	 0.4375	 3.4076	 2.1157	 0.3017	 2.4173	57.2492	99.9958	
   953	 1.0722	 0.0928	 1.1649	 2.0641	 0.7302	 2.7943	 2.7331	 0.8930	 3.6259	59.5633	99.9919	
   954	 3.6979	 1.9033	 5.6012	 4.1738	 1.8623	 6.0360	 4.3970	 1.4981	 5.8951	61.2989	99.9909	
   955	 2.5156	 0.5932	 3.1088	 1.8060	 0.0814	 1.8874	 0.7330	-0.2170	 0.5159	56.9642	99.9957	
   956	 1.2272	 0.3076	 1.5348	 0.4587	 0.4889	 0.9476	 0.3572	 0.5633	 0.9204	55.1773	99.9945	
   957	 3.9746	 2.9097	 6.8843	 5.0117	 4.0671	 9.0788	 6.8480	 4.7210	11.5689	58.8145	99.9876	
   958	 9.6867	 5.4110	15.0977	10.6500	 6.1999	16.8499	11.1916	 6.5019	17.6933	59.3263	99.9941	
   959	10.4205	 5.8478	16.2683	11.3485	 6.5013	17.8497	11.7594	 6.5650	18.3243	60.1071	99.9900	
   960	 8.8137	 4.2764	13.0901	 9.1431	 4.3821	13.5252	 8.9841	 4.0982	13.0822	60.5368	99.9885	
   961	 6.1334	 2.9548	 9.0881	 6.2767	 2.8870	 9.1638	 5.9228	 2.3440	 8.2667	60.5144	99.9804	
   962	 3.7126	 1.4048	 5.1175	 2.7114	 0.9743	 3.6857	 1.7978	 0.4860	 2.2837	57.1231	99.9942	
   963	 0.3981	-0.8746	-0.4765	-0.7559	-1.1101	-1.8660	-1.6385	-1.4475	-3.0861	55.2075	99.9946	
   964	-1.5045	-1.8070	-3.3114	-2.3183	-1.7503	-4.0686	-2.8294	-1.7102	-4.5397	54.3056	99.9972	
   965	-0.9302	-1.1698	-2.0999	-1.2990	-0.7744	-2.0733	-1.2841	-0.4456	-1.7298	54.7276	99.9966	
   966	 0.8831	 0.2003	 1.0835	 0.9359	 0.5122	 1.4480	 1.0628	 0.4758	 1.5386	57.5905	99.9937	
   967	 1.2405	 0.2710	 1.5115	 0.8651	 0.2494	 1.1145	 0.7832	 0.0291	 0.8121	57.8722	99.9950	
   968	 0.9450	-0.4184	 0.5266	-0.1093	-0.6602	-0.7695	-0.8194	-0.9215	-1.7411	55.7207	99.9964	
   969	 0.4305	-0.6157	-0.1852	-0.2972	-0.6213	-0.9184	-0.8153	-0.6592	-1.4746	55.3687	99.9970	
   970	 1.6639	 0.6362	 2.3001	 2.0480	 1.0168	 3.0649	 2.3404	 1.1996	 3.5398	58.0080	99.9965	
   971	 4.0011	 1.9855	 5.9865	 4.8274	 2.3165	 7.1439	 5.1383	 2.2914	 7.4296	60.1689	99.9911	
   972	 5.5219	 2.7127	 8.2346	 6.6542	 3.0551	 9.7094	 6.9589	 2.9612	 9.9200	61.2759	99.9856	
   973	 6.9690	 3.6335	10.6025	 8.3020	 4.0831	12.3852	 8.9521	 4.0556	13.0076	61.9726	99.9894	
   974	 8.4062	 4.2794	12.6856	 9.6011	 4.3162	13.9173	 9.7707	 4.1860	13.9567	62.5242	99.9900	
   975	 8.3818	 4.1449	12.5268	 9.4909	 4.1838	13.6747	 9.5142	 4.0248	13.5390	62.2218	99.9874	
   976	 7.6858	 3.6866	11.3724	 8.7749	 3.8201	12.5951	 8.8547	 3.6104	12.4649	62.1325	99.9841	
   977	 7.2808	 3.3626	10.6433	 8.3283	 3.4161	11.7444	 8.1775	 3.1961	11.3735	61.8653	99.9809	
   978	 6.1887	 2.7202	 8.9089	 7.0456	 2.7935	 9.8392	 7.0660	 2.4977	 9.5636	61.8806	99.9837	
   979	 5.7019	 2.4652	 8.1671	 6.6668	 2.4957	 9.1625	 6.7065	 2.0911	 8.7975	62.5409	99.9785	
   980	 3.9122	 0.9753	 4.8875	 4.5611	 0.9922	 5.5534	 4.3779	 0.6955	 5.0733	61.2227	99.9822	
   981	 0.7076	-0.9378	-0.2302	 1.6502	-0.6721	 0.9781	 1.9966	-0.5975	 1.3990	60.7259	99.9931	
   982	-1.0691	-2.1063	-3.1754	-0.1988	-1.6564	-1.8552	 0.5997	-1.1591	-0.5596	59.5415	99.9978	
   983	-1.7193	-2.4617	-4.1810	-0.9851	-2.1666	-3.1516	-0.2180	-1.6616	-1.8797	59.5100	99.9965	
   984	-2.2510	-2.8040	-5.0549	-1.7934	-2.7032	-4.4966	-1.1014	-2.1829	-3.2844	59.2088	99.9919	
   985	-2.8103	-3.0886	-5.8989	-2.3483	-2.7744	-5.1227	-1.3258	-2.0077	-3.3335	58.4140	99.9817	
   986	-1.7487	-1.5841	-3.3329	-0.2071	-0.8107	-1.0178	 1.2628	-0.2003	 1.0624	60.3793	99.9968	
   987	 2.2596	 0.2714	 2.5310	 3.4323	 0.4387	 3.8710	 3.8799	 0.4278	 4.3076	61.9749	99.9925	
   988	 2.2517	 0.0277	 2.2794	 3.0369	 0.3111	 3.3481	 3.6375	 0.6933	 4.3307	60.0826	99.9983	
   989	 4.3545	 1.8746	 6.2291	 6.1398	 2.5449	 8.6846	 7.3424	 2.9876	10.3298	61.8687	99.9972	
   990	 7.5400	 3.4923	11.0323	 9.1527	 3.6661	12.8188	 9.4570	 3.6614	13.1182	62.9647	99.9873	
   991	 6.1824	 1.8952	 8.0776	 6.8814	 1.9060	 8.7874	 6.5580	 1.7719	 8.3297	61.1177	99.9862	
   992	 4.4680	 1.6907	 6.1587	 5.9360	 2.3291	 8.2651	 6.8456	 2.6415	 9.4870	61.3120	99.9952	
   993	 6.9258	 2.9649	 9.8907	 8.2617	 3.2204	11.4820	 8.7126	 3.2049	11.9174	62.5642	99.9908	
   994	 5.5165	 2.0226	 7.5391	 6.1140	 1.8071	 7.9211	 5.8775	 1.4007	 7.2781	62.1802	99.9852	
   995	 3.3937	 0.7158	 4.1095	 3.2437	 0.6834	 3.9272	 3.2115	 0.7419	 3.9533	58.6621	99.9976	
   996	 2.8615	 0.8510	 3.7125	 3.1599	 0.8638	 4.0237	 3.1760	 0.6405	 3.8165	60.1461	99.9924	
   997	 0.8706	-0.5986	 0.2721	 0.4152	-0.7496	-0.3344	-0.1204	-0.9227	-1.0432	57.2584	99.9957	
   998	-1.3726	-1.9497	-3.3223	-0.8006	-1.4986	-2.2992	-0.4958	-1.2038	-1.6996	58.0354	99.9965	
   999	-2.0169	-1.9732	-3.9901	-1.0596	-1.6195	-2.6791	-0.3305	-1.1902	-1.5208	59.4385	99.9986	
  1000	-1.3364	-1.3900	-2.7263	-0.2529	-1.1097	-1.3626	 0.6403	-0.6819	-0.0417	60.2766	99.9981	
  1001	-0.6199	-0.9788	-1.5987	 0.3637	-0.7040	-0.3403	 1.2409	-0.2706	 0.9703	60.1194	99.9975	
  1002	 0.4353	-0.2993	 0.1360	 1.3940	-0.0951	 1.2989	 2.1502	 0.2895	 2.4396	60.2560	99.9982	
  1003	 1.3018	 0.2491	 1.5508	 2.3047	 0.5561	 2.8608	 3.1901	 1.0672	 4.2572	60.0179	99.9970	
  1004	 3.4979	 1.7205	 5.2184	 4.9163	 2.2166	 7.1329	 5.7897	 2.4749	 8.2646	61.1805	99.9960	
  1005	 5.3494	 2.5916	 7.9411	 6.5052	 2.6282	 9.1334	 6.7361	 2.4823	 9.2183	62.2415	99.9896	
  1006	 5.0475	 2.2863	 7.3338	 5.7756	 2.3721	 8.1476	 5.9160	 2.3284	 8.2443	60.7498	99.9943	
  1007	 5.6444	 2.7881	 8.4325	 6.9439	 3.0145	 9.9584	 7.4171	 3.0571	10.4741	61.9136	99.9932	
  1008	 6.8763	 3.4122	10.2885	 8.3912	 3.6611	12.0523	 8.8024	 3.8147	12.6170	62.0245	99.9931	
  1009	 7.6826	 3.8787	11.5613	 9.2456	 4.1746	13.4202	 9.6293	 3.9842	13.6134	63.0055	99.9795	
  1010	 5.3491	 1.8599	 7.2091	 5.9911	 2.0150	 8.0061	 5.7524	 1.9546	 7.7068	60.0620	99.9874	
  1011	 4.5664	 2.3634	 6.9298	 6.1629	 3.0232	 9.1861	 7.0542	 3.3712	10.4253	60.9518	99.9949	
  1012	 7.0446	 3.5904	10.6351	 8.2914	 3.5867	11.8781	 8.2438	 3.4185	11.6622	62.2123	99.9837	
  1013	 6.7879	 3.0144	 9.8022	 7.2070	 2.9832	10.1902	 6.8437	 2.7081	 9.5517	60.4840	99.9862	
  1014	 5.8805	 2.5603	 8.4407	 5.9074	 2.4146	 8.3219	 5.4727	 1.9934	 7.4660	60.0848	99.9874	
  1015	 3.5524	 1.3509	 4.9033	 3.1721	 1.1678	 4.3399	 2.6277	 0.9961	 3.6237	57.6988	99.9964	
  1016	 3.0628	 1.7811	 4.8439	 3.4697	 1.9055	 5.3751	 3.5777	 1.8416	 5.4192	59.1568	99.9947	
  1017	 4.3458	 2.4664	 6.8121	 4.9240	 2.5565	 7.4804	 5.1273	 2.4991	 7.6264	60.0627	99.9954	
  1018	 5.1260	 2.4093	 7.5353	 5.5357	 2.3403	 7.8760	 5.4637	 2.1345	 7.5981	60.5195	99.9933	
  1019	 4.7721	 1.9078	 6.6799	 5.0658	 1.9993	 7.0651	 5.2093	 2.0085	 7.2177	59.7530	99.9970	
  1020	 4.9628	 2.1894	 7.1522	 5.6572	 2.5441	 8.2013	 6.1374	 2.7838	 8.9211	59.7720	99.9975	
  1021	 6.2846	 2.8687	 9.1533	 7.1905	 3.1534	10.3439	 7.2498	 3.3021	10.5517	60.0391	99.9933	
  1022	 5.9352	 3.0418	 8.9769	 7.0978	 3.0834	10.1812	 7.3533	 2.7799	10.1331	62.7476	99.9846	
  1023	 5.1850	 1.6245	 6.8095	 5.4907	 1.2942	 6.7849	 5.1648	 0.8851	 6.0499	61.8399	99.9902	
  1024	 2.9656	-0.0852	 2.8804	 2.7541	-0.0823	 2.6718	 2.9143	-0.1903	 2.7239	59.7550	99.9955	
  1025	 1.8744	-0.5927	 1.2818	 2.1371	-0.3850	 1.7521	 2.8376	-0.4869	 2.3505	61.1470	99.9937	
  1026	 1.2845	-0.8663	 0.4182	 1.5325	-0.7059	 0.8267	 1.9992	-0.6524	 1.3467	60.1102	99.9962	
  1027	 1.9158	-0.0746	 1.8412	 2.7286	 0.3790	 3.1075	 3.6670	 0.5990	 4.2659	60.7373	99.9958	
  1028	 4.5241	 1.8297	 6.3538	 5.5245	 2.2689	 7.7934	 6.4388	 2.5214	 8.9601	61.0564	99.9968	
  1029	 5.8916	 2.7313	 8.6228	 6.4633	 2.7183	 9.1816	 6.5304	 2.5790	 9.1093	60.9873	99.9944	
  1030	 5.3208	 2.6337	 7.9545	 5.5429	 2.5639	 8.1068	 5.3716	 2.1670	 7.5385	60.4225	99.9883	
  1031	 2.5616	 0.5768	 3.1383	 2.0610	 0.3545	 2.4154	 1.3521	 0.0139	 1.3659	57.6553	99.9919	
  1032	-0.4760	-0.9349	-1.4109	-1.2691	-0.9493	-2.2185	-1.7197	-0.9452	-2.6650	54.8975	99.9973	
  1033	-1.3062	-0.9235	-2.2297	-2.0032	-0.9504	-2.9536	-2.2790	-0.8675	-3.1466	54.8222	99.9968	
  1034	-1.7768	-1.0491	-2.8259	-2.3400	-1.1192	-3.4591	-2.6946	-1.2303	-3.9250	55.5440	99.9967	
  1035	-3.2139	-1.8143	-5.0282	-3.6992	-1.8791	-5.5783	-4.0498	-1.8786	-5.9285	54.9961	99.9978	
  1036	-3.5877	-1.7757	-5.3634	-3.7918	-1.7299	-5.5217	-3.8818	-1.6262	-5.5081	55.4494	99.9980	
  1037	-3.2724	-1.5070	-4.7794	-3.3332	-1.4603	-4.7935	-3.4837	-1.4551	-4.9389	55.9922	99.9964	
  1038	-3.6488	-1.8731	-5.5219	-3.8679	-1.7510	-5.6189	-3.9889	-1.6483	-5.6373	55.1120	99.9975	
  1039	-3.5746	-1.5736	-5.1482	-3.6712	-1.5396	-5.2107	-3.8233	-1.5330	-5.3563	55.7797	99.9967	
  1040	-3.3910	-1.4008	-4.7918	-3.5172	-1.2514	-4.7686	-3.5159	-1.1139	-4.6300	55.2739	99.9976	
  1041	-3.1348	-1.1984	-4.3332	-3.0923	-0.9767	-4.0690	-3.0992	-0.8295	-3.9288	55.4370	99.9970	
  1042	-2.9675	-1.0356	-4.0032	-2.8311	-0.7127	-3.5438	-2.8314	-0.4805	-3.3120	55.0781	99.9970	
  1043	-2.1777	-0.4598	-2.6375	-2.1175	-0.1700	-2.2875	-2.0748	-0.0164	-2.0913	55.4236	99.9967	
  1044	-2.2858	-0.5563	-2.8421	-2.3999	-0.4471	-2.8470	-2.5284	-0.4256	-2.9542	55.5495	99.9965	
  1045	-2.6420	-0.8501	-3.4921	-2.9405	-0.8316	-3.7721	-3.1805	-0.8128	-3.9934	55.0697	99.9974	
  1046	-3.2696	-1.2216	-4.4912	-3.5733	-1.1699	-4.7432	-3.8290	-1.1412	-4.9703	54.7370	99.9971	
  1047	-3.8073	-1.6572	-5.4645	-3.9891	-1.5163	-5.5054	-4.3704	-1.4476	-5.8181	54.2726	99.9950	
  1048	-3.8278	-1.6100	-5.4379	-3.8540	-1.4202	-5.2741	-4.0449	-1.3108	-5.3557	54.8582	99.9959	
  1049	-3.6380	-1.4633	-5.1014	-3.6601	-1.1461	-4.8062	-3.6962	-0.8884	-4.5847	54.3908	99.9976	
  1050	-1.8053	-0.1559	-1.9612	-1.7392	 0.0115	-1.7276	-1.6166	 0.0796	-1.5372	56.3144	99.9969	
  1051	-0.2749	 0.2338	-0.0411	-0.4234	 0.2935	-0.1299	-0.6366	 0.2549	-0.3818	56.3047	99.9960	
  1052	-0.1238	 0.2672	 0.1433	-0.2077	 0.3749	 0.1672	-0.3814	 0.2007	-0.1808	56.9241	99.9921	
  1053	-1.4995	-0.6394	-2.1389	-1.7735	-0.5382	-2.3117	-2.2249	-0.6528	-2.8778	55.3524	99.9916	
  1054	-2.0979	-0.5600	-2.6580	-1.9505	-0.3249	-2.2754	-2.1292	-0.3329	-2.4622	55.9091	99.9913	
  1055	-1.3897	-0.1538	-1.5435	-1.2835	 0.1246	-1.1589	-1.4560	 0.1127	-1.3434	55.8378	99.9911	
  1056	-0.5405	 0.3689	-0.1717	-0.5600	 0.6090	 0.0490	-0.7652	 0.5581	-0.2071	55.8306	99.9919	
  1057	-0.1170	 0.6147	 0.4977	-0.2578	 0.7694	 0.5117	-0.5874	 0.6812	 0.0937	55.6847	99.9923	
  1058	-0.0120	 0.7839	 0.7719	-0.1142	 0.9997	 0.8854	-0.2982	 0.8968	 0.5985	55.9401	99.9921	
  1059	 0.2249	 0.8103	 1.0352	 0.0080	 0.9976	 1.0056	-0.1878	 0.8758	 0.6878	55.9055	99.9929	
  1060	 0.2444	 0.7476	 0.9920	-0.0661	 0.9004	 0.8343	-0.3380	 0.7250	 0.3869	55.8195	99.9921	
  1061	-0.4935	 0.2486	-0.2449	-0.8628	 0.3323	-0.5305	-1.3863	 0.1001	-1.2863	55.3268	99.9887	
  1062	-1.4531	-0.0436	-1.4967	-1.5608	 0.1472	-1.4136	-1.9850	 0.1078	-1.8773	54.8772	99.9907	
  1063	-1.5745	-0.1034	-1.6780	-1.8826	 0.0005	-1.8820	-2.3881	-0.1455	-2.5337	54.7291	99.9902	
  1064	-2.5564	-0.6183	-3.1747	-2.9096	-0.5548	-3.4643	-3.4074	-0.5827	-3.9903	54.1021	99.9946	
  1065	-2.9760	-0.6826	-3.6586	-3.2088	-0.5587	-3.7675	-3.5347	-0.5498	-4.0845	54.3332	99.9952	
  1066	-2.9394	-0.6003	-3.5397	-3.1701	-0.4833	-3.6534	-3.4736	-0.5114	-3.9851	54.5036	99.9947	
  1067	-2.8282	-0.4572	-3.2854	-2.9547	-0.2990	-3.2537	-3.1798	-0.3154	-3.4953	54.7800	99.9943	
  1068	-2.6088	-0.3371	-2.9458	-2.7585	-0.2039	-2.9624	-3.0346	-0.2468	-3.2815	54.8058	99.9938	
  1069	-2.7241	-0.4230	-3.1470	-2.9714	-0.3479	-3.3193	-3.3611	-0.4972	-3.8584	54.7740	99.9915	
  1070	-3.5690	-1.0029	-4.5719	-4.0279	-1.0504	-5.0783	-4.6046	-1.1430	-5.7477	53.7740	99.9947	
  1071	-4.0428	-1.0557	-5.0985	-4.3771	-0.9818	-5.3589	-4.7653	-0.9843	-5.7497	53.6387	99.9956	
  1072	-3.8327	-0.8367	-4.6694	-4.1226	-0.8251	-4.9477	-4.5289	-0.9599	-5.4889	54.3369	99.9930	
  1073	-3.8754	-1.0123	-4.8877	-4.3451	-1.0137	-5.3588	-4.7653	-0.9843	-5.7497	53.4011	99.9975	
  1074	-3.6112	-0.6855	-4.2967	-3.9612	-0.6354	-4.5966	-4.3792	-0.7190	-5.0983	53.8706	99.9941	
  1075	-3.5347	-0.5936	-4.1283	-3.8414	-0.4585	-4.2999	-4.1213	-0.5344	-4.6557	54.0397	99.9939	
  1076	-3.3622	-0.4725	-3.8347	-3.5990	-0.3865	-3.9856	-3.8460	-0.4518	-4.2979	54.4696	99.9948	
  1077	-3.5438	-0.7335	-4.2773	-3.9725	-0.7068	-4.6793	-4.3680	-0.8249	-5.1930	53.9963	99.9944	
  1078	-3.9418	-0.9487	-4.8905	-4.2581	-0.8183	-5.0764	-4.6831	-0.8874	-5.5706	53.6055	99.9924	
  1079	-4.0440	-0.8325	-4.8765	-4.2285	-0.6712	-4.8997	-4.5424	-0.6973	-5.2398	53.8637	99.9932	
  1080	-3.6644	-0.5391	-4.2036	-4.0434	-0.4282	-4.4716	-4.1914	-0.4316	-4.6232	53.9076	99.9965	
  1081	-3.5012	-0.4386	-3.9397	-3.8638	-0.3821	-4.2459	-4.1203	-0.4208	-4.5412	53.9868	99.9962	
  1082	-3.6288	-0.4724	-4.1011	-3.9657	-0.3803	-4.3460	-4.1778	-0.4005	-4.5784	53.9366	99.9962	
  1083	-3.7134	-0.5693	-4.2827	-4.1262	-0.5566	-4.6828	-4.5442	-0.6307	-5.1751	53.6222	99.9954	
  1084	-4.0553	-0.7648	-4.8202	-4.4771	-0.7341	-5.2112	-4.9743	-0.8445	-5.8189	53.3500	99.9933	
  1085	-4.1474	-0.6125	-4.7599	-4.4433	-0.5199	-4.9632	-4.7520	-0.5693	-5.3214	53.6260	99.9948	
  1086	-3.6300	-0.2492	-3.8792	-3.9593	-0.1702	-4.1295	-4.1406	-0.1738	-4.3145	53.8499	99.9967	
  1087	-3.3779	-0.1089	-3.4868	-3.6845	-0.0138	-3.6982	-3.9024	-0.0241	-3.9266	53.8450	99.9963	
  1088	-3.2943	-0.0276	-3.3218	-3.5909	 0.0697	-3.5212	-3.8270	 0.0571	-3.7699	53.8163	99.9961	
  1089	-3.3188	-0.0426	-3.3614	-3.6221	 0.1149	-3.5071	-3.8241	 0.1041	-3.7201	53.6820	99.9956	
  1090	-3.2698	-0.0125	-3.2823	-3.5822	 0.1008	-3.4813	-3.8148	 0.0648	-3.7501	53.8123	99.9956	
  1091	-3.2881	-0.0536	-3.3417	-3.6221	 0.1149	-3.5071	-3.7889	 0.1036	-3.6854	53.6900	99.9957	
  1092	-3.2678	 0.0186	-3.2491	-3.5630	 0.1900	-3.3730	-3.7562	 0.1580	-3.5983	53.7385	99.9950	
  1093	-3.2381	-0.0079	-3.2460	-3.5630	 0.1900	-3.3730	-3.7332	 0.1499	-3.5834	53.7021	99.9947	
  1094	-3.1943	 0.0638	-3.1304	-3.4827	 0.2781	-3.2046	-3.6550	 0.2781	-3.3769	53.5847	99.9951	
  1095	-3.2689	 0.1224	-3.1465	-3.5463	 0.2389	-3.3074	-3.8346	 0.2217	-3.6130	53.5766	99.9954	
  1096	-3.7893	-0.2875	-4.0768	-4.0532	-0.1507	-4.2039	-4.4809	-0.2634	-4.7444	53.4406	99.9905	
  1097	-4.4069	-0.5035	-4.9104	-4.4771	 0.0265	-4.4506	-4.4324	 0.3430	-4.0895	52.3346	99.9967	
  1098	-1.8167	 1.1209	-0.6958	-1.6641	 1.3211	-0.3429	-1.9143	 1.1800	-0.7344	55.1483	99.9869	
  1099	-1.4571	 0.9840	-0.4732	-1.6949	 1.2635	-0.4314	-1.9183	 1.2114	-0.7070	54.0105	99.9926	
  1100	-1.4531	 1.0462	-0.4069	-1.6516	 1.3030	-0.3486	-1.9373	 1.1881	-0.7493	54.1777	99.9902	
  1101	-1.4790	 1.3736	-0.1053	-1.2997	 1.7131	 0.4134	-1.4669	 1.7773	 0.3103	54.3661	99.9917	
  1102	-0.6041	 1.6883	 1.0841	-0.7788	 1.8922	 1.1134	-1.0465	 1.9286	 0.8819	54.0476	99.9954	
  1103	-0.5828	 1.7761	 1.1933	-0.6528	 2.0601	 1.4073	-0.7267	 1.9714	 1.2447	54.9021	99.9922	
  1104	-0.9898	 1.3016	 0.3118	-1.4084	 1.3884	-0.0200	-1.8988	 1.1445	-0.7544	54.1320	99.9895	
  1105	-2.2687	 0.6785	-1.5902	-2.6071	 0.8047	-1.8024	-2.9752	 0.6375	-2.3378	53.9083	99.9914	
  1106	-2.8270	 0.4094	-2.4176	-3.1443	 0.4737	-2.6705	-3.5814	 0.4260	-3.1555	53.4137	99.9946	
  1107	-3.0842	 0.3107	-2.7735	-3.3388	 0.4054	-2.9334	-3.6874	 0.3256	-3.3619	53.7310	99.9937	
  1108	-3.2486	 0.3140	-2.9346	-3.5338	 0.4400	-3.0937	-3.8064	 0.3976	-3.4089	53.5118	99.9949	
  1109	-2.6260	 0.6078	-2.0183	-2.8718	 0.8091	-2.0627	-3.0428	 0.6854	-2.3576	54.1093	99.9925	
  1110	-2.3095	 0.6533	-1.6562	-2.6148	 1.0061	-1.6087	-2.7297	 1.0064	-1.7234	53.3945	99.9937	
  1111	-2.2984	 0.8244	-1.4741	-2.5355	 0.8616	-1.6739	-3.0264	 0.7635	-2.2630	53.7790	99.9926	
  1112	-2.3454	 0.8253	-1.5201	-2.6194	 1.0420	-1.5774	-2.8983	 1.0360	-1.8624	53.3372	99.9944	
  1113	-2.4711	 0.9420	-1.5292	-2.6563	 1.2126	-1.4437	-2.7988	 1.2227	-1.5762	53.5372	99.9944	
  1114	-2.3160	 1.0375	-1.2785	-2.4168	 1.3473	-1.0696	-2.5980	 1.3376	-1.2605	53.6280	99.9924	
  1115	-2.4763	 0.9836	-1.4927	-2.6119	 1.1627	-1.4492	-2.9260	 1.0638	-1.8623	53.8203	99.9911	
  1116	-2.3597	 0.8463	-1.5134	-2.6680	 1.0249	-1.6431	-2.8816	 0.9222	-1.9595	53.8289	99.9935	
  1117	-2.5547	 0.7413	-1.8134	-2.8572	 0.9342	-1.9231	-3.0991	 0.9211	-2.1781	53.3805	99.9950	
  1118	-2.2782	 1.0160	-1.2622	-2.4077	 1.2755	-1.1322	-2.4247	 1.2884	-1.1365	54.1140	99.9952	
  1119	-1.5301	 1.4317	-0.0984	-1.6622	 1.7864	 0.1242	-1.5935	 1.8220	 0.2285	54.1368	99.9948	
  1120	-1.3169	 1.6973	 0.3804	-1.4318	 1.9928	 0.5610	-1.3341	 2.0302	 0.6960	54.3733	99.9956	
  1121	-1.2046	 1.7366	 0.5320	-1.3416	 2.0225	 0.6810	-1.1944	 2.1067	 0.9122	54.3708	99.9962	
  1122	-1.0923	 1.7759	 0.6835	-1.2318	 2.0386	 0.8068	-1.1437	 2.0708	 0.9270	54.4923	99.9959	
  1123	-1.2658	 1.6392	 0.3734	-1.4297	 1.9167	 0.4869	-1.2931	 1.9317	 0.6386	54.5516	99.9955	
  1124	-1.3689	 1.6205	 0.2516	-1.4750	 1.9532	 0.4782	-1.2564	 1.9548	 0.6982	54.7231	99.9948	
  1125	-1.3280	 1.5263	 0.1983	-1.4597	 1.8724	 0.4127	-1.2891	 1.9004	 0.6112	54.5101	99.9950	
  1126	-1.2760	 1.6031	 0.3271	-1.2830	 1.9813	 0.6983	-1.0918	 1.9566	 0.8646	54.9175	99.9935	
  1127	-1.2596	 1.6131	 0.3535	-1.2044	 2.0426	 0.8382	-0.9481	 2.0017	 1.0535	55.1305	99.9925	
  1128	-0.9014	 1.8187	 0.9173	-0.8260	 2.2241	 1.3981	-0.6373	 2.1857	 1.5482	55.1536	99.9926	
  1129	-0.7891	 1.8580	 1.0689	-0.8144	 2.1926	 1.3782	-0.7332	 2.0577	 1.3244	55.1969	99.9911	
  1130	-1.1320	 1.6469	 0.5149	-1.2298	 1.9625	 0.7327	-1.1633	 1.8439	 0.6805	54.9235	99.9921	
  1131	-1.2117	 1.6277	 0.4161	-1.1928	 2.0111	 0.8183	-1.0458	 1.9403	 0.8944	55.0221	99.9921	
  1132	-0.9454	 1.8663	 0.9210	-0.9087	 2.3150	 1.4063	-0.7467	 2.3203	 1.5734	54.6571	99.9929	
  1133	-0.3432	 2.2072	 1.8640	-0.3137	 2.5913	 2.2775	-0.2279	 2.5446	 2.3166	54.9395	99.9924	
  1134	-0.1288	 2.2496	 2.1208	-0.2871	 2.5819	 2.2947	-0.2767	 2.5139	 2.2371	54.6118	99.9932	
  1135	-0.1696	 2.2245	 2.0548	-0.3641	 2.5474	 2.1833	-0.4104	 2.4412	 2.0308	54.5172	99.9922	
  1136	-0.4942	 2.0545	 1.5603	-0.7653	 2.3260	 1.5607	-0.8109	 2.1331	 1.3221	54.6742	99.9913	
  1137	-0.9413	 1.9285	 0.9872	-1.1191	 2.2112	 1.0921	-1.0862	 2.0505	 0.9642	54.7798	99.9919	
  1138	-0.9067	 1.9797	 1.0730	-0.9590	 2.2711	 1.3121	-0.9137	 2.1814	 1.2676	54.8629	99.9929	
  1139	-0.7974	 1.9724	 1.1749	-0.8742	 2.3233	 1.4492	-0.8358	 2.2078	 1.3720	54.7546	99.9913	
  1140	-0.9923	 1.8673	 0.8749	-1.0634	 2.2326	 1.1692	-1.0528	 2.1166	 1.0638	54.6078	99.9907	
  1141	-1.2353	 1.7476	 0.5123	-1.2775	 2.1781	 0.9006	-1.2127	 2.0952	 0.8824	54.4439	99.9906	
  1142	-1.2619	 1.8208	 0.5589	-1.2770	 2.2944	 1.0174	-1.1772	 2.1966	 1.0193	54.4412	99.9894	
  1143	-1.2037	 1.8715	 0.6678	-1.2150	 2.3067	 1.0917	-1.1915	 2.1537	 0.9620	54.5485	99.9876	
  1144	-1.4273	 1.8085	 0.3812	-1.4449	 2.2167	 0.7717	-1.4456	 2.1295	 0.6838	54.2505	99.9900	
  1145	-1.2376	 2.0746	 0.8369	-1.0769	 2.5594	 1.4825	-0.9812	 2.5230	 1.5417	54.4745	99.9896	
  1146	-0.7711	 2.2572	 1.4861	-0.7896	 2.6977	 1.9081	-0.7735	 2.6535	 1.8798	54.1479	99.9910	
  1147	-0.8293	 2.2065	 1.3772	-0.8707	 2.5962	 1.7255	-0.9075	 2.4790	 1.5714	54.3396	99.9895	
  1148	-1.2241	 1.7992	 0.5752	-1.5140	 2.1999	 0.6860	-1.6067	 2.1864	 0.5797	53.2428	99.9930	
  1149	-1.8448	 1.6560	-0.1889	-1.9795	 2.1452	 0.1656	-1.8477	 1.9898	 0.1420	54.0907	99.9884	
  1150	-1.7826	 1.7689	-0.0137	-1.8814	 2.1927	 0.3113	-1.8556	 2.0526	 0.1968	54.0223	99.9889	
  1151	-1.9398	 1.6423	-0.2975	-2.0615	 2.0302	-0.0312	-2.0791	 1.8557	-0.2234	54.0642	99.9882	
  1152	-2.3665	 1.4692	-0.8973	-2.5085	 1.7291	-0.7794	-2.5540	 1.5799	-0.9742	54.1120	99.9914	
  1153	-2.4033	 1.5063	-0.8970	-2.4265	 1.8440	-0.5825	-2.3963	 1.7580	-0.6385	54.1181	99.9915	
  1154	-2.4104	 1.5168	-0.8936	-2.4556	 1.8132	-0.6424	-2.4462	 1.6137	-0.8326	54.4853	99.9890	
  1155	-2.6727	 1.3404	-1.3323	-2.7180	 1.6387	-1.0793	-2.6693	 1.5187	-1.1507	54.2894	99.9916	
  1156	-2.6493	 1.4593	-1.1900	-2.6041	 1.7218	-0.8823	-2.5350	 1.6031	-0.9320	54.6103	99.9919	
  1157	-2.5289	 1.5036	-1.0253	-2.5908	 1.7171	-0.8737	-2.5120	 1.5950	-0.9171	54.5709	99.9934	
  1158	-2.4503	 1.6266	-0.8238	-2.3803	 2.0401	-0.3402	-2.1992	 2.0061	-0.1932	54.2230	99.9922	
  1159	-2.1176	 1.8015	-0.3161	-1.9508	 2.2789	 0.3281	-1.8471	 2.1934	 0.3462	54.3192	99.9879	
  1160	-2.0318	 1.7946	-0.2372	-1.9658	 2.2568	 0.2910	-1.8988	 2.1158	 0.2169	54.2505	99.9869	
  1161	-2.1341	 1.9108	-0.2232	-2.0950	 2.2545	 0.1595	-2.0261	 2.1488	 0.1226	54.2913	99.9910	
  1162	-2.0861	 1.9254	-0.1606	-2.0322	 2.2803	 0.2480	-1.9340	 2.1162	 0.1821	54.5724	99.9892	
  1163	-2.3074	 1.6548	-0.6526	-2.3808	 1.9238	-0.4570	-2.3625	 1.7340	-0.6286	54.4534	99.9903	
  1164	-2.9646	 1.1905	-1.7741	-3.1554	 1.3821	-1.7733	-3.2915	 1.1390	-2.1527	54.0769	99.9892	
  1165	-3.7719	 0.7085	-3.0634	-4.2032	 0.7108	-3.4924	-4.5228	 0.5008	-4.0221	53.2547	99.9936	
  1166	-4.2352	 0.4531	-3.7821	-4.7445	 0.5321	-4.2125	-4.8142	 0.4419	-4.3724	52.9573	99.9957	
  1167	-3.8445	 0.7982	-3.0463	-3.9346	 0.8763	-3.0583	-3.7405	 0.7100	-3.0305	55.0474	99.9948	
  1168	-3.6137	 0.8506	-2.7631	-3.6328	 0.9204	-2.7124	-3.4929	 0.8204	-2.6726	55.0169	99.9958	
  1169	-3.4130	 1.2877	-2.1253	-3.4248	 1.4225	-2.0023	-3.2547	 1.4557	-1.7991	54.2710	99.9969	
  1170	-3.1283	 1.5674	-1.5609	-3.1466	 1.6325	-1.5141	-2.7412	 1.0105	-1.7308	57.1719	99.9845	
  1171	-3.2978	 1.4930	-1.8048	-3.2514	 1.4777	-1.7737	-3.0430	 1.3629	-1.6802	55.3929	99.9965	
  1172	-3.1580	 1.5940	-1.5640	-3.1910	 1.6825	-1.5085	-3.0535	 1.4805	-1.5731	54.9646	99.9938	
  1173	-3.0702	 1.6182	-1.4520	-2.8213	 2.0520	-0.7693	-2.5094	 2.0257	-0.4838	54.5248	99.9920	
  1174	-1.7920	 1.9870	 0.1950	-1.6635	 2.4172	 0.7537	-1.3401	 2.3201	 0.9799	55.0298	99.9913	
  1175	-1.3541	 2.0924	 0.7384	-1.4623	 2.3736	 0.9112	-1.2559	 2.1584	 0.9024	55.1787	99.9914	
  1176	-1.6084	 2.1598	 0.5514	-1.6565	 2.2024	 0.5458	-1.2444	 2.1543	 0.9099	55.8552	99.9954	
  1177	-1.9873	 2.2400	 0.2527	-2.0999	 2.3933	 0.2933	-1.6220	 2.5156	 0.8935	54.6743	99.9940	
  1178	-1.7416	 2.6451	 0.9034	-1.6126	 2.7966	 1.1841	-1.7227	 2.5991	 0.8763	54.6531	99.9894	
  1179	-1.4631	 2.9509	 1.4877	-1.0312	 3.3997	 2.3686	-0.7334	 3.2208	 2.4874	55.3972	99.9860	
  1180	-1.0949	 3.3120	 2.2171	-0.9911	 3.6049	 2.6137	-0.3871	 3.5062	 3.1190	55.5374	99.9937	
  1181	-1.4558	 2.7016	 1.2459	-1.6725	 2.7082	 1.0357	-1.4675	 2.5449	 1.0774	55.0692	99.9955	
  1182	-1.9625	 2.9868	 1.0243	-1.4788	 3.5236	 2.0449	-0.5643	 3.5868	 3.0224	55.6719	99.9936	
  1183	-0.1879	 3.1537	 2.9658	-0.1586	 3.5505	 3.3919	-0.2929	 3.5089	 3.2159	53.7245	99.9901	
  1184	-0.8575	 2.8609	 2.0034	-0.9680	 3.3226	 2.3546	-0.8987	 3.2073	 2.3085	53.6949	99.9899	
  1185	-1.0753	 3.1299	 2.0547	-0.9733	 3.5643	 2.5910	-0.7500	 3.3346	 2.5846	54.7121	99.9870	
  1186	-0.7659	 3.1860	 2.4201	-0.6757	 3.5414	 2.8657	-0.6371	 3.2588	 2.6216	54.7849	99.9846	
  1187	-1.7403	 2.3026	 0.5623	-1.9344	 2.6500	 0.7156	-1.9386	 2.4296	 0.4909	53.8103	99.9887	
  1188	-2.1781	 2.0778	-0.1004	-2.2018	 2.3950	 0.1932	-2.2313	 2.1553	-0.0761	54.2239	99.9866	
  1189	-3.0282	 1.5395	-1.4887	-3.1369	 1.8963	-1.2406	-3.0943	 1.6808	-1.4136	53.8326	99.9879	
  1190	-3.3743	 1.4011	-1.9732	-3.5398	 1.6481	-1.8917	-3.6519	 1.3982	-2.2538	53.6047	99.9877	
  1191	-3.7723	 1.1859	-2.5864	-3.9452	 1.3597	-2.5855	-4.0782	 1.0512	-3.0271	53.8512	99.9870	
  1192	-3.7815	 1.1653	-2.6162	-3.8945	 1.3006	-2.5939	-4.0693	 1.1020	-2.9674	53.6774	99.9904	
  1193	-3.5915	 1.0733	-2.5181	-3.6801	 1.2523	-2.4278	-3.6246	 0.9749	-2.6498	54.6739	99.9897	
  1194	-3.1218	 1.1833	-1.9385	-3.0452	 1.5145	-1.5307	-2.8241	 1.3875	-1.4367	54.7910	99.9915	
  1195	-2.0288	 1.8413	-0.1875	-1.9126	 2.2380	 0.3254	-1.6913	 1.9525	 0.2611	55.3944	99.9851	
  1196	-1.3555	 1.4646	 0.1091	-1.4673	 1.5325	 0.0652	-1.6997	 1.1341	-0.5657	55.8082	99.9849	
  1197	-2.8866	-0.2692	-3.1558	-3.6939	-0.5997	-4.2936	-4.0537	-0.5822	-4.6360	53.8786	99.9961	
  1198	-3.0942	 0.0359	-3.0583	-3.7701	-0.0794	-3.8496	-3.6767	 0.0160	-3.6608	54.1142	99.9912	
  1199	-2.6310	 0.5300	-2.1010	-3.7554	 0.2648	-3.4906	-3.9923	 0.0436	-3.9488	53.4456	99.9930	
  1200	-4.1321	 0.4718	-3.6603	-5.1345	 0.3821	-4.7524	-5.3226	 0.2918	-5.0310	51.8453	99.9941	
  1201	-5.3272	 0.7811	-4.5461	-6.2213	 0.7181	-5.5032	-6.4419	 0.9211	-5.5210	49.8622	99.9936	
  1202	-5.6351	 1.3529	-4.2822	-6.2488	 1.2554	-4.9934	-6.3066	 1.1191	-5.1876	51.6967	99.9961	
  1203	-5.5986	 0.5841	-5.0145	-6.1319	 0.7345	-5.3974	-6.1024	 0.9989	-5.1035	50.6958	99.9954	
  1204	-5.5812	 0.4904	-5.0908	-6.1677	 0.5964	-5.5713	-5.9653	 0.8366	-5.1288	51.3416	99.9916	
  1205	-5.1625	 0.5391	-4.6235	-5.7607	 0.6924	-5.0683	-5.4928	 0.9754	-4.5175	51.4660	99.9898	
  1206	-3.9600	 0.9510	-3.0090	-4.4333	 1.1621	-3.2712	-4.0518	 1.2937	-2.7582	52.9423	99.9918	
  1207	-2.9313	 1.5843	-1.3470	-3.4524	 1.7406	-1.7119	-3.2320	 1.8314	-1.4007	52.9049	99.9935	
  1208	-2.4026	 1.8799	-0.5227	-3.0408	 2.0199	-1.0208	-2.8280	 2.1982	-0.6298	52.4826	99.9911	
  1209	-2.1629	 2.1916	 0.0287	-2.7513	 2.3014	-0.4499	-2.5470	 2.3748	-0.1723	52.9444	99.9927	
  1210	-2.2739	 1.8098	-0.4640	-3.1109	 1.5514	-1.5595	-3.4398	 1.4072	-2.0327	52.9292	99.9966	
  1211	-4.6380	 0.8919	-3.7461	-5.6550	 1.0799	-4.5751	-5.7098	 1.3699	-4.3400	49.3252	99.9899	
  1212	-5.3051	 1.1231	-4.1819	-6.0256	 1.2382	-4.7874	-5.9514	 1.4552	-4.4963	50.3491	99.9924	
  1213	-5.3264	 1.0353	-4.2911	-6.2307	 0.8927	-5.3380	-6.4248	 1.0109	-5.4139	50.2488	99.9933	
  1214	-5.5407	 0.8736	-4.6671	-6.5726	 0.6435	-5.9291	-6.8483	 0.7109	-6.1375	50.0524	99.9928	
  1215	-5.5579	 0.7286	-4.8293	-6.7847	 0.2936	-6.4911	-7.2369	 0.3086	-6.9283	49.8988	99.9913	
  1216	-5.6069	 0.6984	-4.9085	-6.9061	 0.3091	-6.5970	-7.3261	 0.3881	-6.9381	49.3876	99.9885	
  1217	-5.4916	 0.7844	-4.7072	-6.8196	 0.3882	-6.4314	-7.2251	 0.4064	-6.8188	49.5937	99.9889	
  1218	-5.5732	 0.7341	-4.8391	-6.7651	 0.4991	-6.2660	-6.9478	 0.7161	-6.2318	49.4563	99.9837	
  1219	-5.3151	 0.9677	-4.3475	-6.1750	 0.9142	-5.2609	-6.0593	 1.1276	-4.9318	50.7386	99.9866	
  1220	-5.0701	 0.9991	-4.0710	-5.5809	 1.1770	-4.4039	-5.2671	 1.5012	-3.7660	51.3365	99.9899	
  1221	-4.5537	 1.3468	-3.2069	-4.9422	 1.6092	-3.3331	-4.6707	 1.8421	-2.8287	51.6750	99.9942	
  1222	-4.3159	 1.5081	-2.8078	-4.8394	 1.8401	-2.9994	-4.5915	 2.0839	-2.5077	51.0327	99.9933	
  1223	-3.9558	 1.8642	-2.0916	-4.4253	 2.1597	-2.2656	-4.0799	 2.3828	-1.6972	51.6061	99.9923	
  1224	-3.4724	 1.4602	-2.0122	-4.3574	 1.5053	-2.8521	-4.3848	 1.6152	-2.7698	51.2340	99.9921	
