OxySoft export of:	C:\Users\TO3 TechSupport\Documents\Train2Adapt\T2A_53
Export date:	2022/09/10 09:32:03
Start of measurement:	2022-09-10 08:25:22.389

Datafile sample rate:	10.00	Hz
Datafile duration:	3343.200	s
Datafile total number of samples:	33432

Description:	

Optode-template:	PortaMon TSI Fit Factor
Optode distance (mm):	 35.00
Optode gradients (mm):	 5.00
DPF:	6.45

Device id:	334
# Receivers:	1
# Light sources:	6
# ADC:	2

Light source wavelengths:
device	index	wavelength
1	1	849	nm
1	2	759	nm
1	3	846	nm
1	4	757	nm
1	5	848	nm
1	6	757	nm

Export sample rate:	10.00	Hz
Selected time span:	0	3343.200
Selected time span (sample numbers):	0	33432


Legend:
Column	Trace (Measurement)
1	(Sample number)
2	Rx1-Tx1 O2Hb (T2A_53)
3	Rx1-Tx1 HHb (T2A_53)
4	Rx1-Tx1 tHb (T2A_53)
5	Rx1-Tx2 O2Hb (T2A_53)
6	Rx1-Tx2 HHb (T2A_53)
7	Rx1-Tx2 tHb (T2A_53)
8	Rx1-Tx3 O2Hb (T2A_53)
9	Rx1-Tx3 HHb (T2A_53)
10	Rx1-Tx3 tHb (T2A_53)
11	Rx1-Tx1,Tx2,Tx3 TSI% (T2A_53)
12	Rx1-Tx1,Tx2,Tx3 TSI Fit Factor (T2A_53)
13	(Event)


1	2	3	4	5	6	7	8	9	10	11	12	13
     0	149.9824	83.5370	233.5194	127.3967	73.6992	201.0959	108.8395	68.9611	177.8004	11.5652	98.7634	
     1	 0.1429	 0.1024	 0.2453	 0.1582	 0.0103	 0.1685	 0.0569	 0.0031	 0.0599	68.4500	99.9019	
     2	 0.1972	 0.1214	 0.3185	 0.2197	 0.0481	 0.2678	 0.1461	 0.0700	 0.2160	68.2534	99.8974	
     3	 0.3283	 0.1588	 0.4871	 0.3546	 0.1063	 0.4609	 0.2974	 0.1324	 0.4297	68.2403	99.8979	
     4	 0.3885	 0.1526	 0.5411	 0.4092	 0.1400	 0.5492	 0.4022	 0.1764	 0.5786	68.1356	99.8948	
     5	 0.3806	 0.1478	 0.5284	 0.3964	 0.1445	 0.5409	 0.4022	 0.1764	 0.5786	68.1343	99.8946	
     6	 0.3658	 0.1531	 0.5189	 0.3827	 0.1361	 0.5188	 0.3963	 0.1727	 0.5690	68.2231	99.8913	
     7	 0.3273	 0.1438	 0.4712	 0.3554	 0.1193	 0.4747	 0.3557	 0.1581	 0.5137	68.2259	99.8928	
     8	 0.2958	 0.1244	 0.4202	 0.3297	 0.1284	 0.4581	 0.3564	 0.1694	 0.5258	68.1302	99.8935	
     9	 0.3560	 0.1182	 0.4741	 0.4024	 0.1358	 0.5382	 0.4363	 0.1760	 0.6121	68.2117	99.8958	
    10	 0.3905	 0.0674	 0.4579	 0.4120	 0.0794	 0.4914	 0.4040	 0.1121	 0.5160	68.1356	99.8985	
    11	 0.3234	 0.0838	 0.4072	 0.3377	 0.0461	 0.3838	 0.2815	 0.0569	 0.3383	68.3345	99.9005	
    12	 0.3204	 0.1540	 0.4744	 0.3188	 0.0594	 0.3782	 0.2305	 0.0576	 0.2880	68.5308	99.8975	
    13	 0.2741	 0.1399	 0.4139	 0.2787	 0.0471	 0.3258	 0.1722	 0.0319	 0.2039	68.5375	99.9025	
    14	 0.1302	 0.0225	 0.1526	 0.0815	-0.0619	 0.0196	-0.0468	-0.1166	-0.1635	68.4763	99.9063	
    15	-0.0108	-0.0499	-0.0607	-0.0338	-0.1205	-0.1542	-0.1450	-0.1456	-0.2907	68.2878	99.9043	
    16	 0.0907	-0.0018	 0.0889	 0.0739	-0.0791	-0.0052	-0.0284	-0.0942	-0.1227	68.3701	99.9016	
    17	 0.1450	 0.0171	 0.1621	 0.1088	-0.0451	 0.0637	 0.0254	-0.0495	-0.0242	68.1816	99.8976	
    18	 0.1075	 0.0229	 0.1304	 0.0847	-0.0101	 0.0746	 0.0452	-0.0043	 0.0407	68.0784	99.8960	
    19	 0.0542	 0.0190	 0.0732	 0.0659	 0.0032	 0.0691	 0.0406	 0.0146	 0.0552	68.0704	99.8992	
    20	 0.0000	-0.0000	-0.0000	 0.0000	-0.0000	 0.0000	 0.0000	 0.0000	-0.0001	68.0704	99.8985	
    21	-0.0454	 0.0009	-0.0445	-0.0204	-0.0126	-0.0331	-0.0118	-0.0074	-0.0193	68.2476	99.8976	
    22	 0.0227	-0.0005	 0.0222	 0.0386	-0.0136	 0.0249	 0.0334	-0.0117	 0.0215	68.2491	99.8989	
    23	 0.0917	 0.0132	 0.1049	 0.0847	-0.0101	 0.0746	 0.0511	-0.0006	 0.0503	68.0744	99.8976	
    24	 0.0542	 0.0190	 0.0732	 0.0530	 0.0077	 0.0608	 0.0472	 0.0297	 0.0768	67.9778	99.8945	
    25	 0.0256	 0.0446	 0.0702	 0.0290	 0.0427	 0.0717	 0.0611	 0.0711	 0.1321	67.9703	99.8906	
    26	-0.0434	 0.0309	-0.0125	-0.0164	 0.0521	 0.0357	 0.0388	 0.0790	 0.1177	67.9640	99.8935	
    27	-0.1115	 0.0323	-0.0792	-0.0634	 0.0356	-0.0278	 0.0093	 0.0604	 0.0697	68.2302	99.8916	
    28	-0.1884	 0.0138	-0.1746	-0.1300	 0.0195	-0.1106	-0.0490	 0.0347	-0.0143	68.3209	99.8934	
    29	-0.1282	 0.0076	-0.1207	-0.0923	-0.0071	-0.0994	-0.0458	-0.0069	-0.0528	68.4227	99.8948	
    30	-0.1311	-0.0375	-0.1686	-0.1273	-0.0411	-0.1683	-0.1048	-0.0440	-0.1489	68.1632	99.8962	
    31	-0.1706	-0.0618	-0.2323	-0.1811	-0.0618	-0.2429	-0.1513	-0.0623	-0.2137	68.0757	99.8938	
    32	-0.2140	-0.0308	-0.2448	-0.1674	-0.0534	-0.2208	-0.1440	-0.0359	-0.1801	68.2491	99.8952	
    33	-0.1992	-0.0361	-0.2353	-0.1598	-0.0362	-0.1960	-0.1204	-0.0211	-0.1416	68.1549	99.8957	
    34	-0.1834	-0.0264	-0.2098	-0.1393	-0.0236	-0.1629	-0.0968	-0.0063	-0.1032	68.1521	99.8958	
    35	-0.1982	-0.0211	-0.2193	-0.1521	-0.0191	-0.1712	-0.0968	-0.0063	-0.1032	68.2403	99.8951	
    36	-0.1529	-0.0220	-0.1749	-0.1188	-0.0110	-0.1298	-0.0687	-0.0104	-0.0792	68.2418	99.8973	
    37	-0.1163	-0.0428	-0.1591	-0.1008	-0.0372	-0.1380	-0.0923	-0.0253	-0.1177	67.9803	99.8980	
    38	-0.1706	-0.0618	-0.2323	-0.1538	-0.0450	-0.1987	-0.1329	-0.0399	-0.1729	67.9803	99.8990	
    39	-0.2633	-0.0900	-0.3532	-0.2469	-0.0650	-0.3119	-0.2141	-0.0691	-0.2833	67.9828	99.8999	
    40	-0.3481	-0.1133	-0.4614	-0.3212	-0.0983	-0.4195	-0.2849	-0.1136	-0.3986	68.1675	99.9009	
    41	-0.4250	-0.1319	-0.5568	-0.4023	-0.1358	-0.5382	-0.3727	-0.1578	-0.5306	68.2668	99.8999	
    42	-0.5117	-0.1853	-0.6970	-0.5055	-0.2119	-0.7174	-0.5143	-0.2468	-0.7612	68.2863	99.9018	
    43	-0.5571	-0.1844	-0.7415	-0.5200	-0.2332	-0.7532	-0.5438	-0.2653	-0.8092	68.4713	99.9036	
    44	-0.4733	-0.1760	-0.6493	-0.4662	-0.2125	-0.6787	-0.5091	-0.2544	-0.7636	68.2924	99.9057	
    45	-0.5137	-0.2153	-0.7290	-0.4987	-0.2077	-0.7064	-0.5365	-0.2389	-0.7755	67.9195	99.9096	
    46	-0.5669	-0.2192	-0.7862	-0.5168	-0.1814	-0.6982	-0.5063	-0.2091	-0.7155	67.9969	99.9105	
    47	-0.5581	-0.1994	-0.7574	-0.5047	-0.1989	-0.7037	-0.5129	-0.2241	-0.7371	68.1845	99.9083	
    48	-0.6044	-0.2135	-0.8179	-0.5670	-0.2497	-0.8167	-0.6021	-0.2911	-0.8932	68.3843	99.9078	
    49	-0.6448	-0.2528	-0.8976	-0.6284	-0.2876	-0.9160	-0.6860	-0.3656	-1.0518	68.4931	99.9134	
    50	-0.8429	-0.3892	-1.2321	-0.8051	-0.3840	-1.1891	-0.8838	-0.4463	-1.3302	68.0351	99.9201	
    51	-0.8587	-0.3989	-1.2576	-0.7863	-0.3973	-1.1835	-0.8571	-0.4731	-1.3303	68.4020	99.9237	
    52	-0.8695	-0.4488	-1.3183	-0.8228	-0.4571	-1.2800	-0.9227	-0.5252	-1.4480	68.2284	99.9224	
    53	-0.9237	-0.4677	-1.3915	-0.8835	-0.4821	-1.3655	-0.9869	-0.5547	-1.5416	68.2345	99.9221	
    54	-0.9849	-0.4766	-1.4614	-0.9059	-0.4212	-1.3271	-0.9342	-0.4343	-1.3686	67.6496	99.9175	
    55	-0.8331	-0.3543	-1.1874	-0.7481	-0.3115	-1.0596	-0.7468	-0.3384	-1.0853	68.0060	99.9153	
    56	-0.7631	-0.3256	-1.0887	-0.7071	-0.2863	-0.9934	-0.7003	-0.3200	-1.0204	68.0073	99.9124	
    57	-0.6912	-0.2669	-0.9581	-0.5971	-0.2060	-0.8031	-0.5462	-0.2123	-0.7587	67.9854	99.9100	
    58	-0.6616	-0.2775	-0.9391	-0.5646	-0.2109	-0.7754	-0.5306	-0.2352	-0.7659	68.0784	99.9151	
    59	-0.6497	-0.3279	-0.9775	-0.5875	-0.2623	-0.8498	-0.6021	-0.2911	-0.8932	67.8197	99.9176	
    60	-0.6566	-0.3177	-0.9743	-0.6003	-0.2578	-0.8581	-0.6021	-0.2911	-0.8932	67.9109	99.9156	
    61	-0.6773	-0.2872	-0.9645	-0.6124	-0.2403	-0.8527	-0.5830	-0.2573	-0.8404	67.9956	99.9094	
    62	-0.6054	-0.2285	-0.8339	-0.5501	-0.1895	-0.7396	-0.5115	-0.2014	-0.7131	67.9918	99.9058	
    63	-0.5413	-0.1746	-0.7160	-0.4810	-0.1345	-0.6155	-0.4394	-0.1343	-0.5737	67.8951	99.9044	
    64	-0.4290	-0.0766	-0.5056	-0.3633	-0.0371	-0.4004	-0.2735	-0.0191	-0.2928	67.9690	99.8968	
    65	-0.2643	 0.0103	-0.2541	-0.1951	 0.0292	-0.1659	-0.1111	 0.0393	-0.0719	68.2317	99.8966	
    66	-0.1184	 0.0425	-0.0759	-0.0874	 0.0706	-0.0169	-0.0122	 0.0796	 0.0673	68.0532	99.8950	
    67	-0.0257	 0.0707	 0.0450	-0.0208	 0.0867	 0.0660	 0.0454	 0.0940	 0.1393	68.0559	99.8921	
    68	-0.0553	 0.0813	 0.0260	-0.0405	 0.0871	 0.0466	 0.0225	 0.0905	 0.1129	68.1466	99.8928	
    69	-0.0869	 0.0619	-0.0250	-0.0738	 0.0790	 0.0052	-0.0122	 0.0796	 0.0673	68.0585	99.8946	
    70	-0.1411	 0.0429	-0.0982	-0.1208	 0.0625	-0.0583	-0.0705	 0.0539	-0.0167	68.0624	99.8984	
    71	-0.2525	-0.0401	-0.2925	-0.2573	-0.0216	-0.2789	-0.2527	-0.0497	-0.3024	67.9011	99.9037	
    72	-0.4792	-0.1508	-0.6300	-0.4537	-0.1177	-0.5714	-0.4414	-0.1683	-0.6098	68.0892	99.9105	
    73	-0.5916	-0.2488	-0.8404	-0.5638	-0.1979	-0.7617	-0.5542	-0.2501	-0.8044	68.0034	99.9131	
    74	-0.6556	-0.3027	-0.9583	-0.6336	-0.2659	-0.8995	-0.6382	-0.3246	-0.9629	68.1043	99.9134	
    75	-0.7493	-0.3459	-1.0952	-0.7148	-0.3034	-1.0182	-0.7187	-0.3425	-1.0613	67.9207	99.9126	
    76	-0.7789	-0.3353	-1.1142	-0.7208	-0.2947	-1.0154	-0.7121	-0.3275	-1.0397	68.0073	99.9124	
    77	-0.7385	-0.2960	-1.0345	-0.6654	-0.2481	-0.9134	-0.6125	-0.2758	-0.8884	68.1759	99.9090	
    78	-0.6606	-0.2625	-0.9231	-0.6176	-0.2186	-0.8362	-0.5705	-0.2385	-0.8091	67.9956	99.9052	
    79	-0.6212	-0.2382	-0.8594	-0.5766	-0.1934	-0.7700	-0.5233	-0.2088	-0.7323	67.9918	99.9042	
    80	-0.5600	-0.2294	-0.7894	-0.5228	-0.1727	-0.6955	-0.4709	-0.1868	-0.6578	67.8987	99.9048	
    81	-0.5758	-0.2391	-0.8149	-0.5236	-0.1856	-0.7092	-0.4893	-0.2093	-0.6987	67.9918	99.9092	
    82	-0.6379	-0.2629	-0.9008	-0.5919	-0.2277	-0.8196	-0.5719	-0.2612	-0.8332	68.0919	99.9095	
    83	-0.6921	-0.2819	-0.9740	-0.6389	-0.2442	-0.8830	-0.6066	-0.2721	-0.8788	68.0906	99.9083	
    84	-0.6990	-0.2717	-0.9708	-0.6252	-0.2358	-0.8610	-0.5882	-0.2496	-0.8379	68.0851	99.9077	
    85	-0.6606	-0.2625	-0.9231	-0.6099	-0.2015	-0.8114	-0.5410	-0.2200	-0.7611	67.9892	99.9052	
    86	-0.6064	-0.2435	-0.8499	-0.5373	-0.1941	-0.7313	-0.4834	-0.2056	-0.6891	68.0771	99.9065	
    87	-0.5216	-0.2202	-0.7417	-0.4766	-0.1692	-0.6458	-0.4244	-0.1685	-0.5930	67.8951	99.9028	
    88	-0.4890	-0.1857	-0.6748	-0.4690	-0.1520	-0.6210	-0.4185	-0.1648	-0.5834	67.9905	99.9003	
    89	-0.5354	-0.1998	-0.7352	-0.5629	-0.1850	-0.7479	-0.5063	-0.2091	-0.7155	68.0021	99.8938	
    90	-0.6212	-0.2382	-0.8594	-0.6304	-0.2141	-0.8445	-0.5646	-0.2348	-0.7995	68.0008	99.8953	
    91	-0.7138	-0.2664	-0.9803	-0.6645	-0.2351	-0.8997	-0.6052	-0.2494	-0.8547	68.0865	99.9021	
    92	-0.7296	-0.2761	-1.0058	-0.6593	-0.2568	-0.9161	-0.6243	-0.2832	-0.9076	68.2727	99.9073	
    93	-0.6764	-0.2722	-0.9486	-0.6063	-0.2491	-0.8554	-0.5844	-0.2799	-0.8644	68.2727	99.9099	
    94	-0.6083	-0.2736	-0.8819	-0.5602	-0.2455	-0.8057	-0.5445	-0.2767	-0.8212	68.1831	99.9090	
    95	-0.6162	-0.2784	-0.8946	-0.5670	-0.2497	-0.8167	-0.5556	-0.2727	-0.8284	68.0919	99.9086	
    96	-0.6694	-0.2824	-0.9518	-0.5995	-0.2449	-0.8444	-0.5497	-0.2690	-0.8188	68.2653	99.9074	
    97	-0.6625	-0.2925	-0.9551	-0.6124	-0.2403	-0.8527	-0.5483	-0.2464	-0.7947	67.9905	99.9029	
    98	-0.6448	-0.2528	-0.8976	-0.5638	-0.1979	-0.7617	-0.4664	-0.2058	-0.6723	68.2491	99.9028	
    99	-0.5827	-0.2290	-0.8117	-0.5099	-0.1772	-0.6872	-0.4133	-0.1724	-0.5858	68.1563	99.8999	
   100	-0.4664	-0.1862	-0.6525	-0.3835	-0.1491	-0.5326	-0.2804	-0.1325	-0.4130	68.3269	99.8967	
   101	-0.3914	-0.1977	-0.5891	-0.3509	-0.1540	-0.5049	-0.2706	-0.1591	-0.4299	68.2476	99.8989	
   102	-0.4220	-0.2021	-0.6240	-0.3730	-0.1925	-0.5655	-0.3376	-0.2339	-0.5716	68.6265	99.9061	
   103	-0.5639	-0.2895	-0.8534	-0.5309	-0.3022	-0.8331	-0.5774	-0.3519	-0.9294	68.3859	99.9124	
   104	-0.6191	-0.3235	-0.9426	-0.5489	-0.2760	-0.8249	-0.5361	-0.3259	-0.8621	68.3638	99.9161	
   105	-0.5895	-0.3341	-0.9236	-0.5489	-0.2760	-0.8249	-0.5347	-0.3033	-0.8381	67.9995	99.9113	
   106	-0.5806	-0.3142	-0.8949	-0.4686	-0.2514	-0.7200	-0.4653	-0.2815	-0.7469	68.2608	99.9201	
   107	-0.4899	-0.3160	-0.8059	-0.4020	-0.2352	-0.6372	-0.4011	-0.2520	-0.6532	67.9867	99.9184	
   108	-0.4436	-0.3019	-0.7455	-0.3634	-0.2488	-0.6123	-0.3875	-0.3089	-0.6966	68.4516	99.9228	
   109	-0.4732	-0.2913	-0.7645	-0.3916	-0.2786	-0.6702	-0.4399	-0.3310	-0.7710	68.5528	99.9204	
   110	-0.4170	-0.2423	-0.6593	-0.3514	-0.2663	-0.6177	-0.3986	-0.3050	-0.7038	68.6460	99.9129	
   111	-0.3076	-0.1893	-0.4969	-0.2566	-0.2204	-0.4770	-0.3049	-0.2571	-0.5621	68.6424	99.9105	
   112	-0.2356	-0.1306	-0.3662	-0.1542	-0.1573	-0.3115	-0.1870	-0.1829	-0.3700	68.7154	99.9108	
   113	-0.1212	-0.1179	-0.2391	-0.0534	-0.1201	-0.1735	-0.0769	-0.1465	-0.2235	68.6160	99.9113	
   114	-0.0522	-0.1042	-0.1564	 0.0004	-0.0994	-0.0990	-0.0363	-0.1319	-0.1683	68.5274	99.9130	
   115	-0.0689	-0.1289	-0.1979	-0.0338	-0.1205	-0.1542	-0.0776	-0.1578	-0.2356	68.4435	99.9132	
   116	-0.1389	-0.1576	-0.2965	-0.1064	-0.1279	-0.2343	-0.1411	-0.1759	-0.3172	68.3545	99.9156	
   117	-0.2316	-0.1858	-0.4175	-0.1807	-0.1612	-0.3419	-0.2276	-0.1975	-0.4252	68.2668	99.9166	
   118	-0.2928	-0.1946	-0.4874	-0.2269	-0.1647	-0.3916	-0.2557	-0.1934	-0.4492	68.2623	99.9156	
   119	-0.3085	-0.2044	-0.5129	-0.2526	-0.1557	-0.4082	-0.2557	-0.1934	-0.4492	68.2593	99.9151	
   120	-0.3026	-0.2295	-0.5321	-0.2430	-0.2120	-0.4550	-0.2879	-0.2573	-0.5453	68.4533	99.9176	
   121	-0.3597	-0.2936	-0.6533	-0.3181	-0.2583	-0.5763	-0.3587	-0.3018	-0.6606	68.2757	99.9171	
   122	-0.4288	-0.3072	-0.7360	-0.3506	-0.2534	-0.6040	-0.3802	-0.2826	-0.6629	68.1759	99.9195	
   123	-0.4584	-0.2966	-0.7550	-0.3634	-0.2488	-0.6123	-0.3855	-0.2749	-0.6605	68.2638	99.9192	
   124	-0.4968	-0.3059	-0.8027	-0.4028	-0.2482	-0.6510	-0.4254	-0.2782	-0.7037	68.1745	99.9207	
   125	-0.5353	-0.3151	-0.8504	-0.4361	-0.2563	-0.6924	-0.4431	-0.2893	-0.7325	68.2638	99.9200	
   126	-0.5126	-0.3156	-0.8282	-0.4020	-0.2352	-0.6372	-0.3730	-0.2562	-0.6293	68.2505	99.9179	
   127	-0.3893	-0.2829	-0.6723	-0.2952	-0.2068	-0.5019	-0.2807	-0.2309	-0.5116	68.2505	99.9179	
   128	-0.3351	-0.2640	-0.5991	-0.2610	-0.1858	-0.4468	-0.2623	-0.2084	-0.4708	68.0731	99.9178	
   129	-0.3578	-0.2635	-0.6213	-0.2815	-0.1984	-0.4799	-0.2911	-0.2156	-0.5068	68.0757	99.9168	
   130	-0.3962	-0.2728	-0.6690	-0.3217	-0.2107	-0.5323	-0.3376	-0.2339	-0.5716	68.0797	99.9178	
   131	-0.4505	-0.2917	-0.7422	-0.3747	-0.2184	-0.5931	-0.3782	-0.2485	-0.6268	68.0797	99.9186	
   132	-0.5195	-0.3054	-0.8249	-0.4216	-0.2349	-0.6565	-0.4129	-0.2594	-0.6724	68.1675	99.9184	
   133	-0.4968	-0.3059	-0.8027	-0.4080	-0.2265	-0.6345	-0.3789	-0.2599	-0.6389	68.2549	99.9174	
   134	-0.4436	-0.3019	-0.7455	-0.3558	-0.2317	-0.5875	-0.3501	-0.2527	-0.6029	68.1661	99.9172	
   135	-0.4672	-0.3165	-0.7837	-0.3891	-0.2398	-0.6289	-0.3848	-0.2636	-0.6485	68.0784	99.9175	
   136	-0.4899	-0.3160	-0.8059	-0.4088	-0.2394	-0.6482	-0.3966	-0.2710	-0.6677	68.1689	99.9179	
   137	-0.5205	-0.3204	-0.8409	-0.4285	-0.2391	-0.6676	-0.4129	-0.2594	-0.6724	68.0757	99.9177	
   138	-0.5185	-0.2904	-0.8089	-0.4140	-0.2177	-0.6318	-0.3945	-0.2370	-0.6316	68.1632	99.9174	
   139	-0.5185	-0.2904	-0.8089	-0.4208	-0.2219	-0.6428	-0.4063	-0.2444	-0.6508	68.1661	99.9172	
   140	-0.4880	-0.2860	-0.7739	-0.3875	-0.2139	-0.6014	-0.3664	-0.2411	-0.6076	68.2534	99.9178	
   141	-0.4189	-0.2723	-0.6913	-0.3277	-0.2019	-0.5296	-0.3199	-0.2228	-0.5428	68.1632	99.9174	
   142	-0.4189	-0.2723	-0.6913	-0.3345	-0.2061	-0.5406	-0.3317	-0.2302	-0.5620	68.1661	99.9172	
   143	-0.4574	-0.2816	-0.7390	-0.3747	-0.2184	-0.5931	-0.3834	-0.2409	-0.6244	68.0797	99.9178	
   144	-0.5185	-0.2904	-0.8089	-0.4208	-0.2219	-0.6428	-0.4122	-0.2481	-0.6604	68.1675	99.9184	
   145	-0.5254	-0.2802	-0.8057	-0.4200	-0.2090	-0.6290	-0.3997	-0.2294	-0.6292	68.1632	99.9174	
   146	-0.5097	-0.2705	-0.7802	-0.4124	-0.1918	-0.6042	-0.3820	-0.2182	-0.6004	68.1618	99.9171	
   147	-0.4485	-0.2617	-0.7102	-0.3474	-0.2016	-0.5489	-0.3428	-0.2263	-0.5692	68.2549	99.9181	
   148	-0.4189	-0.2723	-0.6913	-0.3405	-0.1974	-0.5379	-0.3369	-0.2226	-0.5596	68.0757	99.9177	
   149	-0.4406	-0.2569	-0.6975	-0.3465	-0.1886	-0.5352	-0.3362	-0.2113	-0.5476	68.1632	99.9174	
   150	-0.4633	-0.2564	-0.7197	-0.3662	-0.1883	-0.5545	-0.3702	-0.2108	-0.5812	68.0757	99.9192	
   151	-0.5018	-0.2657	-0.7674	-0.4056	-0.1876	-0.5932	-0.3931	-0.2143	-0.6075	68.0744	99.9189	
   152	-0.5087	-0.2555	-0.7642	-0.4056	-0.1876	-0.5932	-0.3813	-0.2069	-0.5883	68.1618	99.9163	
   153	-0.5008	-0.2506	-0.7515	-0.4048	-0.1747	-0.5794	-0.3695	-0.1995	-0.5691	68.1604	99.9160	
   154	-0.4170	-0.2423	-0.6593	-0.3321	-0.1673	-0.4993	-0.3126	-0.1964	-0.5091	68.1618	99.9171	
   155	-0.4022	-0.2476	-0.6498	-0.3132	-0.1806	-0.4938	-0.3244	-0.2038	-0.5284	68.0757	99.9192	
   156	-0.4328	-0.2520	-0.6848	-0.3457	-0.1757	-0.5214	-0.3355	-0.1999	-0.5355	68.0731	99.9178	
   157	-0.4545	-0.2365	-0.6910	-0.3586	-0.1711	-0.5297	-0.3407	-0.1923	-0.5331	68.1618	99.9163	
   158	-0.4545	-0.2365	-0.6910	-0.3714	-0.1666	-0.5380	-0.3519	-0.1884	-0.5403	68.0731	99.9154	
   159	-0.4850	-0.2409	-0.7260	-0.3979	-0.1705	-0.5684	-0.3695	-0.1995	-0.5691	68.1632	99.9158	
   160	-0.4929	-0.2458	-0.7387	-0.3979	-0.1705	-0.5684	-0.3584	-0.2034	-0.5619	68.2505	99.9164	
   161	-0.4387	-0.2268	-0.6655	-0.3381	-0.1585	-0.4966	-0.3119	-0.1851	-0.4971	68.2491	99.9168	
   162	-0.3776	-0.2180	-0.5956	-0.2919	-0.1550	-0.4469	-0.2890	-0.1816	-0.4707	68.1632	99.9174	
   163	-0.4318	-0.2370	-0.6688	-0.3457	-0.1757	-0.5214	-0.3532	-0.2110	-0.5644	68.1689	99.9195	
   164	-0.5008	-0.2506	-0.7515	-0.4116	-0.1789	-0.5905	-0.3984	-0.2067	-0.6051	68.0757	99.9177	
   165	-0.5225	-0.2352	-0.7577	-0.4176	-0.1701	-0.5877	-0.3859	-0.1879	-0.5739	68.1604	99.9151	
   166	-0.5058	-0.2104	-0.7162	-0.3963	-0.1446	-0.5409	-0.3505	-0.1657	-0.5163	68.2461	99.9145	
   167	-0.4594	-0.1963	-0.6558	-0.3561	-0.1323	-0.4884	-0.3047	-0.1587	-0.4635	68.3345	99.9138	
   168	-0.3756	-0.1880	-0.5636	-0.2843	-0.1378	-0.4221	-0.2654	-0.1668	-0.4323	68.3406	99.9151	
   169	-0.3845	-0.2079	-0.5923	-0.3116	-0.1547	-0.4662	-0.3178	-0.1888	-0.5067	68.1689	99.9171	
   170	-0.4535	-0.2215	-0.6750	-0.3774	-0.1579	-0.5353	-0.3689	-0.1881	-0.5571	68.0771	99.9164	
   171	-0.4920	-0.2308	-0.7227	-0.4108	-0.1659	-0.5767	-0.3918	-0.1916	-0.5835	68.0757	99.9153	
   172	-0.5294	-0.2250	-0.7545	-0.4304	-0.1656	-0.5960	-0.4088	-0.1914	-0.6003	68.1646	99.9161	
   173	-0.5521	-0.2246	-0.7767	-0.4509	-0.1782	-0.6292	-0.4324	-0.2062	-0.6387	68.2579	99.9155	
   174	-0.5916	-0.2488	-0.8404	-0.4911	-0.1905	-0.6816	-0.4678	-0.2285	-0.6963	68.2593	99.9175	
   175	-0.5689	-0.2493	-0.8182	-0.4517	-0.1912	-0.6429	-0.4390	-0.2213	-0.6603	68.2564	99.9192	
   176	-0.5531	-0.2396	-0.7927	-0.4381	-0.1828	-0.6208	-0.4331	-0.2176	-0.6507	68.2579	99.9203	
   177	-0.5846	-0.2590	-0.8436	-0.4911	-0.1905	-0.6816	-0.4848	-0.2283	-0.7131	68.0811	99.9198	
   178	-0.6685	-0.2673	-0.9358	-0.5577	-0.2067	-0.7644	-0.5424	-0.2426	-0.7851	68.1717	99.9193	
   179	-0.7227	-0.2863	-1.0090	-0.6107	-0.2144	-0.8252	-0.5882	-0.2496	-0.8379	68.0811	99.9198	
   180	-0.7454	-0.2859	-1.0312	-0.6304	-0.2141	-0.8445	-0.5875	-0.2383	-0.8259	68.0771	99.9164	
   181	-0.6902	-0.2519	-0.9421	-0.5629	-0.1850	-0.7479	-0.5063	-0.2091	-0.7155	68.2505	99.9155	
   182	-0.5521	-0.2246	-0.7767	-0.4501	-0.1653	-0.6154	-0.4199	-0.1875	-0.6075	68.1632	99.9150	
   183	-0.5216	-0.2202	-0.7417	-0.4304	-0.1656	-0.5960	-0.4147	-0.1951	-0.6099	68.1675	99.9160	
   184	-0.5600	-0.2294	-0.7894	-0.4774	-0.1821	-0.6595	-0.4553	-0.2097	-0.6651	68.1703	99.9134	
   185	-0.5590	-0.2144	-0.7734	-0.4698	-0.1649	-0.6347	-0.4369	-0.1873	-0.6243	68.1661	99.9124	
   186	-0.4871	-0.1557	-0.6428	-0.4083	-0.1271	-0.5354	-0.3720	-0.1465	-0.5186	68.2549	99.9083	
   187	-0.3915	-0.0824	-0.4739	-0.3196	-0.0724	-0.3920	-0.2776	-0.0872	-0.3649	68.3406	99.9042	
   188	-0.2190	 0.0094	-0.2096	-0.1582	-0.0103	-0.1685	-0.1329	-0.0399	-0.1729	68.6108	99.9036	
   189	-0.0799	 0.0517	-0.0282	-0.0505	 0.0311	-0.0195	-0.0340	 0.0005	-0.0336	68.5207	99.9015	
   190	-0.0395	 0.0910	 0.0515	 0.0033	 0.0518	 0.0550	 0.0132	 0.0301	 0.0432	68.6074	99.9002	
   191	-0.0001	 0.1153	 0.1152	 0.0314	 0.0815	 0.1129	 0.0545	 0.0561	 0.1105	68.6039	99.8987	
   192	 0.0551	 0.1493	 0.2044	 0.0928	 0.1194	 0.2122	 0.1142	 0.1045	 0.2185	68.5075	99.8986	
   193	 0.0945	 0.1735	 0.2681	 0.1346	 0.1576	 0.2922	 0.1731	 0.1415	 0.3146	68.4993	99.8987	
   194	 0.1724	 0.2071	 0.3795	 0.2097	 0.2038	 0.4136	 0.2662	 0.1782	 0.4442	68.5801	99.8992	
   195	 0.2562	 0.2154	 0.4717	 0.2952	 0.2067	 0.5020	 0.3290	 0.1849	 0.5138	68.5801	99.9009	
   196	 0.3036	 0.2445	 0.5481	 0.3414	 0.2103	 0.5517	 0.3564	 0.1694	 0.5258	68.8543	99.9026	
   197	 0.3528	 0.3037	 0.6565	 0.3603	 0.1970	 0.5573	 0.3026	 0.1247	 0.4273	69.1599	99.9038	
   198	 0.3440	 0.2838	 0.6278	 0.3570	 0.1452	 0.5022	 0.2350	 0.0386	 0.2735	69.4618	99.9128	
   199	 0.0897	 0.0985	 0.1881	 0.0370	-0.0395	-0.0026	-0.1804	-0.1679	-0.3483	68.8857	99.9199	
   200	 0.0068	 0.1051	 0.1119	-0.0434	-0.0641	-0.1075	-0.2498	-0.1897	-0.4396	69.0792	99.9151	
   201	-0.0218	 0.1308	 0.1089	 0.0121	-0.0175	-0.0054	-0.1613	-0.1341	-0.2955	69.3227	99.9206	
   202	-0.0494	 0.0561	 0.0067	-0.0646	-0.0897	-0.1543	-0.2564	-0.2047	-0.4612	69.0663	99.9180	
   203	-0.1184	 0.0425	-0.0759	-0.1040	-0.0890	-0.1930	-0.2852	-0.2119	-0.4972	69.1529	99.9222	
   204	-0.1726	 0.0235	-0.1491	-0.1646	-0.1139	-0.2786	-0.3317	-0.2302	-0.5620	69.1551	99.9186	
   205	-0.2032	 0.0191	-0.1841	-0.1971	-0.1091	-0.3062	-0.3546	-0.2337	-0.5884	69.1551	99.9195	
   206	-0.2505	-0.0100	-0.2606	-0.2245	-0.1259	-0.3503	-0.3834	-0.2409	-0.6244	69.0577	99.9216	
   207	-0.2367	-0.0304	-0.2671	-0.2124	-0.1434	-0.3558	-0.3907	-0.2673	-0.6581	69.0641	99.9249	
   208	-0.2613	-0.0599	-0.3213	-0.2466	-0.1644	-0.4110	-0.4372	-0.2856	-0.7229	68.8837	99.9259	
   209	-0.3540	-0.0882	-0.4422	-0.3329	-0.1802	-0.5131	-0.4955	-0.3113	-0.8069	68.9751	99.9261	
   210	-0.4477	-0.1314	-0.5791	-0.4208	-0.2219	-0.6428	-0.5885	-0.3480	-0.9366	68.8878	99.9266	
   211	-0.5236	-0.1349	-0.6585	-0.4867	-0.2252	-0.7118	-0.6284	-0.3512	-0.9797	68.9772	99.9249	
   212	-0.5473	-0.1495	-0.6967	-0.5003	-0.2336	-0.7339	-0.6447	-0.3397	-0.9845	68.7865	99.9242	
   213	-0.4930	-0.1305	-0.6235	-0.4465	-0.2129	-0.6594	-0.5871	-0.3253	-0.9125	68.8758	99.9247	
   214	-0.4556	-0.1363	-0.5918	-0.4140	-0.2177	-0.6318	-0.5649	-0.3331	-0.8981	68.8777	99.9258	
   215	-0.4940	-0.1455	-0.6395	-0.4481	-0.2388	-0.6869	-0.5944	-0.3517	-0.9462	68.9730	99.9241	
   216	-0.5088	-0.1402	-0.6490	-0.4670	-0.2255	-0.6925	-0.5989	-0.3327	-0.9317	68.8758	99.9224	
   217	-0.5167	-0.1451	-0.6618	-0.4738	-0.2297	-0.7035	-0.5989	-0.3327	-0.9317	68.8738	99.9212	
   218	-0.5078	-0.1252	-0.6330	-0.4586	-0.1954	-0.6539	-0.5681	-0.2915	-0.8596	68.7712	99.9209	
   219	-0.4448	-0.0864	-0.5311	-0.3646	-0.1624	-0.5270	-0.4809	-0.2586	-0.7396	68.9464	99.9238	
   220	-0.3600	-0.0630	-0.4229	-0.3048	-0.1504	-0.4552	-0.4292	-0.2479	-0.6772	68.9504	99.9213	
   221	-0.3757	-0.0727	-0.4484	-0.3449	-0.1627	-0.5077	-0.4698	-0.2625	-0.7324	68.8658	99.9191	
   222	-0.4132	-0.0669	-0.4801	-0.3774	-0.1579	-0.5353	-0.4921	-0.2546	-0.7468	68.8639	99.9180	
   223	-0.4359	-0.0665	-0.5024	-0.3903	-0.1533	-0.5436	-0.4914	-0.2433	-0.7348	68.8580	99.9170	
   224	-0.4428	-0.0563	-0.4991	-0.3895	-0.1404	-0.5298	-0.4737	-0.2322	-0.7060	68.9444	99.9164	
   225	-0.3965	-0.0422	-0.4387	-0.3228	-0.1242	-0.4470	-0.4161	-0.2178	-0.6339	69.0304	99.9198	
   226	-0.2909	-0.0493	-0.3402	-0.2441	-0.1255	-0.3697	-0.3709	-0.2222	-0.5932	68.8540	99.9219	
   227	-0.2978	-0.0392	-0.3370	-0.2441	-0.1255	-0.3697	-0.3813	-0.2069	-0.5883	68.7617	99.9206	
   228	-0.3511	-0.0431	-0.3942	-0.2963	-0.1203	-0.4167	-0.3984	-0.2067	-0.6051	68.8482	99.9185	
   229	-0.3659	-0.0378	-0.4037	-0.3092	-0.1158	-0.4250	-0.4036	-0.1990	-0.6027	68.8462	99.9174	
   230	-0.4044	-0.0471	-0.4514	-0.3349	-0.1067	-0.4416	-0.4258	-0.1912	-0.6171	68.7504	99.9204	
   231	-0.3965	-0.0422	-0.4387	-0.3084	-0.1029	-0.4112	-0.3918	-0.1916	-0.5835	68.9282	99.9218	
   232	-0.2890	-0.0193	-0.3083	-0.2092	-0.0916	-0.3007	-0.3060	-0.1814	-0.4875	69.0200	99.9213	
   233	-0.2436	-0.0202	-0.2638	-0.1903	-0.1048	-0.2952	-0.3119	-0.1851	-0.4971	68.8462	99.9189	
   234	-0.3057	-0.0440	-0.3497	-0.2433	-0.1126	-0.3559	-0.3637	-0.1958	-0.5595	68.7542	99.9218	
   235	-0.3511	-0.0431	-0.3942	-0.2758	-0.1077	-0.3836	-0.3800	-0.1842	-0.5643	68.7485	99.9208	
   236	-0.3422	-0.0232	-0.3655	-0.2810	-0.0860	-0.3671	-0.3675	-0.1655	-0.5331	68.7467	99.9182	
   237	-0.3413	-0.0082	-0.3495	-0.2674	-0.0776	-0.3450	-0.3387	-0.1583	-0.4970	68.9242	99.9171	
   238	-0.2486	 0.0200	-0.2286	-0.1682	-0.0663	-0.2345	-0.2588	-0.1517	-0.4107	69.1074	99.9186	
   239	-0.1973	-0.0061	-0.2033	-0.1494	-0.0796	-0.2290	-0.2706	-0.1591	-0.4299	68.7504	99.9195	
   240	-0.2199	-0.0056	-0.2256	-0.1690	-0.0793	-0.2483	-0.2818	-0.1552	-0.4371	68.7485	99.9184	
   241	-0.2574	 0.0001	-0.2573	-0.2015	-0.0744	-0.2760	-0.3047	-0.1587	-0.4635	68.8404	99.9188	
   242	-0.2713	 0.0205	-0.2508	-0.2015	-0.0744	-0.2760	-0.3099	-0.1511	-0.4610	68.9323	99.9174	
   243	-0.2634	 0.0253	-0.2381	-0.2144	-0.0699	-0.2843	-0.3210	-0.1471	-0.4682	68.8443	99.9153	
   244	-0.2091	 0.0443	-0.1649	-0.1409	-0.0495	-0.1904	-0.2405	-0.1293	-0.3698	69.0179	99.9169	
   245	-0.1253	 0.0526	-0.0727	-0.0606	-0.0249	-0.0855	-0.1651	-0.1038	-0.2690	68.9203	99.9188	
   246	-0.1105	 0.0473	-0.0632	-0.0606	-0.0249	-0.0855	-0.1763	-0.0998	-0.2762	68.7411	99.9187	
   247	-0.1549	 0.0632	-0.0917	-0.0803	-0.0246	-0.1049	-0.1933	-0.0996	-0.2930	68.9223	99.9190	
   248	-0.1628	 0.0584	-0.1044	-0.0999	-0.0243	-0.1242	-0.2103	-0.0994	-0.3098	68.8327	99.9182	
   249	-0.1845	 0.0739	-0.1107	-0.1188	-0.0110	-0.1298	-0.2096	-0.0881	-0.2978	68.9203	99.9164	
   250	-0.1845	 0.0739	-0.1107	-0.0991	-0.0113	-0.1105	-0.1919	-0.0769	-0.2689	68.9143	99.9169	
   251	-0.1086	 0.0774	-0.0312	-0.0257	 0.0090	-0.0166	-0.1284	-0.0588	-0.1873	68.8193	99.9199	
   252	-0.0790	 0.0667	-0.0122	-0.0128	 0.0045	-0.0083	-0.1173	-0.0628	-0.1801	68.7300	99.9191	
   253	-0.1017	 0.0672	-0.0345	-0.0325	 0.0048	-0.0276	-0.1343	-0.0625	-0.1969	68.7300	99.9191	
   254	-0.1391	 0.0729	-0.0662	-0.0453	 0.0094	-0.0359	-0.1454	-0.0586	-0.2041	68.8174	99.9211	
   255	-0.1401	 0.0579	-0.0822	-0.0718	 0.0055	-0.0663	-0.1742	-0.0658	-0.2401	68.6406	99.9207	
   256	-0.1707	 0.0535	-0.1172	-0.0923	-0.0071	-0.0994	-0.1978	-0.0806	-0.2785	68.7337	99.9213	
   257	-0.1934	 0.0540	-0.1394	-0.0923	-0.0071	-0.0994	-0.1867	-0.0846	-0.2714	68.9104	99.9227	
   258	-0.1332	 0.0478	-0.0854	-0.0590	 0.0010	-0.0580	-0.1638	-0.0811	-0.2450	68.7318	99.9234	
   259	-0.1559	 0.0482	-0.1077	-0.0598	-0.0120	-0.0718	-0.1867	-0.0846	-0.2714	68.7337	99.9251	
   260	-0.2101	 0.0293	-0.1809	-0.1325	-0.0194	-0.1519	-0.2391	-0.1066	-0.3458	68.7374	99.9244	
   261	-0.2486	 0.0200	-0.2286	-0.1726	-0.0317	-0.2043	-0.2797	-0.1212	-0.4010	68.7411	99.9243	
   262	-0.2939	 0.0209	-0.2730	-0.2059	-0.0398	-0.2457	-0.3085	-0.1284	-0.4370	68.8327	99.9238	
   263	-0.3166	 0.0214	-0.2953	-0.2188	-0.0352	-0.2540	-0.3189	-0.1131	-0.4322	68.7374	99.9235	
   264	-0.2782	 0.0306	-0.2476	-0.1786	-0.0229	-0.2016	-0.2731	-0.1062	-0.3794	68.8250	99.9241	
   265	-0.2022	 0.0341	-0.1681	-0.1136	-0.0327	-0.1463	-0.2280	-0.1105	-0.3386	68.8288	99.9231	
   266	-0.2170	 0.0394	-0.1776	-0.1393	-0.0236	-0.1629	-0.2502	-0.1027	-0.3530	68.7392	99.9223	
   267	-0.2476	 0.0350	-0.2126	-0.1650	-0.0145	-0.1795	-0.2724	-0.0948	-0.3673	68.6460	99.9240	
   268	-0.2782	 0.0306	-0.2476	-0.1915	-0.0184	-0.2099	-0.2894	-0.0946	-0.3841	68.6442	99.9229	
   269	-0.3157	 0.0364	-0.2793	-0.2308	-0.0177	-0.2486	-0.3241	-0.1055	-0.4297	68.7392	99.9232	
   270	-0.3541	 0.0271	-0.3270	-0.2710	-0.0300	-0.3010	-0.3700	-0.1125	-0.4825	68.6513	99.9226	
   271	-0.3393	 0.0218	-0.3175	-0.2385	-0.0349	-0.2734	-0.3359	-0.1129	-0.4489	68.7374	99.9235	
   272	-0.3245	 0.0165	-0.3080	-0.2324	-0.0436	-0.2761	-0.3307	-0.1205	-0.4514	68.7392	99.9223	
   273	-0.3472	 0.0170	-0.3302	-0.2581	-0.0346	-0.2927	-0.3471	-0.1090	-0.4561	68.6460	99.9217	
   274	-0.3541	 0.0271	-0.3270	-0.2633	-0.0129	-0.2762	-0.3280	-0.0752	-0.4033	68.5460	99.9189	
   275	-0.3522	 0.0572	-0.2950	-0.2481	 0.0214	-0.2266	-0.2912	-0.0303	-0.3216	68.5358	99.9169	
   276	-0.3127	 0.0814	-0.2313	-0.2139	 0.0425	-0.1715	-0.2388	-0.0082	-0.2472	68.6212	99.9139	
   277	-0.3039	 0.1013	-0.2026	-0.1866	 0.0593	-0.1273	-0.2086	 0.0216	-0.1871	68.6143	99.9133	
   278	-0.2349	 0.1150	-0.1199	-0.1336	 0.0670	-0.0666	-0.1635	 0.0173	-0.1463	68.7081	99.9136	
   279	-0.2201	 0.1097	-0.1104	-0.1208	 0.0625	-0.0583	-0.1583	 0.0096	-0.1488	68.7099	99.9147	
   280	-0.2506	 0.1053	-0.1454	-0.1609	 0.0502	-0.1107	-0.1930	-0.0013	-0.1944	68.7135	99.9121	
   281	-0.2891	 0.0960	-0.1931	-0.1934	 0.0551	-0.1384	-0.2263	 0.0105	-0.2159	68.5308	99.9135	
   282	-0.3118	 0.0964	-0.2153	-0.2063	 0.0596	-0.1467	-0.2204	 0.0142	-0.2063	68.6160	99.9129	
   283	-0.3345	 0.0969	-0.2376	-0.2191	 0.0642	-0.1550	-0.2309	 0.0295	-0.2015	68.5224	99.9126	
   284	-0.3029	 0.1163	-0.1866	-0.1850	 0.0852	-0.0998	-0.1673	 0.0476	-0.1199	68.6937	99.9101	
   285	-0.2408	 0.1401	-0.1007	-0.1252	 0.0972	-0.0280	-0.1274	 0.0508	-0.0767	68.7873	99.9120	
   286	-0.2191	 0.1247	-0.0944	-0.1320	 0.0929	-0.0391	-0.1444	 0.0511	-0.0935	68.5224	99.9111	
   287	-0.2645	 0.1256	-0.1389	-0.1585	 0.0891	-0.0694	-0.1562	 0.0437	-0.1127	68.6991	99.9112	
   288	-0.2871	 0.1260	-0.1611	-0.1713	 0.0936	-0.0777	-0.1673	 0.0476	-0.1199	68.6973	99.9125	
   289	-0.3177	 0.1216	-0.1961	-0.1978	 0.0897	-0.1081	-0.1962	 0.0404	-0.1559	68.6991	99.9136	
   290	-0.3335	 0.1119	-0.2216	-0.2175	 0.0901	-0.1274	-0.2014	 0.0480	-0.1534	68.6056	99.9118	
   291	-0.2881	 0.1110	-0.1771	-0.1653	 0.0849	-0.0805	-0.1673	 0.0476	-0.1199	68.6056	99.9133	
   292	-0.2802	 0.1159	-0.1644	-0.1653	 0.0849	-0.0805	-0.1569	 0.0323	-0.1247	68.7873	99.9129	
   293	-0.3039	 0.1013	-0.2026	-0.1926	 0.0680	-0.1246	-0.1916	 0.0214	-0.1703	68.7009	99.9123	
   294	-0.3493	 0.1022	-0.2471	-0.2320	 0.0687	-0.1633	-0.2315	 0.0181	-0.2135	68.7027	99.9135	
   295	-0.3650	 0.0925	-0.2725	-0.2585	 0.0648	-0.1936	-0.2486	 0.0184	-0.2303	68.6125	99.9115	
   296	-0.3877	 0.0930	-0.2948	-0.2713	 0.0694	-0.2020	-0.2597	 0.0223	-0.2375	68.6108	99.9128	
   297	-0.3719	 0.1027	-0.2693	-0.2448	 0.0732	-0.1716	-0.2309	 0.0295	-0.2015	68.6973	99.9125	
   298	-0.3266	 0.1018	-0.2248	-0.2055	 0.0726	-0.1329	-0.2079	 0.0330	-0.1751	68.6091	99.9132	
   299	-0.3493	 0.1022	-0.2471	-0.2320	 0.0687	-0.1633	-0.2309	 0.0295	-0.2015	68.6108	99.9119	
   300	-0.3798	 0.0978	-0.2820	-0.2713	 0.0694	-0.2020	-0.2486	 0.0184	-0.2303	68.7009	99.9108	
   301	-0.4025	 0.0983	-0.3043	-0.2782	 0.0652	-0.2130	-0.2649	 0.0299	-0.2351	68.6091	99.9107	
   302	-0.4104	 0.0934	-0.3170	-0.2910	 0.0697	-0.2213	-0.2767	 0.0225	-0.2543	68.6108	99.9128	
   303	-0.4104	 0.0934	-0.3170	-0.2842	 0.0739	-0.2103	-0.2590	 0.0336	-0.2255	68.6056	99.9118	
   304	-0.3483	 0.1172	-0.2311	-0.2175	 0.0901	-0.1274	-0.1955	 0.0517	-0.1438	68.6919	99.9115	
   305	-0.3098	 0.1265	-0.1833	-0.1978	 0.0897	-0.1081	-0.1732	 0.0439	-0.1295	68.7854	99.9093	
   306	-0.3177	 0.1216	-0.1961	-0.2107	 0.0943	-0.1164	-0.1844	 0.0478	-0.1367	68.6955	99.9098	
   307	-0.3404	 0.1221	-0.2183	-0.2243	 0.0859	-0.1385	-0.2073	 0.0443	-0.1631	68.6973	99.9100	
   308	-0.3473	 0.1322	-0.2151	-0.2372	 0.0904	-0.1468	-0.2073	 0.0443	-0.1631	68.7873	99.9079	
   309	-0.3552	 0.1274	-0.2278	-0.2432	 0.0991	-0.1441	-0.2066	 0.0557	-0.1510	68.6937	99.9086	
   310	-0.3167	 0.1366	-0.1801	-0.1902	 0.1069	-0.0833	-0.1601	 0.0740	-0.0862	68.6884	99.9091	
   311	-0.2635	 0.1406	-0.1229	-0.1509	 0.1062	-0.0446	-0.1326	 0.0585	-0.0743	68.7835	99.9106	
   312	-0.2862	 0.1410	-0.1451	-0.1774	 0.1024	-0.0750	-0.1614	 0.0513	-0.1103	68.7873	99.9104	
   313	-0.3089	 0.1415	-0.1674	-0.1978	 0.0897	-0.1081	-0.1903	 0.0441	-0.1463	68.7910	99.9093	
   314	-0.3167	 0.1366	-0.1801	-0.2107	 0.0943	-0.1164	-0.1955	 0.0517	-0.1438	68.6991	99.9087	
   315	-0.3237	 0.1468	-0.1769	-0.2167	 0.1030	-0.1137	-0.1896	 0.0554	-0.1342	68.7873	99.9079	
   316	-0.3000	 0.1614	-0.1386	-0.1834	 0.1111	-0.0723	-0.1555	 0.0550	-0.1007	68.9652	99.9092	
   317	-0.2162	 0.1697	-0.0464	-0.1312	 0.1059	-0.0253	-0.1444	 0.0511	-0.0935	68.7985	99.9090	
   318	-0.2310	 0.1750	-0.0559	-0.1585	 0.0891	-0.0694	-0.1850	 0.0365	-0.1487	68.8079	99.9064	
   319	-0.3010	 0.1464	-0.1546	-0.2252	 0.0729	-0.1522	-0.2381	 0.0031	-0.2351	68.9005	99.9090	
   320	-0.3789	 0.1128	-0.2660	-0.2858	 0.0480	-0.2378	-0.3016	-0.0150	-0.3167	68.8098	99.9111	
   321	-0.4341	 0.0788	-0.3552	-0.3524	 0.0319	-0.3206	-0.3711	-0.0368	-0.4080	68.6335	99.9131	
   322	-0.5041	 0.0502	-0.4539	-0.4131	 0.0069	-0.4061	-0.4300	-0.0739	-0.5040	68.7282	99.9158	
   323	-0.5287	 0.0206	-0.5081	-0.4215	-0.0232	-0.4447	-0.4484	-0.0963	-0.5449	68.7282	99.9174	
   324	-0.5612	-0.0139	-0.5751	-0.4625	-0.0484	-0.5109	-0.4956	-0.1260	-0.6217	68.6424	99.9188	
   325	-0.6076	-0.0280	-0.6355	-0.5223	-0.0603	-0.5827	-0.5421	-0.1443	-0.6865	68.6460	99.9171	
   326	-0.6539	-0.0421	-0.6960	-0.5625	-0.0726	-0.6351	-0.5932	-0.1436	-0.7369	68.4647	99.9174	
   327	-0.6766	-0.0416	-0.7182	-0.5822	-0.0723	-0.6545	-0.5991	-0.1473	-0.7465	68.5545	99.9167	
   328	-0.6993	-0.0412	-0.7404	-0.5958	-0.0807	-0.6765	-0.6050	-0.1511	-0.7561	68.6442	99.9151	
   329	-0.6381	-0.0324	-0.6705	-0.5420	-0.0600	-0.6020	-0.5525	-0.1290	-0.6817	68.5494	99.9157	
   330	-0.5839	-0.0134	-0.5973	-0.5018	-0.0477	-0.5496	-0.5126	-0.1258	-0.6385	68.6424	99.9148	
   331	-0.5839	-0.0134	-0.5973	-0.5027	-0.0607	-0.5633	-0.5296	-0.1255	-0.6553	68.5545	99.9134	
   332	-0.6066	-0.0129	-0.6195	-0.5223	-0.0603	-0.5827	-0.5355	-0.1292	-0.6649	68.6442	99.9126	
   333	-0.6056	 0.0021	-0.6035	-0.5283	-0.0516	-0.5799	-0.5408	-0.1216	-0.6625	68.6460	99.9113	
   334	-0.6135	-0.0028	-0.6163	-0.5283	-0.0516	-0.5799	-0.5519	-0.1177	-0.6697	68.5545	99.9134	
   335	-0.5977	 0.0069	-0.5908	-0.5147	-0.0432	-0.5579	-0.5178	-0.1181	-0.6361	68.7337	99.9119	
   336	-0.5287	 0.0206	-0.5081	-0.4488	-0.0400	-0.4888	-0.4609	-0.1151	-0.5761	68.8250	99.9114	
   337	-0.5139	 0.0153	-0.4986	-0.4428	-0.0487	-0.4915	-0.4727	-0.1225	-0.5953	68.7392	99.9120	
   338	-0.5376	 0.0007	-0.5368	-0.4753	-0.0439	-0.5192	-0.5060	-0.1107	-0.6169	68.4647	99.9125	
   339	-0.5750	 0.0065	-0.5686	-0.4950	-0.0435	-0.5385	-0.5178	-0.1181	-0.6361	68.6460	99.9138	
   340	-0.5987	-0.0081	-0.6068	-0.5283	-0.0516	-0.5799	-0.5525	-0.1290	-0.6817	68.5579	99.9141	
   341	-0.6135	-0.0028	-0.6163	-0.5283	-0.0516	-0.5799	-0.5467	-0.1253	-0.6721	68.6460	99.9138	
   342	-0.5454	-0.0041	-0.5496	-0.4693	-0.0526	-0.5219	-0.4956	-0.1260	-0.6217	68.6460	99.9138	
   343	-0.5306	-0.0095	-0.5401	-0.4633	-0.0613	-0.5246	-0.5022	-0.1410	-0.6433	68.6513	99.9148	
   344	-0.5691	-0.0187	-0.5878	-0.4966	-0.0694	-0.5661	-0.5421	-0.1443	-0.6865	68.5614	99.9155	
   345	-0.5928	-0.0333	-0.6260	-0.5368	-0.0817	-0.6185	-0.5605	-0.1668	-0.7274	68.6549	99.9131	
   346	-0.6154	-0.0328	-0.6483	-0.5436	-0.0859	-0.6295	-0.5775	-0.1665	-0.7442	68.6549	99.9147	
   347	-0.6154	-0.0328	-0.6483	-0.5436	-0.0859	-0.6295	-0.5775	-0.1665	-0.7442	68.6549	99.9147	
   348	-0.5622	-0.0289	-0.5911	-0.4974	-0.0824	-0.5798	-0.5435	-0.1670	-0.7106	68.6567	99.9158	
   349	-0.5632	-0.0439	-0.6070	-0.5111	-0.0908	-0.6019	-0.5560	-0.1857	-0.7418	68.6603	99.9166	
   350	-0.5947	-0.0633	-0.6580	-0.5452	-0.1118	-0.6571	-0.6025	-0.2040	-0.8066	68.5735	99.9171	
   351	-0.6480	-0.0673	-0.7152	-0.5914	-0.1154	-0.7068	-0.6372	-0.2149	-0.8522	68.6657	99.9176	
   352	-0.6637	-0.0770	-0.7407	-0.6127	-0.1409	-0.7536	-0.6726	-0.2372	-0.9099	68.6730	99.9164	
   353	-0.6716	-0.0818	-0.7534	-0.6187	-0.1322	-0.7509	-0.6719	-0.2258	-0.8978	68.5770	99.9170	
   354	-0.6105	-0.0730	-0.6835	-0.5460	-0.1248	-0.6708	-0.6091	-0.2191	-0.8283	68.6657	99.9191	
   355	-0.5957	-0.0783	-0.6740	-0.5469	-0.1377	-0.6846	-0.6268	-0.2302	-0.8571	68.5805	99.9184	
   356	-0.6341	-0.0876	-0.7217	-0.5930	-0.1413	-0.7343	-0.6556	-0.2374	-0.8931	68.5805	99.9169	
   357	-0.6716	-0.0818	-0.7534	-0.6127	-0.1409	-0.7536	-0.6726	-0.2372	-0.9099	68.6712	99.9177	
   358	-0.6716	-0.0818	-0.7534	-0.6195	-0.1451	-0.7647	-0.6837	-0.2333	-0.9171	68.5805	99.9160	
   359	-0.6943	-0.0814	-0.7757	-0.6392	-0.1448	-0.7840	-0.6896	-0.2370	-0.9267	68.6712	99.9152	
   360	-0.6410	-0.0774	-0.7185	-0.5930	-0.1413	-0.7343	-0.6497	-0.2337	-0.8835	68.6712	99.9152	
   361	-0.6036	-0.0832	-0.6867	-0.5605	-0.1461	-0.7066	-0.6275	-0.2415	-0.8691	68.6730	99.9164	
   362	-0.6341	-0.0876	-0.7217	-0.5999	-0.1455	-0.7453	-0.6563	-0.2487	-0.9051	68.6748	99.9160	
   363	-0.6726	-0.0968	-0.7694	-0.6332	-0.1535	-0.7867	-0.6962	-0.2520	-0.9483	68.5840	99.9167	
   364	-0.6953	-0.0964	-0.7917	-0.6468	-0.1620	-0.8088	-0.7132	-0.2518	-0.9651	68.5840	99.9158	
   365	-0.7180	-0.0959	-0.8139	-0.6665	-0.1616	-0.8281	-0.7191	-0.2555	-0.9747	68.6748	99.9151	
   366	-0.6874	-0.0915	-0.7789	-0.6332	-0.1535	-0.7867	-0.6844	-0.2446	-0.9291	68.6712	99.9152	
   367	-0.6262	-0.0827	-0.7090	-0.5673	-0.1503	-0.7177	-0.6327	-0.2339	-0.8667	68.6693	99.9156	
   368	-0.6193	-0.0929	-0.7122	-0.5802	-0.1458	-0.7260	-0.6556	-0.2374	-0.8931	68.4897	99.9176	
   369	-0.6578	-0.1021	-0.7599	-0.6203	-0.1581	-0.7784	-0.6903	-0.2483	-0.9387	68.4914	99.9163	
   370	-0.6953	-0.0964	-0.7917	-0.6529	-0.1532	-0.8061	-0.7073	-0.2481	-0.9555	68.5823	99.9156	
   371	-0.7032	-0.1012	-0.8044	-0.6597	-0.1574	-0.8171	-0.7184	-0.2442	-0.9627	68.4897	99.9151	
   372	-0.7180	-0.0959	-0.8139	-0.6657	-0.1487	-0.8144	-0.7125	-0.2405	-0.9531	68.5788	99.9157	
   373	-0.6568	-0.0871	-0.7439	-0.5999	-0.1455	-0.7453	-0.6497	-0.2337	-0.8835	68.6675	99.9154	
   374	-0.6193	-0.0929	-0.7122	-0.5802	-0.1458	-0.7260	-0.6445	-0.2413	-0.8859	68.5805	99.9169	
   375	-0.6578	-0.1021	-0.7599	-0.6203	-0.1581	-0.7784	-0.6844	-0.2446	-0.9291	68.4897	99.9151	
   376	-0.7032	-0.1012	-0.8044	-0.6529	-0.1532	-0.8061	-0.7073	-0.2481	-0.9555	68.5805	99.9169	
   377	-0.7258	-0.1008	-0.8266	-0.6725	-0.1529	-0.8254	-0.7184	-0.2442	-0.9627	68.5788	99.9157	
   378	-0.7337	-0.1056	-0.8394	-0.6794	-0.1571	-0.8364	-0.7243	-0.2479	-0.9723	68.5788	99.9157	
   379	-0.7406	-0.0955	-0.8361	-0.6725	-0.1529	-0.8254	-0.7125	-0.2405	-0.9531	68.6675	99.9154	
   380	-0.6726	-0.0968	-0.7694	-0.6135	-0.1539	-0.7674	-0.6733	-0.2485	-0.9219	68.6712	99.9177	
   381	-0.6657	-0.1070	-0.7727	-0.6272	-0.1623	-0.7895	-0.7021	-0.2557	-0.9579	68.4931	99.9174	
   382	-0.7268	-0.1158	-0.8426	-0.6802	-0.1700	-0.8502	-0.7479	-0.2627	-1.0107	68.4931	99.9174	
   383	-0.7574	-0.1202	-0.8776	-0.7135	-0.1781	-0.8916	-0.7715	-0.2775	-1.0491	68.5875	99.9166	
   384	-0.7880	-0.1246	-0.9126	-0.7400	-0.1820	-0.9220	-0.7885	-0.2773	-1.0659	68.5858	99.9154	
   385	-0.8107	-0.1242	-0.9348	-0.7597	-0.1817	-0.9413	-0.8166	-0.2732	-1.0899	68.4948	99.9161	
   386	-0.8107	-0.1242	-0.9348	-0.7528	-0.1774	-0.9303	-0.7878	-0.2660	-1.0539	68.5805	99.9144	
   387	-0.7416	-0.1105	-0.8521	-0.6802	-0.1700	-0.8502	-0.7420	-0.2590	-1.0011	68.5823	99.9171	
   388	-0.7268	-0.1158	-0.8426	-0.6870	-0.1742	-0.8612	-0.7427	-0.2703	-1.0131	68.5858	99.9154	
   389	-0.7653	-0.1251	-0.8903	-0.7203	-0.1823	-0.9026	-0.7767	-0.2699	-1.0467	68.4931	99.9150	
   390	-0.8028	-0.1193	-0.9221	-0.7468	-0.1862	-0.9330	-0.7944	-0.2810	-1.0755	68.6785	99.9149	
   391	-0.8185	-0.1290	-0.9475	-0.7605	-0.1946	-0.9551	-0.8173	-0.2845	-1.1019	68.5875	99.9157	
   392	-0.8491	-0.1334	-0.9825	-0.7998	-0.1939	-0.9938	-0.8461	-0.2917	-1.1379	68.5893	99.9153	
   393	-0.8264	-0.1339	-0.9603	-0.7733	-0.1901	-0.9634	-0.8173	-0.2845	-1.1019	68.5858	99.9154	
   394	-0.7732	-0.1299	-0.9031	-0.7340	-0.1907	-0.9247	-0.7892	-0.2886	-1.0779	68.5893	99.9153	
   395	-0.7959	-0.1295	-0.9253	-0.7408	-0.1949	-0.9357	-0.8062	-0.2884	-1.0947	68.5893	99.9168	
   396	-0.8185	-0.1290	-0.9475	-0.7725	-0.1771	-0.9496	-0.8218	-0.2655	-1.0875	68.4004	99.9155	
   397	-0.8324	-0.1087	-0.9410	-0.7649	-0.1600	-0.9248	-0.8094	-0.2468	-1.0562	68.4880	99.9164	
   398	-0.8166	-0.0990	-0.9156	-0.7504	-0.1386	-0.8890	-0.7740	-0.2245	-0.9986	68.4813	99.9152	
   399	-0.8077	-0.0791	-0.8868	-0.7163	-0.1176	-0.8338	-0.7209	-0.1912	-0.9121	68.5614	99.9140	
   400	-0.7072	-0.0460	-0.7532	-0.6147	-0.0674	-0.6821	-0.6043	-0.1397	-0.7441	68.5494	99.9142	
   401	-0.6066	-0.0129	-0.6195	-0.5207	-0.0344	-0.5551	-0.5106	-0.0917	-0.6024	68.4516	99.9116	
   402	-0.5583	 0.0312	-0.5271	-0.4661	-0.0008	-0.4669	-0.4568	-0.0470	-0.5039	68.4468	99.9096	
   403	-0.4942	 0.0851	-0.4092	-0.3986	 0.0283	-0.3703	-0.3822	-0.0329	-0.4151	68.8079	99.9083	
   404	-0.4094	 0.1084	-0.3010	-0.3336	 0.0186	-0.3150	-0.3658	-0.0444	-0.4104	68.8231	99.9083	
   405	-0.3710	 0.1177	-0.2533	-0.3207	 0.0140	-0.3067	-0.3672	-0.0671	-0.4344	68.9262	99.9083	
   406	-0.2950	 0.1212	-0.1739	-0.2489	 0.0085	-0.2404	-0.3103	-0.0641	-0.3744	68.9262	99.9074	
   407	-0.2349	 0.1150	-0.1199	-0.1899	 0.0075	-0.1824	-0.2770	-0.0758	-0.3529	68.9303	99.9123	
   408	-0.2427	 0.1101	-0.1326	-0.2051	-0.0268	-0.2319	-0.3248	-0.1168	-0.4418	69.0387	99.9127	
   409	-0.2743	 0.0907	-0.1836	-0.2513	-0.0304	-0.2817	-0.3523	-0.1013	-0.4537	68.7579	99.9084	
   410	-0.2339	 0.1300	-0.1039	-0.1694	 0.0201	-0.1493	-0.2409	-0.0423	-0.2832	68.9183	99.9092	
   411	-0.1787	 0.1640	-0.0147	-0.1148	 0.0538	-0.0610	-0.1760	-0.0015	-0.1776	68.9104	99.9070	
   412	-0.1579	 0.1335	-0.0245	-0.0959	 0.0405	-0.0554	-0.1368	-0.0096	-0.1464	68.9025	99.9057	
   413	-0.1254	 0.1679	 0.0425	 0.0057	 0.0906	 0.0963	-0.0431	 0.0384	-0.0047	69.0633	99.9155	
   414	-0.1135	 0.1175	 0.0040	 0.0270	 0.1162	 0.1432	 0.0225	 0.0905	 0.1129	68.5885	99.9165	
   415	-0.0741	 0.1418	 0.0677	 0.0475	 0.1288	 0.1763	 0.0395	 0.0903	 0.1297	68.6831	99.9155	
   416	-0.1135	 0.1175	 0.0040	-0.0011	 0.0864	 0.0853	-0.0260	 0.0382	 0.0120	68.7854	99.9157	
   417	-0.1678	 0.0986	-0.0692	-0.0429	 0.0482	 0.0053	-0.0798	-0.0065	-0.0864	68.9732	99.9169	
   418	-0.1687	 0.0836	-0.0852	-0.0489	 0.0570	 0.0081	-0.0673	 0.0122	-0.0552	68.7854	99.9157	
   419	-0.0918	 0.1021	 0.0103	 0.0503	 0.0683	 0.1185	 0.0243	 0.0262	 0.0504	68.9573	99.9175	
   420	-0.0465	 0.1012	 0.0547	 0.0768	 0.0721	 0.1489	 0.0413	 0.0260	 0.0672	68.8715	99.9178	
   421	-0.0543	 0.0963	 0.0420	 0.0699	 0.0679	 0.1379	 0.0472	 0.0297	 0.0768	68.8676	99.9156	
   422	-0.0543	 0.0963	 0.0420	 0.0836	 0.0763	 0.1599	 0.0649	 0.0408	 0.1056	68.8619	99.9170	
   423	-0.0543	 0.0963	 0.0420	 0.0904	 0.0805	 0.1710	 0.0819	 0.0406	 0.1224	68.9474	99.9175	
   424	-0.0543	 0.0963	 0.0420	 0.0904	 0.0805	 0.1710	 0.0878	 0.0443	 0.1320	68.9454	99.9164	
   425	 0.0137	 0.0950	 0.1087	 0.1571	 0.0967	 0.2538	 0.1565	 0.0548	 0.2112	68.9396	99.9187	
   426	 0.0749	 0.1038	 0.1786	 0.2161	 0.0957	 0.3118	 0.2024	 0.0617	 0.2640	68.9396	99.9178	
   427	 0.0749	 0.1038	 0.1786	 0.2229	 0.0999	 0.3228	 0.2083	 0.0654	 0.2736	68.9376	99.9191	
   428	 0.0749	 0.1038	 0.1786	 0.2229	 0.0999	 0.3228	 0.2089	 0.0768	 0.2856	68.8468	99.9175	
   429	 0.0749	 0.1038	 0.1786	 0.2366	 0.1083	 0.3449	 0.2319	 0.0803	 0.3120	68.9298	99.9193	
   430	 0.0897	 0.0985	 0.1881	 0.2306	 0.1171	 0.3476	 0.2378	 0.0840	 0.3216	68.8411	99.9183	
   431	 0.1133	 0.1130	 0.2263	 0.2767	 0.1206	 0.3973	 0.2836	 0.0909	 0.3744	69.0126	99.9188	
   432	 0.1972	 0.1214	 0.3185	 0.3494	 0.1280	 0.4774	 0.3516	 0.0901	 0.4416	69.1011	99.9192	
   433	 0.2198	 0.1209	 0.3408	 0.3751	 0.1190	 0.4940	 0.3516	 0.0901	 0.4416	69.0166	99.9201	
   434	 0.2120	 0.1161	 0.3280	 0.3622	 0.1235	 0.4857	 0.3516	 0.0901	 0.4416	69.0146	99.9199	
   435	 0.2120	 0.1161	 0.3280	 0.3691	 0.1277	 0.4968	 0.3634	 0.0975	 0.4608	69.0106	99.9200	
   436	 0.2198	 0.1209	 0.3408	 0.3819	 0.1232	 0.5051	 0.3686	 0.0899	 0.4584	69.1011	99.9207	
   437	 0.2198	 0.1209	 0.3408	 0.3948	 0.1186	 0.5134	 0.3850	 0.0783	 0.4631	69.2760	99.9219	
   438	 0.2889	 0.1346	 0.4234	 0.4598	 0.1089	 0.5687	 0.4294	 0.0626	 0.4919	69.4598	99.9219	
   439	 0.3412	 0.1235	 0.4647	 0.4923	 0.1040	 0.5963	 0.4405	 0.0587	 0.4991	69.2891	99.9229	
   440	 0.3412	 0.1235	 0.4647	 0.4991	 0.1082	 0.6074	 0.4471	 0.0737	 0.5207	69.1960	99.9226	
   441	 0.3490	 0.1284	 0.4774	 0.5068	 0.1254	 0.6321	 0.4596	 0.0925	 0.5519	69.1031	99.9232	
   442	 0.3569	 0.1332	 0.4901	 0.5136	 0.1296	 0.6432	 0.4766	 0.0922	 0.5687	69.1896	99.9225	
   443	 0.3569	 0.1332	 0.4901	 0.5264	 0.1250	 0.6515	 0.4877	 0.0883	 0.5759	69.2760	99.9233	
   444	 0.4260	 0.1469	 0.5728	 0.5991	 0.1325	 0.7316	 0.5505	 0.0951	 0.6455	69.3622	99.9241	
   445	 0.4871	 0.1557	 0.6428	 0.6393	 0.1447	 0.7840	 0.5852	 0.1060	 0.6911	69.2760	99.9233	
   446	 0.4871	 0.1557	 0.6428	 0.6453	 0.1360	 0.7813	 0.5793	 0.1023	 0.6815	69.2781	99.9235	
   447	 0.4792	 0.1508	 0.6300	 0.6324	 0.1405	 0.7730	 0.5793	 0.1023	 0.6815	69.2760	99.9233	
   448	 0.4871	 0.1557	 0.6428	 0.6393	 0.1447	 0.7840	 0.5963	 0.1020	 0.6983	69.3622	99.9226	
   449	 0.4802	 0.1658	 0.6460	 0.6461	 0.1489	 0.7950	 0.6022	 0.1058	 0.7079	69.4483	99.9234	
   450	 0.5186	 0.1751	 0.6937	 0.6991	 0.1567	 0.8558	 0.6488	 0.1241	 0.7727	69.4414	99.9239	
   451	 0.6104	 0.1883	 0.7987	 0.7726	 0.1771	 0.9496	 0.7234	 0.1382	 0.8615	69.4391	99.9237	
   452	 0.6182	 0.1932	 0.8114	 0.7794	 0.1813	 0.9607	 0.7293	 0.1419	 0.8711	69.4391	99.9237	
   453	 0.6104	 0.1883	 0.7987	 0.7597	 0.1816	 0.9413	 0.7234	 0.1382	 0.8615	69.4391	99.9222	
   454	 0.6113	 0.2033	 0.8146	 0.7862	 0.1855	 0.9717	 0.7418	 0.1607	 0.9024	69.4322	99.9218	
   455	 0.6340	 0.2029	 0.8369	 0.7871	 0.1984	 0.9855	 0.7536	 0.1681	 0.9216	69.3443	99.9208	
   456	 0.6271	 0.2130	 0.8401	 0.8067	 0.1981	 1.0048	 0.7706	 0.1679	 0.9384	69.5154	99.9224	
   457	 0.7109	 0.2214	 0.9323	 0.8666	 0.2100	 1.0766	 0.8334	 0.1747	 1.0079	69.5154	99.9209	
   458	 0.7336	 0.2209	 0.9545	 0.8862	 0.2097	 1.0959	 0.8504	 0.1744	 1.0247	69.5154	99.9209	
   459	 0.7188	 0.2262	 0.9451	 0.8734	 0.2142	 1.0876	 0.8334	 0.1747	 1.0079	69.5178	99.9220	
   460	 0.7188	 0.2262	 0.9451	 0.8734	 0.2142	 1.0876	 0.8393	 0.1784	 1.0176	69.5154	99.9209	
   461	 0.7267	 0.2311	 0.9578	 0.8931	 0.2139	 1.1070	 0.8511	 0.1858	 1.0368	69.5131	99.9213	
   462	 0.7267	 0.2311	 0.9578	 0.8870	 0.2227	 1.1097	 0.8570	 0.1895	 1.0464	69.5108	99.9211	
   463	 0.7731	 0.2452	 1.0182	 0.9400	 0.2304	 1.1704	 0.9080	 0.1888	 1.0967	69.6836	99.9223	
   464	 0.8184	 0.2443	 1.0627	 0.9726	 0.2255	 1.1981	 0.9250	 0.1886	 1.1135	69.6008	99.9217	
   465	 0.8105	 0.2394	 1.0500	 0.9529	 0.2259	 1.1787	 0.9080	 0.1888	 1.0967	69.5154	99.9209	
   466	 0.7957	 0.2447	 1.0405	 0.9529	 0.2259	 1.1787	 0.9139	 0.1925	 1.1063	69.5984	99.9206	
   467	 0.8036	 0.2496	 1.0532	 0.9469	 0.2346	 1.1815	 0.9198	 0.1962	 1.1160	69.5984	99.9192	
   468	 0.8036	 0.2496	 1.0532	 0.9469	 0.2346	 1.1815	 0.9087	 0.2002	 1.1088	69.5131	99.9198	
   469	 0.8194	 0.2593	 1.0787	 0.9673	 0.2472	 1.2146	 0.9434	 0.2111	 1.1544	69.5936	99.9193	
   470	 0.8736	 0.2783	 1.1519	 1.0272	 0.2592	 1.2863	 0.9899	 0.2294	 1.2192	69.5912	99.9196	
   471	 0.8736	 0.2783	 1.1519	 1.0272	 0.2592	 1.2863	 0.9899	 0.2294	 1.2192	69.5912	99.9196	
   472	 0.8431	 0.2739	 1.1169	 0.9947	 0.2640	 1.2587	 0.9788	 0.2333	 1.2120	69.5865	99.9183	
   473	 0.8283	 0.2792	 1.1074	 0.9947	 0.2640	 1.2587	 0.9625	 0.2449	 1.2072	69.4991	99.9194	
   474	 0.8352	 0.2690	 1.1042	 0.9818	 0.2686	 1.2504	 0.9736	 0.2409	 1.2144	69.4968	99.9177	
   475	 0.8361	 0.2840	 1.1202	 0.9826	 0.2815	 1.2642	 0.9972	 0.2558	 1.2529	69.5770	99.9147	
   476	 0.8677	 0.3035	 1.1711	 1.0159	 0.2896	 1.3056	 1.0319	 0.2667	 1.2985	69.6616	99.9131	
   477	 0.8983	 0.3079	 1.2061	 1.0416	 0.2805	 1.3222	 1.0541	 0.2588	 1.3128	69.7511	99.9114	
   478	 0.8825	 0.2981	 1.1806	 1.0091	 0.2854	 1.2945	 1.0319	 0.2667	 1.2985	69.5770	99.9099	
   479	 0.8529	 0.3088	 1.1616	 0.9963	 0.2899	 1.2862	 1.0260	 0.2630	 1.2889	69.7487	99.9111	
   480	 0.8450	 0.3039	 1.1489	 0.9826	 0.2815	 1.2642	 1.0031	 0.2595	 1.2625	69.6665	99.9105	
   481	 0.8223	 0.3044	 1.1267	 0.9690	 0.2731	 1.2421	 0.9802	 0.2560	 1.2361	69.6689	99.9108	
   482	 0.8302	 0.3092	 1.1394	 0.9826	 0.2815	 1.2642	 1.0090	 0.2632	 1.2721	69.7487	99.9102	
   483	 0.8756	 0.3083	 1.1839	 1.0151	 0.2767	 1.2918	 1.0371	 0.2590	 1.2960	69.7511	99.9089	
   484	 0.8598	 0.2986	 1.1584	 0.9886	 0.2728	 1.2614	 1.0083	 0.2518	 1.2600	69.6689	99.9092	
   485	 0.8144	 0.2995	 1.1139	 0.9621	 0.2689	 1.2311	 0.9854	 0.2483	 1.2336	69.7536	99.9100	
   486	 0.7996	 0.3048	 1.1044	 0.9553	 0.2647	 1.2200	 0.9795	 0.2446	 1.2240	69.8408	99.9096	
   487	 0.7917	 0.3000	 1.0917	 0.9356	 0.2650	 1.2007	 0.9573	 0.2525	 1.2097	69.6689	99.9083	
   488	 0.7769	 0.3053	 1.0822	 0.9356	 0.2650	 1.2007	 0.9684	 0.2486	 1.2169	69.8382	99.9084	
   489	 0.8075	 0.3097	 1.1172	 0.9561	 0.2777	 1.2338	 0.9861	 0.2597	 1.2457	69.7511	99.9089	
   490	 0.8075	 0.3097	 1.1172	 0.9621	 0.2689	 1.2311	 0.9802	 0.2560	 1.2361	69.7536	99.9091	
   491	 0.7839	 0.2951	 1.0790	 0.9228	 0.2696	 1.1924	 0.9573	 0.2525	 1.2097	69.6665	99.9081	
   492	 0.7612	 0.2956	 1.0567	 0.9099	 0.2741	 1.1841	 0.9462	 0.2564	 1.2025	69.6641	99.9094	
   493	 0.7464	 0.3009	 1.0472	 0.9031	 0.2699	 1.1730	 0.9403	 0.2527	 1.1929	69.7511	99.9089	
   494	 0.7237	 0.3013	 1.0250	 0.8834	 0.2702	 1.1537	 0.9292	 0.2566	 1.1857	69.7487	99.9077	
   495	 0.7464	 0.3009	 1.0472	 0.9099	 0.2741	 1.1841	 0.9468	 0.2678	 1.2145	69.6592	99.9086	
   496	 0.7769	 0.3053	 1.0822	 0.9296	 0.2738	 1.2034	 0.9743	 0.2523	 1.2265	69.8357	99.9082	
   497	 0.7691	 0.3004	 1.0695	 0.9099	 0.2741	 1.1841	 0.9521	 0.2601	 1.2121	69.6641	99.9069	
   498	 0.7316	 0.3062	 1.0377	 0.8843	 0.2832	 1.1675	 0.9409	 0.2641	 1.2049	69.7462	99.9075	
   499	 0.7237	 0.3013	 1.0250	 0.8774	 0.2790	 1.1564	 0.9350	 0.2603	 1.1953	69.7462	99.9075	
   500	 0.7168	 0.3115	 1.0282	 0.8722	 0.3007	 1.1729	 0.9430	 0.2981	 1.2410	69.5629	99.9053	
   501	 0.7256	 0.3314	 1.0570	 0.8875	 0.3350	 1.2225	 0.9909	 0.3391	 1.3298	69.5465	99.9030	
   502	 0.7414	 0.3411	 1.0825	 0.9080	 0.3476	 1.2556	 1.0145	 0.3539	 1.3683	69.5419	99.9032	
   503	 0.7789	 0.3353	 1.1142	 0.9405	 0.3427	 1.2832	 1.0249	 0.3386	 1.3634	69.5489	99.9067	
   504	 0.7404	 0.3260	 1.0665	 0.9055	 0.3088	 1.2143	 0.9541	 0.2941	 1.2482	69.6544	99.9097	
   505	 0.7049	 0.3618	 1.0667	 0.8678	 0.3353	 1.2032	 0.9333	 0.3247	 1.2578	69.6520	99.9060	
   506	 0.7463	 0.4162	 1.1624	 0.8907	 0.3868	 1.2775	 0.9478	 0.3774	 1.3252	69.4807	99.9047	
   507	 0.6763	 0.3875	 1.0637	 0.8096	 0.3493	 1.1589	 0.8416	 0.3107	 1.1523	69.5912	99.9094	
   508	 0.5609	 0.3597	 0.9206	 0.7020	 0.3079	 1.0099	 0.7125	 0.2405	 0.9530	69.7889	99.9148	
   509	 0.3372	 0.1787	 0.5159	 0.3731	 0.1924	 0.5656	 0.3773	 0.1389	 0.5161	68.6742	99.9109	
   510	 0.1389	 0.1576	 0.2965	 0.1699	 0.0922	 0.2621	 0.1989	 0.0050	 0.2039	69.5070	99.9029	
   511	 0.0414	 0.0543	 0.0957	 0.0378	-0.0266	 0.0112	 0.0827	-0.1334	-0.0508	69.8030	99.8982	
   512	-0.0315	-0.0194	-0.0510	-0.0960	-0.1713	-0.2673	-0.0852	-0.2826	-0.3679	70.0433	99.8873	
   513	-0.1341	-0.0825	-0.2166	-0.2599	-0.2722	-0.5321	-0.2746	-0.4125	-0.6873	70.1948	99.8830	
   514	-0.5294	-0.2250	-0.7545	-0.6671	-0.4857	-1.1528	-0.7209	-0.6602	-1.3812	70.6669	99.8821	
   515	-0.7681	-0.2854	-1.0535	-0.9249	-0.6196	-1.5445	-1.0485	-0.8225	-1.8710	70.9580	99.8833	
   516	-1.0481	-0.4001	-1.4482	-1.2554	-0.7610	-2.0164	-1.3858	-0.9581	-2.3440	70.7330	99.8730	
   517	-1.2246	-0.4367	-1.6613	-1.4827	-0.8263	-2.3090	-1.5423	-1.0128	-2.5552	70.8510	99.8496	
   518	-1.3163	-0.4499	-1.7662	-1.6228	-0.8628	-2.4856	-1.6805	-1.0451	-2.7256	70.6879	99.8377	
   519	-1.3844	-0.4485	-1.8329	-1.6818	-0.8618	-2.5436	-1.7197	-1.0370	-2.7568	70.6806	99.8344	
   520	-1.4613	-0.4670	-1.9283	-1.7621	-0.8864	-2.6485	-1.7905	-1.0815	-2.8720	70.8966	99.8352	
   521	-1.5707	-0.5200	-2.0907	-1.8244	-0.9372	-2.7616	-1.9168	-1.1063	-3.0232	70.5079	99.8468	
   522	-1.5027	-0.5213	-2.0240	-1.6766	-0.8835	-2.5601	-1.8016	-1.0775	-2.8792	70.5731	99.8753	
   523	-1.4227	-0.5731	-1.9958	-1.5823	-0.9499	-2.5322	-1.8397	-1.1451	-2.9850	70.3193	99.8928	
   524	-1.1743	-0.4778	-1.6520	-1.4020	-0.9011	-2.3031	-1.7394	-1.0821	-2.8217	69.9477	99.8866	
   525	-1.0639	-0.4098	-1.4737	-1.2791	-0.8254	-2.1045	-1.5986	-1.0045	-2.6032	70.0215	99.8866	
   526	-0.9298	-0.3273	-1.2571	-1.1655	-0.7927	-1.9582	-1.5271	-0.9487	-2.4759	69.9323	99.8784	
   527	-0.8371	-0.2991	-1.1362	-1.1338	-0.8106	-1.9443	-1.5416	-1.0015	-2.5432	70.1886	99.8766	
   528	-1.0273	-0.4306	-1.4579	-1.4053	-0.9529	-2.3582	-1.8057	-1.1456	-2.9514	69.9350	99.8635	
   529	-1.2196	-0.4769	-1.6965	-1.5976	-0.9842	-2.5818	-1.9268	-1.1781	-3.1050	70.0301	99.8555	
   530	-1.2877	-0.4755	-1.7632	-1.6345	-0.9447	-2.5792	-1.8626	-1.1486	-3.0114	70.3917	99.8529	
   531	-1.3202	-0.5100	-1.8302	-1.6498	-0.9790	-2.6288	-1.8883	-1.1975	-3.0859	70.6055	99.8595	
   532	-1.4227	-0.5731	-1.9958	-1.7333	-1.0554	-2.7887	-1.9990	-1.2452	-3.2443	70.4128	99.8581	
   533	-1.4691	-0.5872	-2.0562	-1.7667	-1.0635	-2.8301	-2.0330	-1.2448	-3.2779	70.3057	99.8593	
   534	-1.4296	-0.5629	-1.9925	-1.7325	-1.0424	-2.7750	-1.9976	-1.2225	-3.2203	70.3022	99.8577	
   535	-1.4533	-0.5775	-2.0308	-1.7847	-1.0372	-2.8219	-2.0094	-1.2300	-3.2395	70.2988	99.8536	
   536	-1.5391	-0.6158	-2.1549	-1.8341	-1.0926	-2.9267	-2.0632	-1.2747	-3.3380	70.5057	99.8540	
   537	-1.3754	-0.5439	-1.9193	-1.6751	-1.0693	-2.7445	-2.0056	-1.2603	-3.2660	70.5459	99.8622	
   538	-1.1516	-0.4782	-1.6298	-1.4992	-0.9859	-2.4851	-1.8352	-1.1641	-2.9994	70.1148	99.8575	
   539	-1.1456	-0.5034	-1.6490	-1.5426	-1.0500	-2.5926	-1.9487	-1.2572	-3.2060	70.1820	99.8604	
   540	-1.1674	-0.4879	-1.6553	-1.6033	-1.0749	-2.6781	-2.0299	-1.2864	-3.3164	70.2200	99.8521	
   541	-1.2087	-0.5423	-1.7510	-1.6390	-1.1218	-2.7608	-2.0889	-1.3235	-3.4125	70.0161	99.8556	
   542	-1.1762	-0.5078	-1.6840	-1.6057	-1.1137	-2.7194	-2.0535	-1.3013	-3.3548	70.1199	99.8479	
   543	-1.1210	-0.4738	-1.5948	-1.5972	-1.0836	-2.6809	-1.9990	-1.2452	-3.2443	69.8928	99.8278	
   544	-1.0352	-0.4354	-1.4707	-1.4522	-0.9694	-2.4216	-1.7696	-1.1120	-2.8817	69.8057	99.8333	
   545	-1.1289	-0.4787	-1.6076	-1.4145	-0.9960	-2.4105	-1.7272	-1.1617	-2.8891	70.5944	99.8581	
   546	-1.1368	-0.4835	-1.6203	-1.5185	-1.0849	-2.6035	-1.8910	-1.2428	-3.1340	70.4777	99.8374	
   547	-1.0993	-0.4893	-1.5886	-1.5418	-1.0370	-2.5788	-1.8609	-1.2130	-3.0739	70.1515	99.8341	
   548	-1.1595	-0.4831	-1.6426	-1.5366	-1.0587	-2.5953	-1.8845	-1.2278	-3.1123	70.4631	99.8414	
   549	-1.1289	-0.4787	-1.6076	-1.5579	-1.0843	-2.6422	-1.9310	-1.2461	-3.1772	70.2880	99.8308	
   550	-1.1062	-0.4791	-1.5853	-1.5442	-1.0759	-2.6201	-1.9021	-1.2389	-3.1412	70.2809	99.8290	
   551	-1.0835	-0.4796	-1.5631	-1.5246	-1.0762	-2.6008	-1.8858	-1.2505	-3.1364	70.3903	99.8316	
   552	-1.0924	-0.4995	-1.5918	-1.5519	-1.0930	-2.6449	-1.9219	-1.2840	-3.2060	70.4084	99.8344	
   553	-1.1693	-0.5180	-1.6873	-1.6193	-1.1221	-2.7415	-1.9920	-1.3172	-3.3093	70.5259	99.8349	
   554	-1.2393	-0.5467	-1.7859	-1.7057	-1.1380	-2.8436	-2.0614	-1.3390	-3.4005	70.4266	99.8334	
   555	-1.3251	-0.5850	-1.9101	-1.7792	-1.1583	-2.9375	-2.1204	-1.3761	-3.4966	70.5334	99.8396	
   556	-1.4099	-0.6084	-2.0183	-1.8390	-1.1703	-3.0093	-2.1662	-1.3830	-3.5494	70.5221	99.8419	
   557	-1.4326	-0.6080	-2.0405	-1.8322	-1.1661	-2.9982	-2.1551	-1.3870	-3.5422	70.7234	99.8476	
   558	-1.4335	-0.6230	-2.0565	-1.8322	-1.1661	-2.9982	-2.1610	-1.3907	-3.5518	70.6171	99.8521	
   559	-1.4878	-0.6419	-2.1297	-1.8852	-1.1738	-3.0590	-2.2075	-1.4090	-3.6166	70.6210	99.8552	
   560	-1.5647	-0.6604	-2.2251	-1.9518	-1.1900	-3.1418	-2.2540	-1.4273	-3.6814	70.7234	99.8543	
   561	-1.6495	-0.6838	-2.3333	-2.0245	-1.1974	-3.2219	-2.3064	-1.4493	-3.7558	70.8256	99.8583	
   562	-1.7106	-0.6926	-2.4032	-2.0843	-1.2093	-3.2937	-2.3634	-1.4524	-3.8158	70.7234	99.8557	
   563	-1.7619	-0.6665	-2.4285	-2.1365	-1.2041	-3.3406	-2.3856	-1.4445	-3.8302	70.9317	99.8469	
   564	-1.7531	-0.6467	-2.3997	-2.1485	-1.1867	-3.3352	-2.3901	-1.4255	-3.8157	70.8296	99.8421	
   565	-1.7669	-0.6263	-2.3932	-2.1614	-1.1821	-3.3435	-2.4005	-1.4103	-3.8109	70.8296	99.8368	
   566	-1.7729	-0.6012	-2.3740	-2.1802	-1.1688	-3.3491	-2.4051	-1.3913	-3.7965	70.8296	99.8293	
   567	-1.7719	-0.5861	-2.3580	-2.1863	-1.1601	-3.3463	-2.3985	-1.3763	-3.7748	70.8256	99.8237	
   568	-1.7699	-0.5561	-2.3260	-2.1983	-1.1426	-3.3409	-2.3978	-1.3649	-3.7628	70.9358	99.8184	
   569	-1.7759	-0.5309	-2.3068	-2.2043	-1.1339	-3.3382	-2.4023	-1.3459	-3.7484	70.9358	99.8127	
   570	-1.7749	-0.5159	-2.2908	-2.2240	-1.1335	-3.3575	-2.4075	-1.3383	-3.7459	70.9399	99.8024	
   571	-1.7513	-0.5013	-2.2526	-2.2232	-1.1206	-3.3437	-2.3891	-1.3159	-3.7051	70.8296	99.7931	
   572	-1.7513	-0.5013	-2.2526	-2.2224	-1.1076	-3.3300	-2.3773	-1.3084	-3.6859	70.8216	99.7953	
   573	-1.7809	-0.4907	-2.2716	-2.2292	-1.1118	-3.3410	-2.3891	-1.3159	-3.7051	71.0337	99.7976	
   574	-1.8045	-0.5053	-2.3098	-2.2822	-1.1196	-3.4018	-2.4350	-1.3228	-3.7579	70.8336	99.7927	
   575	-1.8351	-0.5097	-2.3448	-2.3027	-1.1322	-3.4349	-2.4638	-1.3300	-3.7939	70.8376	99.7928	
   576	-1.8578	-0.5092	-2.3670	-2.3360	-1.1403	-3.4763	-2.4874	-1.3449	-3.8323	70.9523	99.7890	
   577	-1.8726	-0.5039	-2.3765	-2.3541	-1.1140	-3.4681	-2.4742	-1.3148	-3.7891	70.8256	99.7864	
   578	-1.8637	-0.4841	-2.3478	-2.3199	-1.0930	-3.4129	-2.4388	-1.2925	-3.7314	70.9154	99.7904	
   579	-1.9101	-0.4982	-2.4082	-2.3593	-1.0923	-3.4516	-2.4676	-1.2997	-3.7674	70.9113	99.7945	
   580	-1.9958	-0.5366	-2.5324	-2.4267	-1.1215	-3.5482	-2.5325	-1.3405	-3.8731	71.0211	99.8014	
   581	-2.1062	-0.6045	-2.7108	-2.5163	-1.1891	-3.7054	-2.6498	-1.4033	-4.0532	70.9358	99.8082	
   582	-2.2018	-0.6778	-2.8796	-2.5854	-1.2441	-3.8295	-2.7435	-1.4513	-4.1948	70.7312	99.8182	
   583	-2.2334	-0.6972	-2.9306	-2.5998	-1.2655	-3.8653	-2.7560	-1.4700	-4.2261	70.8336	99.8194	
   584	-2.1880	-0.6981	-2.8861	-2.5742	-1.2745	-3.8487	-2.7626	-1.4851	-4.2477	70.7509	99.8216	
   585	-2.1663	-0.7136	-2.8799	-2.5553	-1.2878	-3.8431	-2.7691	-1.5001	-4.2693	70.6557	99.8262	
   586	-2.1663	-0.7136	-2.8799	-2.5288	-1.2839	-3.8127	-2.7632	-1.4964	-4.2597	70.6518	99.8343	
   587	-2.1357	-0.7092	-2.8449	-2.4886	-1.2717	-3.7603	-2.7285	-1.4855	-4.2141	70.6440	99.8383	
   588	-2.0894	-0.6951	-2.7845	-2.4425	-1.2681	-3.7106	-2.6938	-1.4746	-4.1685	70.6440	99.8367	
   589	-2.0036	-0.6567	-2.6603	-2.3485	-1.2351	-3.5836	-2.6015	-1.4493	-4.0509	70.8457	99.8389	
   590	-1.8350	-0.6250	-2.4599	-2.2032	-1.2203	-3.4235	-2.4981	-1.4279	-3.9261	70.7509	99.8379	
   591	-1.7137	-0.6224	-2.3360	-2.1305	-1.2129	-3.3434	-2.4418	-1.4362	-3.8781	70.6635	99.8378	
   592	-1.6683	-0.6233	-2.2916	-2.0980	-1.2178	-3.3157	-2.4307	-1.4401	-3.8710	70.5675	99.8385	
   593	-1.6229	-0.6242	-2.2471	-2.0654	-1.2226	-3.2881	-2.4196	-1.4441	-3.8638	70.4711	99.8392	
   594	-1.5844	-0.6149	-2.1994	-2.0458	-1.2230	-3.2687	-2.4137	-1.4404	-3.8542	70.3742	99.8361	
   595	-1.5460	-0.6057	-2.1517	-1.9996	-1.2194	-3.2190	-2.3790	-1.4295	-3.8086	70.3705	99.8364	
   596	-1.4622	-0.5973	-2.0595	-1.9201	-1.2078	-3.1279	-2.3057	-1.4380	-3.7438	70.5868	99.8417	
   597	-1.4099	-0.6084	-2.0183	-1.9012	-1.2211	-3.1223	-2.3064	-1.4493	-3.7558	70.3889	99.8392	
   598	-1.4168	-0.5982	-2.0150	-1.9073	-1.2123	-3.1196	-2.3057	-1.4380	-3.7438	70.3852	99.8375	
   599	-1.4089	-0.5934	-2.0023	-1.9141	-1.2165	-3.1306	-2.3280	-1.4301	-3.7582	70.1787	99.8336	
   600	-1.4237	-0.5881	-2.0118	-1.9398	-1.2075	-3.1472	-2.3280	-1.4301	-3.7582	70.2839	99.8305	
   601	-1.4306	-0.5779	-2.0085	-1.9398	-1.2075	-3.1472	-2.3273	-1.4188	-3.7462	70.2803	99.8270	
   602	-1.3843	-0.5638	-1.9481	-1.8928	-1.1910	-3.0838	-2.2808	-1.4005	-3.6813	70.2731	99.8273	
   603	-1.3310	-0.5599	-1.8909	-1.8526	-1.1787	-3.0313	-2.2520	-1.3933	-3.6453	70.1682	99.8300	
   604	-1.3458	-0.5546	-1.9004	-1.8526	-1.1787	-3.0313	-2.2461	-1.3896	-3.6357	70.2695	99.8294	
   605	-1.3764	-0.5590	-1.9353	-1.8723	-1.1784	-3.0507	-2.2520	-1.3933	-3.6453	70.3705	99.8305	
   606	-1.3922	-0.5687	-1.9608	-1.9064	-1.1994	-3.1058	-2.2926	-1.4079	-3.7006	70.2767	99.8252	
   607	-1.4148	-0.5682	-1.9831	-1.9269	-1.2120	-3.1389	-2.3103	-1.4190	-3.7294	70.3889	99.8221	
   608	-1.3843	-0.5638	-1.9481	-1.9064	-1.1994	-3.1058	-2.2703	-1.4157	-3.6862	70.4900	99.8211	
   609	-1.2856	-0.5608	-1.8464	-1.8278	-1.2007	-3.0285	-2.2193	-1.4164	-3.6358	70.3926	99.8217	
   610	-1.2630	-0.5612	-1.8242	-1.8021	-1.2098	-3.0119	-2.2148	-1.4354	-3.6502	70.5128	99.8262	
   611	-1.2718	-0.5811	-1.8529	-1.8225	-1.2224	-3.0450	-2.2325	-1.4465	-3.6791	70.4075	99.8250	
   612	-1.2708	-0.5661	-1.8369	-1.7543	-1.1804	-2.9346	-2.1506	-1.4059	-3.5566	70.5791	99.8383	
   613	-1.1870	-0.5577	-1.7447	-1.6876	-1.1642	-2.8518	-2.0871	-1.3878	-3.4750	70.4674	99.8374	
   614	-1.0933	-0.5145	-1.6078	-1.5527	-1.1060	-2.6587	-1.9455	-1.2989	-3.2445	70.3127	99.8388	
   615	-0.8833	-0.4285	-1.3118	-1.3170	-1.0106	-2.3275	-1.7071	-1.2036	-2.9108	70.4814	99.8441	
   616	-0.7532	-0.4060	-1.1592	-1.1897	-0.9695	-2.1592	-1.5971	-1.1672	-2.7643	70.3652	99.8508	
   617	-0.7374	-0.3963	-1.1337	-1.1973	-0.9867	-2.1840	-1.6182	-1.2350	-2.8533	70.9317	99.8551	
   618	-0.8497	-0.4943	-1.3440	-1.3732	-1.0701	-2.4433	-1.7969	-1.2819	-3.0789	70.1131	99.8416	
   619	-0.9484	-0.4973	-1.4457	-1.4407	-1.0992	-2.5399	-1.8691	-1.3490	-3.2182	70.7748	99.8497	
   620	-1.0411	-0.5256	-1.5666	-1.5535	-1.1189	-2.6724	-1.9312	-1.3444	-3.2758	70.5485	99.8352	
   621	-0.9859	-0.4916	-1.4774	-1.4459	-1.0775	-2.5234	-1.7962	-1.2705	-3.0669	70.5982	99.8331	
   622	-0.7285	-0.3764	-1.1050	-1.2025	-0.9650	-2.1675	-1.5492	-1.1262	-2.6755	70.3475	99.8236	
   623	-0.4348	-0.1667	-0.6016	-0.9049	-0.7194	-1.6242	-1.1648	-0.7756	-1.9405	69.4151	99.7943	
   624	 0.0807	 0.1939	 0.2746	-0.1779	-0.2217	-0.3997	-0.3036	-0.2344	-0.5380	69.5089	99.8230	
   625	 0.2759	 0.2852	 0.5611	 0.2036	 0.0009	 0.2044	 0.1576	-0.0209	 0.1366	69.8483	99.8604	
   626	 0.2001	 0.1664	 0.3665	-0.0074	-0.3283	-0.3357	-0.3273	-0.5329	-0.8603	71.4677	99.8813	
   627	-0.3085	-0.2044	-0.5129	-0.8062	-0.8204	-1.6266	-1.2330	-1.0584	-2.2915	70.9964	99.8448	
   628	-0.6417	-0.4383	-1.0800	-1.2074	-1.0427	-2.2500	-1.6484	-1.2649	-2.9133	70.3378	99.8354	
   629	-0.8123	-0.5000	-1.3123	-1.3407	-1.0750	-2.4157	-1.7604	-1.3353	-3.0958	70.6596	99.8503	
   630	-0.8596	-0.5292	-1.3888	-1.3696	-1.1177	-2.4873	-1.8371	-1.3835	-3.2207	70.6870	99.8587	
   631	-0.8763	-0.5539	-1.4302	-1.3841	-1.1391	-2.5232	-1.8666	-1.4020	-3.2687	70.5868	99.8613	
   632	-0.9444	-0.5525	-1.4969	-1.4568	-1.1465	-2.6032	-1.9059	-1.3940	-3.2999	70.5791	99.8509	
   633	-0.9651	-0.5221	-1.4872	-1.4953	-1.1329	-2.6282	-1.9045	-1.3713	-3.2759	70.6791	99.8372	
   634	-0.9651	-0.5221	-1.4872	-1.5150	-1.1325	-2.6475	-1.9215	-1.3711	-3.2926	70.5791	99.8340	
   635	-1.0420	-0.5406	-1.5826	-1.5756	-1.1574	-2.7330	-1.9791	-1.3854	-3.3646	70.5791	99.8324	
   636	-1.1259	-0.5489	-1.6748	-1.6483	-1.1649	-2.8131	-2.0256	-1.4038	-3.4295	70.7909	99.8322	
   637	-1.1801	-0.5679	-1.7480	-1.7081	-1.1768	-2.8849	-2.0714	-1.4107	-3.4823	70.6831	99.8292	
   638	-1.2570	-0.5864	-1.8434	-1.7611	-1.1846	-2.9457	-2.1002	-1.4179	-3.5183	70.7748	99.8306	
   639	-1.2876	-0.5908	-1.8784	-1.7346	-1.1807	-2.9153	-2.0721	-1.4221	-3.4943	71.0716	99.8418	
   640	-1.1978	-0.6076	-1.8054	-1.6688	-1.1775	-2.8462	-2.0277	-1.4378	-3.4655	70.9772	99.8493	
   641	-1.2067	-0.6275	-1.8342	-1.6627	-1.1862	-2.8490	-2.0447	-1.4376	-3.4823	70.7628	99.8550	
   642	-1.1820	-0.5979	-1.7800	-1.6210	-1.1480	-2.7690	-1.9909	-1.3929	-3.3839	70.7391	99.8558	
   643	-1.0489	-0.5304	-1.5794	-1.4792	-1.0856	-2.5648	-1.8598	-1.2886	-3.1485	70.3903	99.8496	
   644	-0.8311	-0.4395	-1.2706	-1.2760	-0.9853	-2.2613	-1.6672	-1.2003	-2.8676	70.3723	99.8536	
   645	-0.7561	-0.4510	-1.2071	-1.2186	-1.0122	-2.2308	-1.6602	-1.2723	-2.9325	70.7312	99.8649	
   646	-0.7975	-0.5054	-1.3028	-1.3150	-1.0841	-2.3991	-1.7913	-1.3765	-3.1679	70.7990	99.8660	
   647	-0.9325	-0.6029	-1.5354	-1.4379	-1.1598	-2.5977	-1.9263	-1.4504	-3.3768	70.5984	99.8723	
   648	-1.0321	-0.6210	-1.6531	-1.5310	-1.1798	-2.7108	-1.9950	-1.4609	-3.4560	70.5945	99.8674	
   649	-1.1002	-0.6196	-1.7198	-1.5909	-1.1918	-2.7826	-2.0343	-1.4528	-3.4872	70.5868	99.8593	
   650	-1.1465	-0.6337	-1.7802	-1.6431	-1.1866	-2.8296	-2.0519	-1.4639	-3.5160	70.6870	99.8597	
   651	-1.2067	-0.6275	-1.8342	-1.6756	-1.1817	-2.8573	-2.0742	-1.4561	-3.5304	70.7828	99.8610	
   652	-1.1771	-0.6381	-1.8152	-1.6627	-1.1862	-2.8490	-2.0696	-1.4751	-3.5448	70.7949	99.8638	
   653	-1.2461	-0.6518	-1.8979	-1.7165	-1.2069	-2.9235	-2.1273	-1.4895	-3.6168	70.7990	99.8640	
   654	-1.3526	-0.6597	-2.0123	-1.7960	-1.2185	-3.0146	-2.1960	-1.4999	-3.6960	70.9029	99.8651	
   655	-1.4068	-0.6786	-2.0855	-1.8422	-1.2221	-3.0643	-2.2359	-1.5032	-3.7392	70.7909	99.8676	
   656	-1.4522	-0.6777	-2.1300	-1.8687	-1.2260	-3.0947	-2.2536	-1.5143	-3.7680	71.0024	99.8693	
   657	-1.4670	-0.6724	-2.1394	-1.8816	-1.2214	-3.1030	-2.2640	-1.4990	-3.7632	70.8905	99.8671	
   658	-1.3270	-0.6151	-1.9421	-1.7671	-1.1758	-2.9429	-2.1585	-1.4437	-3.6023	70.7788	99.8614	
   659	-1.1564	-0.5533	-1.7098	-1.6390	-1.1218	-2.7608	-2.0635	-1.3730	-3.4366	70.3559	99.8564	
   660	-1.0727	-0.4297	-1.5024	-1.5803	-1.0234	-2.6037	-1.9598	-1.2533	-3.2132	70.3306	99.8374	
   661	-0.9496	-0.2818	-1.2313	-1.4807	-0.8998	-2.3805	-1.7349	-1.1011	-2.8361	70.6846	99.8024	
   662	-0.7672	-0.1551	-0.9223	-1.2418	-0.7526	-1.9943	-1.4355	-0.9347	-2.3703	70.8998	99.8014	
   663	-0.5858	-0.0434	-0.6293	-1.0208	-0.5791	-1.6000	-1.1253	-0.6853	-1.8107	70.2692	99.7881	
   664	-0.3345	 0.0969	-0.2376	-0.6232	-0.3093	-0.9325	-0.5919	-0.4047	-0.9967	70.4789	99.8118	
   665	-0.2516	 0.0902	-0.1614	-0.4244	-0.1744	-0.5988	-0.3626	-0.2714	-0.6341	70.0983	99.8484	
   666	-0.2457	 0.0651	-0.1806	-0.3594	-0.1841	-0.5435	-0.3358	-0.2983	-0.6342	70.2790	99.8667	
   667	-0.3166	 0.0214	-0.2953	-0.3714	-0.1666	-0.5380	-0.3469	-0.2943	-0.6414	70.1619	99.8844	
   668	-0.3807	-0.0325	-0.4132	-0.4397	-0.2087	-0.6484	-0.4746	-0.3419	-0.8166	69.8180	99.8939	
   669	-0.3797	-0.0175	-0.3972	-0.4184	-0.1831	-0.6015	-0.4445	-0.3120	-0.7565	69.8044	99.8957	
   670	-0.4201	-0.0568	-0.4769	-0.4730	-0.2167	-0.6898	-0.4975	-0.3454	-0.8430	69.7193	99.8946	
   671	-0.4694	-0.1159	-0.5853	-0.5276	-0.2504	-0.7780	-0.5048	-0.3717	-0.8767	69.7061	99.8902	
   672	-0.5404	-0.1596	-0.7000	-0.5983	-0.3313	-0.9297	-0.5554	-0.4581	-1.0136	70.1827	99.8834	
   673	-0.6202	-0.2232	-0.8434	-0.7799	-0.5054	-1.2853	-0.8205	-0.7119	-1.5325	70.9836	99.8800	
   674	-0.8312	-0.3242	-1.1554	-1.1775	-0.7753	-1.9528	-1.3854	-1.0451	-2.4306	71.2568	99.8658	
   675	-1.1191	-0.4438	-1.5629	-1.5779	-0.9846	-2.5625	-1.8931	-1.2769	-3.1700	71.0337	99.8560	
   676	-1.3754	-0.5439	-1.9193	-1.8811	-1.1091	-2.9902	-2.1531	-1.3529	-3.5061	70.6402	99.8279	
   677	-1.4404	-0.6128	-2.0533	-1.9108	-1.1647	-3.0756	-2.1825	-1.3715	-3.5541	70.4084	99.8274	
   678	-1.5932	-0.7501	-2.3433	-2.0474	-1.2489	-3.2963	-2.3779	-1.5051	-3.8831	70.2376	99.8582	
   679	-1.8505	-0.8653	-2.7158	-2.2192	-1.2676	-3.4868	-2.4997	-1.5490	-4.0488	70.1958	99.8815	
   680	-1.9580	-0.8882	-2.8462	-2.3132	-1.3005	-3.6137	-2.5750	-1.5745	-4.1496	70.3021	99.8777	
   681	-1.9807	-0.8877	-2.8684	-2.3397	-1.3044	-3.6441	-2.6031	-1.5703	-4.1736	70.1992	99.8754	
   682	-1.9787	-0.8577	-2.8364	-2.3260	-1.2960	-3.6221	-2.5966	-1.5553	-4.1519	70.3056	99.8734	
   683	-1.8407	-0.8304	-2.6711	-2.2132	-1.2763	-3.4895	-2.5108	-1.5450	-4.0560	70.3163	99.8746	
   684	-1.7717	-0.8167	-2.5884	-2.1807	-1.2812	-3.4619	-2.5049	-1.5413	-4.0464	70.1233	99.8694	
   685	-1.7786	-0.8065	-2.5851	-2.1739	-1.2770	-3.4508	-2.5095	-1.5224	-4.0319	70.0128	99.8692	
   686	-1.7224	-0.7575	-2.4799	-2.1397	-1.2559	-3.3957	-2.4734	-1.4888	-3.9622	70.0161	99.8591	
   687	-1.5706	-0.6353	-2.2059	-2.0433	-1.1841	-3.2275	-2.3481	-1.3883	-3.7365	70.0094	99.8324	
   688	-1.3488	-0.4843	-1.8332	-1.8787	-1.0702	-2.9489	-2.1351	-1.2435	-3.3787	69.9832	99.8021	
   689	-1.0590	-0.3347	-1.3937	-1.6337	-0.9318	-2.5654	-1.8533	-1.0882	-2.9416	69.9477	99.7828	
   690	-0.8057	-0.1644	-0.9700	-1.3453	-0.7292	-2.0745	-1.4994	-0.8658	-2.3653	69.9664	99.7801	
   691	-0.5524	 0.0060	-0.5463	-0.9939	-0.4629	-1.4568	-1.0688	-0.5952	-1.6641	69.9447	99.8017	
   692	-0.3710	 0.1177	-0.2533	-0.6919	-0.2519	-0.9438	-0.7076	-0.3464	-1.0541	69.6359	99.8214	
   693	-0.3414	 0.1071	-0.2343	-0.5340	-0.1423	-0.6763	-0.5261	-0.2542	-0.7804	69.5655	99.8588	
   694	-0.5050	 0.0351	-0.4699	-0.5922	-0.1283	-0.7205	-0.5660	-0.2575	-0.8236	69.5302	99.8842	
   695	-0.6125	 0.0122	-0.6003	-0.6657	-0.1487	-0.8144	-0.6576	-0.2714	-0.9292	69.4394	99.8896	
   696	-0.6481	 0.0480	-0.6000	-0.7042	-0.1351	-0.8393	-0.7146	-0.2745	-0.9891	69.5477	99.8913	
   697	-0.7556	 0.0251	-0.7304	-0.7974	-0.1551	-0.9525	-0.8291	-0.2919	-1.1211	69.3699	99.8955	
   698	-0.8246	 0.0115	-0.8131	-0.8496	-0.1499	-0.9995	-0.8513	-0.2841	-1.1355	69.3579	99.8956	
   699	-0.8877	-0.0274	-0.9151	-0.8769	-0.1667	-1.0436	-0.8343	-0.2843	-1.1187	69.4273	99.8943	
   700	-0.9152	-0.1020	-1.0172	-0.9391	-0.2175	-1.1567	-0.8600	-0.3331	-1.1932	69.3344	99.8885	
   701	-0.9704	-0.1360	-1.1064	-1.0568	-0.3149	-1.3717	-0.9807	-0.4526	-1.4334	69.7513	99.8765	
   702	-1.0197	-0.1952	-1.2148	-1.2605	-0.5275	-1.7880	-1.3224	-0.7546	-2.0771	70.5032	99.8693	
   703	-1.3263	-0.3695	-1.6958	-1.7059	-0.8268	-2.5327	-1.9286	-1.1137	-3.0425	70.6278	99.8656	
   704	-1.6220	-0.4939	-2.1159	-2.0995	-1.0319	-3.1314	-2.4068	-1.3270	-3.7339	70.3523	99.8530	
   705	-1.8478	-0.5896	-2.4375	-2.3693	-1.1484	-3.5177	-2.6196	-1.3734	-3.9931	69.8236	99.8186	
   706	-1.9661	-0.6625	-2.6286	-2.4513	-1.1988	-3.6501	-2.6942	-1.3876	-4.0819	69.4856	99.8191	
   707	-2.1396	-0.7693	-2.9089	-2.5717	-1.2357	-3.8074	-2.8594	-1.4914	-4.3509	69.5028	99.8599	
   708	-2.2717	-0.8218	-3.0935	-2.6315	-1.2476	-3.8792	-2.9000	-1.5060	-4.4061	69.5842	99.8734	
   709	-2.2323	-0.7975	-3.0298	-2.6179	-1.2392	-3.8571	-2.8979	-1.4720	-4.3700	69.2682	99.8646	
   710	-2.0973	-0.6999	-2.7972	-2.4966	-1.1894	-3.6860	-2.7550	-1.3603	-4.1154	69.1406	99.8392	
   711	-1.7572	-0.4762	-2.2334	-2.2653	-1.0594	-3.3247	-2.4791	-1.2088	-3.6880	69.4574	99.7928	
   712	-1.5039	-0.3058	-1.8097	-2.0359	-0.8558	-2.8918	-2.1842	-1.0234	-3.2077	69.5155	99.7894	
   713	-1.2811	-0.1398	-1.4209	-1.7612	-0.6617	-2.4229	-1.8643	-0.8006	-2.6650	69.4442	99.7900	
   714	-1.0209	 0.0204	-1.0005	-1.4311	-0.4209	-1.8520	-1.4729	-0.5219	-1.9949	69.0523	99.7992	
   715	-0.7862	 0.1360	-0.6502	-1.0736	-0.1634	-1.2370	-1.0423	-0.2513	-1.2937	68.7618	99.8298	
   716	-0.7813	 0.0958	-0.6855	-0.9387	-0.1052	-1.0439	-0.9441	-0.2223	-1.1665	68.7309	99.8731	
   717	-0.9588	 0.0442	-0.9146	-1.0242	-0.1080	-1.1322	-1.0357	-0.2363	-1.2721	68.7176	99.8928	
   718	-1.0337	 0.0557	-0.9780	-1.0961	-0.1025	-1.1986	-1.1208	-0.2352	-1.3560	68.6306	99.8948	
   719	-1.1235	 0.0726	-1.0509	-1.1679	-0.0970	-1.2649	-1.1822	-0.2193	-1.4016	68.6288	99.8924	
   720	-1.1995	 0.0691	-1.1304	-1.2390	-0.0785	-1.3175	-1.2208	-0.1999	-1.4207	68.5274	99.8916	
   721	-1.3158	 0.0263	-1.2895	-1.3185	-0.0901	-1.4086	-1.2555	-0.2108	-1.4663	68.6071	99.8938	
   722	-1.4203	-0.0669	-1.4871	-1.4141	-0.1490	-1.5631	-1.3145	-0.2478	-1.5624	68.4118	99.8912	
   723	-1.4903	-0.0955	-1.5858	-1.5105	-0.2208	-1.7313	-1.3762	-0.3303	-1.7065	68.8898	99.8795	
   724	-1.5001	-0.1304	-1.6305	-1.6860	-0.4037	-2.0897	-1.6648	-0.5989	-2.2638	69.5868	99.8679	
   725	-1.7298	-0.2862	-2.0160	-2.0904	-0.6777	-2.7682	-2.2193	-0.9473	-3.1667	69.6637	99.8617	
   726	-2.0196	-0.4358	-2.4554	-2.4804	-0.9304	-3.4108	-2.7409	-1.2205	-3.9615	69.4885	99.8546	
   727	-2.2690	-0.5461	-2.8152	-2.7852	-1.0808	-3.8661	-3.0244	-1.3115	-4.3360	68.9798	99.8234	
   728	-2.3794	-0.6141	-2.9935	-2.8475	-1.1316	-3.9791	-3.0532	-1.3186	-4.3720	68.8481	99.8187	
   729	-2.4849	-0.7223	-3.2071	-2.9242	-1.2038	-4.1280	-3.2073	-1.4264	-4.6338	68.6560	99.8492	
   730	-2.6416	-0.8043	-3.4460	-3.0037	-1.2154	-4.2191	-3.2826	-1.4519	-4.7346	68.5311	99.8730	
   731	-2.6476	-0.7792	-3.4267	-3.0166	-1.2109	-4.2274	-3.3041	-1.4327	-4.7369	68.4270	99.8675	
   732	-2.5579	-0.6807	-3.2386	-2.9543	-1.1601	-4.1144	-3.2181	-1.3241	-4.5423	68.2022	99.8409	
   733	-2.2484	-0.4613	-2.7097	-2.7410	-1.0038	-3.7448	-2.9062	-1.1390	-4.0452	68.5034	99.7916	
   734	-1.9024	-0.2627	-2.1651	-2.4262	-0.7974	-3.2235	-2.5824	-0.9464	-3.5290	68.4822	99.7910	
   735	-1.6096	-0.0681	-1.6777	-2.1088	-0.5521	-2.6609	-2.2258	-0.6787	-2.9045	68.1240	99.7944	
   736	-1.3159	 0.1416	-1.1743	-1.6952	-0.2350	-1.9301	-1.6987	-0.3148	-2.0136	67.9460	99.8058	
   737	-1.1453	 0.2033	-0.9420	-1.3726	-0.0114	-1.3840	-1.3350	-0.1189	-1.4541	67.8936	99.8548	
   738	-1.2242	 0.1548	-1.0694	-1.3505	 0.0271	-1.3234	-1.3448	-0.0923	-1.4372	67.5955	99.8860	
   739	-1.3682	 0.1526	-1.2156	-1.4268	 0.0673	-1.3595	-1.4153	-0.0385	-1.4539	67.3041	99.8962	
   740	-1.3939	 0.2233	-1.1706	-1.4440	 0.1065	-1.3376	-1.4407	 0.0110	-1.4297	67.3049	99.8927	
   741	-1.3900	 0.2834	-1.1066	-1.4211	 0.1579	-1.2632	-1.3973	 0.0710	-1.3264	67.3939	99.8899	
   742	-1.4591	 0.2697	-1.1893	-1.4870	 0.1547	-1.3322	-1.4431	 0.0640	-1.3792	67.3930	99.8896	
   743	-1.5458	 0.2163	-1.3295	-1.5596	 0.1473	-1.4123	-1.4719	 0.0568	-1.4152	67.2939	99.8915	
   744	-1.6808	 0.1188	-1.5621	-1.6962	 0.0632	-1.6330	-1.5840	-0.0136	-1.5977	67.2015	99.8877	
   745	-1.7666	 0.0804	-1.6862	-1.8175	 0.0134	-1.8041	-1.6562	-0.0808	-1.7370	67.4848	99.8783	
   746	-1.8534	 0.0270	-1.8264	-2.0332	-0.1817	-2.2149	-1.9663	-0.3302	-2.2967	68.0137	99.8642	
   747	-2.0751	-0.1240	-2.1991	-2.4127	-0.4778	-2.8906	-2.4941	-0.7055	-3.1997	68.4136	99.8564	
   748	-2.3817	-0.2983	-2.6800	-2.8292	-0.7344	-3.5636	-3.0399	-1.0048	-4.0449	68.1887	99.8552	
   749	-2.6400	-0.4284	-3.0685	-3.1441	-0.9408	-4.0849	-3.4133	-1.1740	-4.5875	67.7971	99.8352	
   750	-2.8125	-0.5202	-3.3328	-3.2798	-1.0120	-4.2918	-3.4710	-1.1884	-4.6595	67.6714	99.8191	
   751	-2.9337	-0.6381	-3.5719	-3.3497	-1.0799	-4.4296	-3.6125	-1.2774	-4.8900	67.3526	99.8514	
   752	-3.0382	-0.7313	-3.7695	-3.3975	-1.1094	-4.5069	-3.6552	-1.3260	-4.9813	67.3469	99.8721	
   753	-3.0678	-0.7206	-3.7884	-3.4240	-1.1132	-4.5373	-3.6833	-1.3219	-5.0053	67.3479	99.8690	
   754	-3.0107	-0.6566	-3.6673	-3.3754	-1.0709	-4.4463	-3.6275	-1.2432	-4.8707	67.1284	99.8565	
   755	-2.7702	-0.4509	-3.2211	-3.2372	-0.9608	-4.1981	-3.4485	-1.0979	-4.5465	67.2371	99.8107	
   756	-2.5159	-0.2655	-2.7814	-3.0344	-0.7612	-3.7955	-3.1698	-0.9010	-4.0710	67.2247	99.7936	
   757	-2.1561	-0.0872	-2.2433	-2.6930	-0.5509	-3.2439	-2.7923	-0.6638	-3.4562	66.8942	99.7857	
   758	-1.8160	 0.1365	-1.6795	-2.2946	-0.2681	-2.5627	-2.3576	-0.3252	-2.6829	66.3694	99.7895	
   759	-1.5173	 0.3060	-1.2113	-1.8492	 0.0312	-1.8180	-1.8641	-0.0478	-1.9121	66.5624	99.8336	
   760	-1.5340	 0.2813	-1.2528	-1.7351	 0.1762	-1.5589	-1.7073	 0.1052	-1.6022	65.9837	99.8699	
   761	-1.6228	 0.3131	-1.3097	-1.7114	 0.2406	-1.4707	-1.7275	 0.1471	-1.5805	66.0801	99.8966	
   762	-1.6949	 0.3697	-1.3252	-1.7611	 0.2847	-1.4764	-1.7463	 0.2117	-1.5347	66.0810	99.8906	
   763	-1.7058	 0.4351	-1.2707	-1.7707	 0.3410	-1.4297	-1.7481	 0.2760	-1.4722	65.9872	99.8874	
   764	-1.7660	 0.4413	-1.3247	-1.8358	 0.3508	-1.4850	-1.7991	 0.2767	-1.5226	65.9870	99.8870	
   765	-1.8735	 0.4184	-1.4551	-1.9144	 0.3521	-1.5624	-1.8501	 0.2773	-1.5729	65.9881	99.8899	
   766	-1.9602	 0.3650	-1.5953	-1.9751	 0.3272	-1.6479	-1.9019	 0.2666	-1.6353	65.8020	99.8931	
   767	-2.0489	 0.2815	-1.7674	-2.0775	 0.2641	-1.8134	-1.9747	 0.1881	-1.7867	65.8949	99.8926	
   768	-2.2057	 0.1994	-2.0062	-2.2466	 0.1849	-2.0617	-2.0972	 0.1330	-1.9643	65.8013	99.8818	
   769	-2.2214	 0.1897	-2.0317	-2.3615	 0.0269	-2.3346	-2.3033	-0.0838	-2.3871	66.5591	99.8711	
   770	-2.4195	 0.0534	-2.3662	-2.7266	-0.2478	-2.9744	-2.7720	-0.4220	-3.1941	66.8757	99.8542	
   771	-2.6650	-0.1122	-2.7772	-3.0900	-0.4966	-3.5867	-3.2564	-0.7373	-3.9938	66.9015	99.8549	
   772	-2.9331	-0.2772	-3.2103	-3.4595	-0.7367	-4.1962	-3.6974	-0.9926	-4.6901	66.7033	99.8414	
   773	-3.1293	-0.3836	-3.5129	-3.6370	-0.8461	-4.4831	-3.8297	-1.0212	-4.8509	66.2652	99.8189	
   774	-3.2416	-0.4816	-3.7232	-3.6881	-0.9273	-4.6154	-3.8855	-1.0999	-4.9855	66.4827	99.8312	
   775	-3.3402	-0.5999	-3.9401	-3.7520	-1.0040	-4.7560	-4.0167	-1.2041	-5.2209	66.2650	99.8592	
   776	-3.4358	-0.6732	-4.1089	-3.7998	-1.0334	-4.8332	-4.0645	-1.2451	-5.3097	66.2652	99.8745	
   777	-3.4654	-0.6626	-4.1279	-3.8331	-1.0415	-4.8746	-4.1038	-1.2370	-5.3409	66.1558	99.8691	
   778	-3.4250	-0.6233	-4.0482	-3.7861	-1.0250	-4.8111	-4.0559	-1.1960	-5.2520	66.1562	99.8616	
   779	-3.2663	-0.5112	-3.7774	-3.6837	-0.9619	-4.6456	-3.9418	-1.0916	-5.0334	65.9386	99.8354	
   780	-2.9883	-0.3112	-3.2995	-3.4901	-0.8053	-4.2954	-3.6482	-0.9289	-4.5772	66.3735	99.7964	
   781	-2.6196	-0.1131	-2.7327	-3.1692	-0.6076	-3.7768	-3.3342	-0.7098	-4.0441	65.9456	99.7859	
   782	-2.3269	 0.0816	-2.2453	-2.8776	-0.3533	-3.2309	-2.9539	-0.4272	-3.3812	65.6428	99.7768	
   783	-2.0322	 0.3063	-1.7259	-2.4699	-0.0274	-2.4973	-2.4852	-0.0890	-2.5743	65.5660	99.8033	
   784	-1.9070	 0.3689	-1.5380	-2.1602	 0.2007	-1.9596	-2.1437	 0.1147	-2.0292	65.5904	99.8582	
   785	-1.9858	 0.3204	-1.6655	-2.1510	 0.2437	-1.9072	-2.1410	 0.1600	-1.9811	65.2148	99.8827	
   786	-2.1131	 0.3430	-1.7701	-2.2016	 0.2748	-1.9267	-2.2024	 0.1759	-2.0266	65.4092	99.8962	
   787	-2.2265	 0.3452	-1.8813	-2.3136	 0.2681	-2.0455	-2.3267	 0.1851	-2.1417	65.1190	99.8944	
   788	-2.2709	 0.3611	-1.9098	-2.3513	 0.2947	-2.0566	-2.3299	 0.2267	-2.1032	65.0291	99.8899	
   789	-2.3163	 0.3621	-1.9542	-2.3693	 0.3209	-2.0485	-2.3108	 0.2605	-2.0504	65.0379	99.8903	
   790	-2.3794	 0.3232	-2.0562	-2.4232	 0.3002	-2.1230	-2.3233	 0.2418	-2.0816	65.1371	99.8881	
   791	-2.4661	 0.2698	-2.1963	-2.5119	 0.2455	-2.2664	-2.3659	 0.1932	-2.1729	65.3272	99.8806	
   792	-2.5065	 0.2305	-2.2760	-2.6168	 0.1436	-2.4732	-2.4933	 0.0586	-2.4347	65.6949	99.8724	
   793	-2.6041	 0.1272	-2.4769	-2.8477	-0.0859	-2.9336	-2.8357	-0.2547	-3.0905	66.2684	99.8669	
   794	-2.8662	-0.0630	-2.9293	-3.2622	-0.4159	-3.6782	-3.3988	-0.6522	-4.0511	66.4774	99.8587	
   795	-3.0880	-0.2140	-3.3020	-3.6181	-0.6476	-4.2657	-3.8280	-0.9001	-4.7283	66.1557	99.8404	
   796	-3.3000	-0.3300	-3.6300	-3.8442	-0.7993	-4.6435	-4.0547	-0.9880	-5.0428	65.7139	99.8180	
   797	-3.3966	-0.4183	-3.8149	-3.8671	-0.8508	-4.7179	-4.0553	-0.9993	-5.0548	65.6121	99.8236	
   798	-3.5197	-0.5663	-4.0860	-3.9326	-0.9534	-4.8860	-4.1840	-1.1566	-5.3407	65.8262	99.8605	
   799	-3.6399	-0.6691	-4.3090	-4.0153	-1.0168	-5.0322	-4.2732	-1.2235	-5.4968	65.7171	99.8731	
   800	-3.6872	-0.6982	-4.3855	-4.0503	-1.0508	-5.1011	-4.3093	-1.2571	-5.5664	65.8262	99.8740	
   801	-3.7020	-0.6929	-4.3950	-4.0579	-1.0680	-5.1259	-4.3159	-1.2721	-5.5881	66.0453	99.8708	
   802	-3.6794	-0.6934	-4.3727	-4.0399	-1.0942	-5.1341	-4.3172	-1.2948	-5.6121	66.1545	99.8683	
   803	-3.6576	-0.7089	-4.3665	-4.0543	-1.1156	-5.1699	-4.3245	-1.3212	-5.6458	66.1539	99.8624	
   804	-3.6498	-0.7040	-4.3538	-4.0560	-1.1415	-5.1974	-4.3429	-1.3436	-5.6866	66.2643	99.8578	
   805	-3.6428	-0.7142	-4.3570	-4.0560	-1.1415	-5.1974	-4.3481	-1.3360	-5.6842	66.0421	99.8579	
   806	-3.6350	-0.7093	-4.3443	-4.0355	-1.1288	-5.1643	-4.3134	-1.3251	-5.6386	66.1538	99.8591	
   807	-3.6113	-0.6947	-4.3060	-4.0021	-1.1208	-5.1229	-4.2846	-1.3179	-5.6026	66.2645	99.8602	
   808	-3.5659	-0.6957	-4.2616	-3.9696	-1.1256	-5.0953	-4.2565	-1.3221	-5.5786	66.2645	99.8583	
   809	-3.5354	-0.6912	-4.2266	-3.9568	-1.1302	-5.0870	-4.2401	-1.3336	-5.5738	66.3753	99.8552	
   810	-3.5048	-0.6868	-4.1916	-3.9311	-1.1393	-5.0703	-4.2231	-1.3338	-5.5571	66.3753	99.8518	
   811	-3.4890	-0.6771	-4.1662	-3.9243	-1.1350	-5.0593	-4.2172	-1.3301	-5.5475	66.3754	99.8499	
   812	-3.4732	-0.6674	-4.1407	-3.8978	-1.1312	-5.0289	-4.1832	-1.3306	-5.5139	66.5971	99.8501	
   813	-3.4279	-0.6683	-4.0962	-3.8584	-1.1318	-4.9903	-4.1544	-1.3234	-5.4779	66.4862	99.8494	
   814	-3.4042	-0.6538	-4.0580	-3.8319	-1.1280	-4.9599	-4.1256	-1.3162	-5.4419	66.5969	99.8469	
   815	-3.3815	-0.6542	-4.0357	-3.8183	-1.1196	-4.9378	-4.1138	-1.3088	-5.4227	66.4860	99.8477	
   816	-3.3510	-0.6498	-4.0008	-3.8046	-1.1111	-4.9158	-4.0909	-1.3053	-5.3963	66.4860	99.8456	
   817	-3.3431	-0.6450	-3.9880	-3.7918	-1.1157	-4.9074	-4.0739	-1.3055	-5.3795	66.5966	99.8430	
   818	-3.3194	-0.6304	-3.9498	-3.7584	-1.1076	-4.8660	-4.0451	-1.2983	-5.3435	66.7070	99.8442	
   819	-3.2888	-0.6260	-3.9148	-3.7388	-1.1079	-4.8467	-4.0280	-1.2985	-5.3267	66.7073	99.8422	
   820	-3.2740	-0.6313	-3.9053	-3.7259	-1.1125	-4.8384	-4.0169	-1.3024	-5.3195	66.7073	99.8422	
   821	-3.2662	-0.6265	-3.8926	-3.7259	-1.1125	-4.8384	-4.0280	-1.2985	-5.3267	66.5971	99.8412	
   822	-3.2583	-0.6216	-3.8799	-3.7259	-1.1125	-4.8384	-4.0280	-1.2985	-5.3267	66.5974	99.8392	
   823	-3.2504	-0.6167	-3.8671	-3.7191	-1.1083	-4.8274	-4.0110	-1.2987	-5.3099	66.7080	99.8382	
   824	-3.2198	-0.6123	-3.8321	-3.6926	-1.1044	-4.7970	-3.9881	-1.2953	-5.2835	66.7080	99.8382	
   825	-3.2188	-0.5973	-3.8162	-3.6653	-1.0876	-4.7528	-3.9697	-1.2728	-5.2426	66.7070	99.8427	
   826	-3.1961	-0.5978	-3.7939	-3.6524	-1.0921	-4.7445	-3.9645	-1.2804	-5.2451	66.7077	99.8424	
   827	-3.2040	-0.6026	-3.8067	-3.6661	-1.1005	-4.7666	-3.9763	-1.2878	-5.2643	66.7080	99.8404	
   828	-3.2040	-0.6026	-3.8067	-3.6789	-1.0960	-4.7749	-3.9874	-1.2839	-5.2715	66.5974	99.8392	
   829	-3.2040	-0.6026	-3.8067	-3.6729	-1.1047	-4.7776	-3.9822	-1.2915	-5.2739	66.7084	99.8383	
   830	-3.2040	-0.6026	-3.8067	-3.6789	-1.0960	-4.7749	-3.9763	-1.2878	-5.2643	66.7080	99.8382	
   831	-3.2188	-0.5973	-3.8162	-3.6858	-1.1002	-4.7859	-3.9822	-1.2915	-5.2739	66.8190	99.8373	
   832	-3.2188	-0.5973	-3.8162	-3.6918	-1.0914	-4.7832	-3.9874	-1.2839	-5.2715	66.7080	99.8382	
   833	-3.2257	-0.5872	-3.8129	-3.6850	-1.0872	-4.7722	-3.9868	-1.2726	-5.2594	66.7077	99.8386	
   834	-3.2248	-0.5721	-3.7969	-3.6713	-1.0788	-4.7501	-3.9750	-1.2652	-5.2402	66.8181	99.8398	
   835	-3.2100	-0.5775	-3.7874	-3.6781	-1.0830	-4.7612	-3.9874	-1.2839	-5.2715	66.8199	99.8408	
   836	-3.2031	-0.5876	-3.7907	-3.7123	-1.1041	-4.8163	-4.0221	-1.2948	-5.3171	66.5990	99.8307	
   837	-3.2179	-0.5823	-3.8002	-3.7319	-1.1037	-4.8357	-4.0339	-1.3022	-5.3363	66.7110	99.8293	
   838	-3.2327	-0.5770	-3.8097	-3.7388	-1.1079	-4.8467	-4.0457	-1.3096	-5.3555	66.8232	99.8302	
   839	-3.2405	-0.5819	-3.8224	-3.7653	-1.1118	-4.8771	-4.0687	-1.3131	-5.3819	66.7121	99.8269	
   840	-3.2405	-0.5819	-3.8224	-3.7524	-1.1163	-4.8688	-4.0739	-1.3055	-5.3795	66.6000	99.8284	
   841	-3.2484	-0.5867	-3.8351	-3.7592	-1.1205	-4.8798	-4.0798	-1.3092	-5.3891	66.6000	99.8284	
   842	-3.2632	-0.5814	-3.8446	-3.7789	-1.1202	-4.8991	-4.0857	-1.3129	-5.3987	66.7121	99.8252	
   843	-3.2711	-0.5863	-3.8574	-3.7918	-1.1157	-4.9074	-4.1027	-1.3127	-5.4155	66.6003	99.8279	
   844	-3.2790	-0.5911	-3.8701	-3.7986	-1.1199	-4.9185	-4.1027	-1.3127	-5.4155	66.6000	99.8261	
   845	-3.2859	-0.5809	-3.8669	-3.8046	-1.1111	-4.9158	-4.1079	-1.3051	-5.4130	66.6000	99.8261	
   846	-3.2928	-0.5708	-3.8636	-3.8046	-1.1111	-4.9158	-4.1020	-1.3014	-5.4034	66.7117	99.8234	
   847	-3.2780	-0.5761	-3.8541	-3.8046	-1.1111	-4.9158	-4.1242	-1.2935	-5.4178	66.3760	99.8242	
   848	-3.3076	-0.5655	-3.8731	-3.8303	-1.1021	-4.9324	-4.1360	-1.3009	-5.4370	66.6006	99.8258	
   849	-3.3224	-0.5602	-3.8826	-3.8423	-1.0846	-4.9269	-4.1457	-1.2743	-5.4202	66.3759	99.8262	
   850	-3.3146	-0.5553	-3.8699	-3.8415	-1.0716	-4.9131	-4.1346	-1.2782	-5.4130	66.4880	99.8286	
   851	-3.3372	-0.5549	-3.8921	-3.8492	-1.0888	-4.9379	-4.1575	-1.2817	-5.4394	66.4881	99.8271	
   852	-3.3372	-0.5549	-3.8921	-3.8620	-1.0842	-4.9462	-4.1628	-1.2741	-5.4370	66.3760	99.8241	
   853	-3.3520	-0.5496	-3.9016	-3.8740	-1.0668	-4.9408	-4.1673	-1.2551	-5.4225	66.2639	99.8253	
   854	-3.3668	-0.5442	-3.9111	-3.8604	-1.0583	-4.9187	-4.1444	-1.2516	-5.3961	66.4872	99.8297	
   855	-3.3905	-0.5588	-3.9493	-3.8732	-1.0538	-4.9270	-4.1503	-1.2553	-5.4057	66.4868	99.8355	
   856	-3.4299	-0.5831	-4.0130	-3.8680	-1.0755	-4.9435	-4.1628	-1.2741	-5.4370	66.5976	99.8446	
   857	-3.4388	-0.6030	-4.0417	-3.8672	-1.0625	-4.9298	-4.1628	-1.2741	-5.4370	66.4862	99.8544	
   858	-3.4457	-0.5928	-4.0385	-3.8467	-1.0499	-4.8967	-4.1399	-1.2706	-5.4106	66.7070	99.8600	
   859	-3.4299	-0.5831	-4.0130	-3.8134	-1.0419	-4.8553	-4.1222	-1.2595	-5.3817	66.7066	99.8639	
   860	-3.3984	-0.5637	-3.9620	-3.7861	-1.0250	-4.8111	-4.0927	-1.2409	-5.3337	66.7062	99.8623	
   861	-3.3372	-0.5549	-3.8921	-3.7391	-1.0085	-4.7476	-4.0521	-1.2263	-5.2785	66.5958	99.8631	
   862	-3.3057	-0.5354	-3.8411	-3.6998	-1.0092	-4.7090	-4.0291	-1.2229	-5.2521	66.7066	99.8625	
   863	-3.2751	-0.5310	-3.8062	-3.6929	-1.0050	-4.6979	-4.0232	-1.2191	-5.2425	66.5966	99.8595	
   864	-3.2603	-0.5363	-3.7967	-3.6929	-1.0050	-4.6979	-4.0180	-1.2268	-5.2449	66.5969	99.8591	
   865	-3.2376	-0.5368	-3.7744	-3.6733	-1.0053	-4.6786	-4.0121	-1.2231	-5.2353	66.4862	99.8600	
   866	-3.1992	-0.5275	-3.7267	-3.6468	-1.0015	-4.6482	-3.9840	-1.2272	-5.2113	66.5974	99.8588	
   867	-3.1538	-0.5285	-3.6823	-3.6211	-1.0105	-4.6316	-3.9788	-1.2349	-5.2138	66.4870	99.8576	
   868	-3.1469	-0.5386	-3.6855	-3.6279	-1.0147	-4.6426	-3.9906	-1.2423	-5.2330	66.3757	99.8581	
   869	-3.1548	-0.5435	-3.6982	-3.6347	-1.0189	-4.6537	-4.0024	-1.2497	-5.2522	66.3757	99.8598	
   870	-3.1548	-0.5435	-3.6982	-3.6347	-1.0189	-4.6537	-4.0024	-1.2497	-5.2522	66.3757	99.8598	
   871	-3.1242	-0.5391	-3.6633	-3.6082	-1.0151	-4.6233	-3.9847	-1.2386	-5.2234	66.2640	99.8591	
   872	-3.0857	-0.5298	-3.6156	-3.5817	-1.0112	-4.5929	-3.9677	-1.2388	-5.2066	66.2639	99.8588	
   873	-3.0709	-0.5351	-3.6061	-3.5749	-1.0070	-4.5819	-3.9566	-1.2427	-5.1994	66.2639	99.8603	
   874	-3.0552	-0.5254	-3.5806	-3.5544	-0.9944	-4.5488	-3.9441	-1.2239	-5.1681	66.1521	99.8615	
   875	-3.0246	-0.5210	-3.5456	-3.5271	-0.9775	-4.5047	-3.9205	-1.2091	-5.1297	66.0405	99.8641	
   876	-2.9921	-0.4866	-3.4787	-3.4801	-0.9611	-4.4412	-3.8681	-1.1871	-5.0553	66.2641	99.8612	
   877	-2.8915	-0.4535	-3.3450	-3.4203	-0.9491	-4.3694	-3.8216	-1.1688	-4.9905	66.1521	99.8529	
   878	-2.8442	-0.4244	-3.2686	-3.4127	-0.9319	-4.3446	-3.8247	-1.1271	-4.9520	65.7031	99.8420	
   879	-2.8057	-0.4151	-3.2208	-3.3878	-0.9540	-4.3418	-3.8157	-1.1651	-4.9809	66.0379	99.8402	
   880	-2.7574	-0.3710	-3.1284	-3.3922	-0.9193	-4.3115	-3.7959	-1.1199	-4.9160	65.8119	99.8244	
   881	-2.7940	-0.3502	-3.1441	-3.4351	-0.8711	-4.3062	-3.8175	-1.1007	-4.9183	65.8124	99.8314	
   882	-2.7910	-0.3051	-3.0962	-3.4259	-0.8280	-4.2539	-3.7932	-1.0746	-4.8679	66.0385	99.8332	
   883	-2.8295	-0.3144	-3.1439	-3.4728	-0.8445	-4.3173	-3.8227	-1.0931	-4.9159	66.1509	99.8280	
   884	-2.9074	-0.3479	-3.2553	-3.5479	-0.8908	-4.4387	-3.8980	-1.1186	-5.0167	66.0377	99.8213	
   885	-3.0011	-0.3912	-3.3922	-3.6026	-0.9244	-4.5270	-3.9334	-1.1409	-5.0744	66.1513	99.8233	
   886	-3.0247	-0.4057	-3.4304	-3.6162	-0.9328	-4.5490	-3.9445	-1.1369	-5.0815	66.0395	99.8228	
   887	-3.0484	-0.4203	-3.4687	-3.6427	-0.9367	-4.5794	-3.9511	-1.1520	-5.1032	66.1518	99.8234	
   888	-3.1045	-0.4693	-3.5738	-3.6837	-0.9619	-4.6456	-3.9695	-1.1744	-5.1440	66.1524	99.8257	
   889	-3.1440	-0.4936	-3.6375	-3.6777	-0.9707	-4.6483	-3.9643	-1.1821	-5.1464	66.2643	99.8352	
   890	-3.1430	-0.4785	-3.6215	-3.6769	-0.9577	-4.6346	-3.9563	-1.1444	-5.1008	66.0428	99.8285	
   891	-2.9981	-0.3461	-3.3442	-3.5540	-0.8820	-4.4360	-3.8356	-1.0249	-4.8605	65.9331	99.8052	
   892	-2.8089	-0.2296	-3.0385	-3.4029	-0.7765	-4.1795	-3.6645	-0.9174	-4.5820	65.9349	99.7932	
   893	-2.6156	-0.1683	-2.7839	-3.2150	-0.7106	-3.9256	-3.5094	-0.8853	-4.3948	66.1548	99.8074	
   894	-2.6441	-0.2579	-2.9021	-3.2396	-0.7879	-4.0275	-3.6065	-0.9900	-4.5966	66.0418	99.8285	
   895	-2.7230	-0.3065	-3.0295	-3.2821	-0.8391	-4.1212	-3.6786	-1.0571	-4.7359	66.2640	99.8414	
   896	-2.7259	-0.3515	-3.0774	-3.3460	-0.9158	-4.2618	-3.7758	-1.1618	-4.9377	66.3766	99.8377	
   897	-2.8461	-0.4544	-3.3005	-3.4978	-1.0342	-4.5321	-3.9448	-1.2353	-5.1802	65.8051	99.8227	
   898	-2.8817	-0.4186	-3.3003	-3.5118	-0.9432	-4.4551	-3.9257	-1.2015	-5.1273	66.0355	99.8432	
   899	-2.8847	-0.3484	-3.2331	-3.4873	-0.8659	-4.3532	-3.8463	-1.1079	-4.9543	66.1513	99.8365	
   900	-2.8689	-0.3387	-3.2076	-3.5086	-0.8914	-4.4000	-3.8699	-1.1228	-4.9927	66.1504	99.8223	
   901	-2.8916	-0.3382	-3.2298	-3.5692	-0.9163	-4.4856	-3.8869	-1.1226	-5.0095	66.1504	99.7976	
   902	-2.9459	-0.3572	-3.3030	-3.5965	-0.9332	-4.5297	-3.9105	-1.1374	-5.0480	66.2635	99.8013	
   903	-2.9616	-0.3669	-3.3285	-3.6178	-0.9587	-4.5766	-3.9282	-1.1485	-5.0768	66.2634	99.7929	
   904	-2.9478	-0.3872	-3.3350	-3.6331	-0.9930	-4.6262	-3.9643	-1.1821	-5.1464	66.1494	99.7885	
   905	-3.0197	-0.4459	-3.4657	-3.7074	-1.0264	-4.7338	-4.0291	-1.2229	-5.2521	66.0355	99.7934	
   906	-3.0780	-0.4097	-3.4876	-3.7435	-0.9739	-4.7174	-3.9948	-1.1249	-5.1199	65.8153	99.7768	
   907	-2.8956	-0.2830	-3.1786	-3.5395	-0.8607	-4.4002	-3.7891	-1.0065	-4.7957	66.0421	99.7767	
   908	-2.7310	-0.1961	-2.9270	-3.3560	-0.7601	-4.1160	-3.6003	-0.8879	-4.4883	65.9352	99.7783	
   909	-2.6028	-0.2036	-2.8064	-3.2259	-0.7795	-4.0054	-3.5600	-0.9717	-4.5318	66.3755	99.8075	
   910	-2.7309	-0.3113	-3.0422	-3.3018	-0.8388	-4.1406	-3.6544	-1.0310	-4.6854	66.1533	99.8279	
   911	-2.7496	-0.3661	-3.1157	-3.3697	-0.9802	-4.3499	-3.8309	-1.2292	-5.0602	66.7204	99.8340	
   912	-2.8846	-0.4637	-3.3483	-3.6107	-1.0539	-4.6646	-3.9479	-1.1936	-5.1417	65.4678	99.7738	
   913	-2.9586	-0.4371	-3.3957	-3.5733	-0.9811	-4.5544	-3.9840	-1.2272	-5.2113	66.1491	99.8388	
   914	-2.9468	-0.3722	-3.3190	-3.5982	-0.9591	-4.5572	-3.9296	-1.1712	-5.1008	66.3765	99.8038	
   915	-2.9311	-0.3625	-3.2935	-3.5853	-0.9636	-4.5489	-3.9119	-1.1601	-5.0720	66.3765	99.7958	
   916	-2.9478	-0.3872	-3.3350	-3.6186	-0.9717	-4.5903	-3.9413	-1.1786	-5.1200	66.2632	99.7982	
   917	-3.0257	-0.4207	-3.4464	-3.6733	-1.0053	-4.6786	-3.9774	-1.2122	-5.1897	66.4896	99.7985	
   918	-3.0819	-0.4697	-3.5516	-3.7159	-1.0565	-4.7723	-4.0475	-1.2453	-5.2929	66.2632	99.8008	
   919	-3.1449	-0.5086	-3.6535	-3.7636	-1.0859	-4.8495	-4.0725	-1.2828	-5.3554	66.4897	99.8028	
   920	-3.1834	-0.5178	-3.7012	-3.7962	-1.0810	-4.8772	-4.0895	-1.2826	-5.3722	66.4894	99.8050	
   921	-3.1332	-0.4437	-3.5768	-3.7263	-1.0131	-4.7393	-4.0087	-1.1664	-5.1752	66.1520	99.7941	
   922	-2.9360	-0.3223	-3.2583	-3.5343	-0.8824	-4.4166	-3.7728	-1.0181	-4.7910	66.1542	99.7837	
   923	-2.7970	-0.2799	-3.0769	-3.3624	-0.8637	-4.2261	-3.6891	-1.0419	-4.7311	66.5976	99.8102	
   924	-2.9124	-0.3077	-3.2201	-3.5869	-0.9895	-4.5764	-3.9754	-1.1782	-5.1536	66.4919	99.7845	
   925	-3.0051	-0.3359	-3.3410	-3.6299	-0.9412	-4.5711	-3.9813	-1.1819	-5.1632	66.7177	99.8144	
   926	-3.0770	-0.3947	-3.4717	-3.7315	-0.9914	-4.7229	-4.0507	-1.2037	-5.2544	66.3767	99.7988	
   927	-3.1155	-0.4039	-3.5194	-3.7520	-1.0040	-4.7560	-4.0566	-1.2074	-5.2641	66.4899	99.7963	
   928	-3.1155	-0.4039	-3.5194	-3.7648	-0.9995	-4.7643	-4.0618	-1.1997	-5.2616	66.3766	99.7930	
   929	-3.1460	-0.4083	-3.5543	-3.7785	-1.0079	-4.7863	-4.0566	-1.2074	-5.2641	66.6024	99.7913	
   930	-3.1697	-0.4229	-3.5926	-3.7921	-1.0163	-4.8084	-4.0743	-1.2185	-5.2929	66.6024	99.7956	
   931	-3.1716	-0.4529	-3.6245	-3.7528	-1.0169	-4.7697	-4.0521	-1.2263	-5.2785	66.6014	99.8130	
   932	-3.1578	-0.4732	-3.6310	-3.7134	-1.0176	-4.7310	-4.0239	-1.2305	-5.2545	66.6006	99.8235	
   933	-3.1193	-0.4640	-3.5833	-3.6536	-1.0057	-4.6593	-3.9833	-1.2159	-5.1993	66.6000	99.8300	
   934	-3.0888	-0.4596	-3.5484	-3.6279	-1.0147	-4.6426	-3.9670	-1.2274	-5.1945	66.7128	99.8288	
   935	-3.0819	-0.4697	-3.5516	-3.6416	-1.0231	-4.6647	-3.9958	-1.2346	-5.2305	66.4889	99.8283	
   936	-3.0671	-0.4750	-3.5421	-3.6219	-1.0235	-4.6454	-3.9788	-1.2349	-5.2138	66.4888	99.8304	
   937	-3.0513	-0.4653	-3.5166	-3.5962	-1.0326	-4.6288	-3.9625	-1.2464	-5.2090	66.7143	99.8304	
   938	-3.0286	-0.4658	-3.4944	-3.5886	-1.0154	-4.6040	-3.9323	-1.2165	-5.1489	66.4883	99.8250	
   939	-3.0040	-0.4362	-3.4402	-3.5757	-1.0199	-4.5957	-3.9323	-1.2165	-5.1489	66.6016	99.8178	
   940	-3.0592	-0.4702	-3.5294	-3.6705	-1.0659	-4.7364	-4.0326	-1.2796	-5.3122	66.6043	99.8137	
   941	-3.1371	-0.5037	-3.6408	-3.7789	-1.1202	-4.8991	-4.1558	-1.3461	-5.5019	66.6074	99.8097	
   942	-3.2001	-0.5426	-3.7427	-3.8062	-1.1370	-4.9433	-4.1735	-1.3572	-5.5307	66.6060	99.8168	
   943	-3.1923	-0.5377	-3.7300	-3.7994	-1.1328	-4.9322	-4.1741	-1.3685	-5.5428	66.7212	99.8213	
   944	-3.2238	-0.5571	-3.7809	-3.8267	-1.1497	-4.9764	-4.1859	-1.3759	-5.5620	66.7204	99.8176	
   945	-3.2396	-0.5668	-3.8064	-3.8404	-1.1581	-4.9984	-4.2095	-1.3908	-5.6004	66.7212	99.8213	
   946	-3.2702	-0.5712	-3.8414	-3.8737	-1.1661	-5.0398	-4.2383	-1.3979	-5.6364	66.7216	99.8191	
   947	-3.3007	-0.5756	-3.8764	-3.8873	-1.1746	-5.0619	-4.2501	-1.4054	-5.6556	66.8359	99.8204	
   948	-3.2859	-0.5809	-3.8669	-3.8745	-1.1791	-5.0536	-4.2449	-1.4130	-5.6580	66.8364	99.8222	
   949	-3.2938	-0.5858	-3.8796	-3.8873	-1.1746	-5.0619	-4.2619	-1.4128	-5.6748	66.7220	99.8250	
   950	-3.3244	-0.5902	-3.9146	-3.9138	-1.1784	-5.0923	-4.2908	-1.4200	-5.7108	66.7224	99.8268	
   951	-3.3550	-0.5946	-3.9496	-3.9403	-1.1823	-5.1227	-4.3137	-1.4235	-5.7372	66.7224	99.8268	
   952	-3.3776	-0.5942	-3.9718	-3.9600	-1.1820	-5.1420	-4.3196	-1.4272	-5.7468	66.8369	99.8257	
   953	-3.3855	-0.5990	-3.9845	-3.9729	-1.1774	-5.1503	-4.3248	-1.4195	-5.7444	66.7216	99.8248	
   954	-3.3776	-0.5942	-3.9718	-3.9532	-1.1778	-5.1310	-4.3189	-1.4158	-5.7348	66.7216	99.8271	
   955	-3.3776	-0.5942	-3.9718	-3.9600	-1.1820	-5.1420	-4.3248	-1.4195	-5.7444	66.7220	99.8250	
   956	-3.4082	-0.5986	-4.0068	-3.9737	-1.1904	-5.1641	-4.3477	-1.4230	-5.7708	66.7220	99.8272	
   957	-3.4388	-0.6030	-4.0417	-4.0062	-1.1855	-5.1917	-4.3543	-1.4381	-5.7924	66.9512	99.8287	
   958	-3.4694	-0.6074	-4.0767	-4.0259	-1.1852	-5.2111	-4.3772	-1.4416	-5.8188	66.9512	99.8326	
   959	-3.4772	-0.6122	-4.0895	-4.0259	-1.1852	-5.2111	-4.3824	-1.4339	-5.8164	66.8359	99.8339	
   960	-3.4624	-0.6175	-4.0800	-4.0259	-1.1852	-5.2111	-4.3772	-1.4416	-5.8188	66.8364	99.8334	
   961	-3.4851	-0.6171	-4.1022	-4.0267	-1.1981	-5.2248	-4.3831	-1.4453	-5.8284	66.9505	99.8330	
   962	-3.5078	-0.6166	-4.1244	-4.0463	-1.1978	-5.2442	-4.4001	-1.4450	-5.8452	66.9505	99.8330	
   963	-3.5157	-0.6215	-4.1372	-4.0660	-1.1975	-5.2635	-4.4112	-1.4411	-5.8524	66.8359	99.8300	
   964	-3.5384	-0.6210	-4.1594	-4.0789	-1.1929	-5.2718	-4.4171	-1.4448	-5.8620	66.9499	99.8329	
   965	-3.5305	-0.6162	-4.1467	-4.0660	-1.1975	-5.2635	-4.4112	-1.4411	-5.8524	66.9499	99.8312	
   966	-3.5236	-0.6263	-4.1499	-4.0660	-1.1975	-5.2635	-4.4060	-1.4487	-5.8548	66.9499	99.8329	
   967	-3.5384	-0.6210	-4.1594	-4.0728	-1.2017	-5.2745	-4.4282	-1.4409	-5.8692	66.8359	99.8323	
   968	-3.5463	-0.6259	-4.1721	-4.0857	-1.1971	-5.2828	-4.4230	-1.4485	-5.8716	66.9499	99.8329	
   969	-3.5611	-0.6206	-4.1816	-4.0925	-1.2013	-5.2939	-4.4341	-1.4446	-5.8788	66.9499	99.8312	
   970	-3.5611	-0.6206	-4.1816	-4.0985	-1.1926	-5.2911	-4.4393	-1.4370	-5.8764	66.8354	99.8321	
   971	-3.5532	-0.6157	-4.1689	-4.0857	-1.1971	-5.2828	-4.4171	-1.4448	-5.8620	67.0638	99.8302	
   972	-3.5532	-0.6157	-4.1689	-4.0857	-1.1971	-5.2828	-4.4282	-1.4409	-5.8692	66.9499	99.8312	
   973	-3.5611	-0.6206	-4.1816	-4.0925	-1.2013	-5.2939	-4.4452	-1.4407	-5.8860	66.8359	99.8323	
   974	-3.5759	-0.6153	-4.1911	-4.1054	-1.1968	-5.3022	-4.4563	-1.4368	-5.8932	66.8359	99.8323	
   975	-3.5759	-0.6153	-4.1911	-4.1182	-1.1923	-5.3105	-4.4563	-1.4368	-5.8932	66.8359	99.8300	
   976	-3.5680	-0.6104	-4.1784	-4.0985	-1.1926	-5.2911	-4.4393	-1.4370	-5.8764	66.9499	99.8312	
   977	-3.5532	-0.6157	-4.1689	-4.0917	-1.1884	-5.2801	-4.4334	-1.4333	-5.8668	66.8354	99.8321	
   978	-3.5680	-0.6104	-4.1784	-4.1046	-1.1839	-5.2884	-4.4445	-1.4293	-5.8740	66.8354	99.8321	
   979	-3.5749	-0.6002	-4.1751	-4.1046	-1.1839	-5.2884	-4.4445	-1.4293	-5.8740	66.9499	99.8312	
   980	-3.5601	-0.6055	-4.1656	-4.0977	-1.1796	-5.2774	-4.4497	-1.4217	-5.8715	66.7212	99.8331	
   981	-3.5670	-0.5954	-4.1624	-4.0909	-1.1754	-5.2663	-4.4327	-1.4219	-5.8548	66.9493	99.8333	
   982	-3.5434	-0.5808	-4.1242	-4.0644	-1.1716	-5.2360	-4.4209	-1.4145	-5.8355	66.9499	99.8335	
   983	-3.5207	-0.5813	-4.1019	-4.0516	-1.1761	-5.2277	-4.4150	-1.4108	-5.8259	66.8359	99.8306	
   984	-3.5276	-0.5711	-4.0987	-4.0576	-1.1674	-5.2249	-4.4091	-1.4071	-5.8163	66.9499	99.8296	
   985	-3.5197	-0.5663	-4.0860	-4.0568	-1.1544	-5.2112	-4.4085	-1.3958	-5.8043	66.8354	99.8305	
   986	-3.5118	-0.5614	-4.0732	-4.0499	-1.1502	-5.2001	-4.3914	-1.3960	-5.7875	66.9493	99.8294	
   987	-3.4812	-0.5570	-4.0382	-4.0166	-1.1421	-5.1587	-4.3678	-1.3811	-5.7491	66.8344	99.8308	
   988	-3.4507	-0.5526	-4.0033	-3.9901	-1.1383	-5.1284	-4.3449	-1.3777	-5.7227	66.8344	99.8308	
   989	-3.4497	-0.5376	-3.9873	-3.9893	-1.1253	-5.1146	-4.3443	-1.3663	-5.7107	66.8344	99.8308	
   990	-3.4270	-0.5380	-3.9650	-3.9825	-1.1211	-5.1036	-4.3325	-1.3589	-5.6915	66.7200	99.8278	
   991	-3.4112	-0.5283	-3.9396	-3.9560	-1.1172	-5.0732	-4.3259	-1.3439	-5.6698	66.6057	99.8292	
   992	-3.3797	-0.5089	-3.8886	-3.9226	-1.1091	-5.0318	-4.2859	-1.3406	-5.6266	66.8339	99.8273	
   993	-3.3186	-0.5001	-3.8186	-3.8893	-1.1011	-4.9904	-4.2571	-1.3334	-5.5906	66.7204	99.8239	
   994	-3.3028	-0.4904	-3.7932	-3.8757	-1.0927	-4.9683	-4.2453	-1.3260	-5.5714	66.7204	99.8239	
   995	-3.2949	-0.4855	-3.7804	-3.8628	-1.0972	-4.9600	-4.2394	-1.3223	-5.5618	66.7204	99.8222	
   996	-3.2870	-0.4807	-3.7677	-3.8560	-1.0930	-4.9490	-4.2276	-1.3149	-5.5426	66.7200	99.8204	
   997	-3.2643	-0.4811	-3.7455	-3.8295	-1.0891	-4.9186	-4.2047	-1.3114	-5.5162	66.7197	99.8225	
   998	-3.2111	-0.4772	-3.6882	-3.7893	-1.0768	-4.8662	-4.1589	-1.3044	-5.4634	66.7193	99.8224	
   999	-3.1726	-0.4679	-3.6405	-3.7492	-1.0645	-4.8137	-4.1183	-1.2898	-5.4082	66.7185	99.8227	
  1000	-3.1568	-0.4582	-3.6150	-3.7287	-1.0519	-4.7806	-4.1006	-1.2787	-5.3794	66.7181	99.8249	
  1001	-3.1263	-0.4538	-3.5801	-3.7082	-1.0393	-4.7475	-4.0659	-1.2678	-5.3338	66.7174	99.8230	
  1002	-3.0947	-0.4344	-3.5291	-3.6416	-1.0231	-4.6647	-4.0180	-1.2268	-5.2449	66.6024	99.8255	
  1003	-3.0178	-0.4159	-3.4337	-3.5604	-0.9856	-4.5461	-3.9205	-1.2091	-5.1297	66.8261	99.8315	
  1004	-2.9567	-0.4071	-3.3637	-3.5006	-0.9737	-4.4743	-3.8681	-1.1871	-5.0553	66.7128	99.8311	
  1005	-2.9182	-0.3978	-3.3160	-3.4673	-0.9656	-4.4329	-3.8504	-1.1760	-5.0265	66.6008	99.8321	
  1006	-2.9024	-0.3881	-3.2905	-3.4536	-0.9572	-4.4108	-3.8275	-1.1725	-5.0001	66.7128	99.8311	
  1007	-2.8797	-0.3886	-3.2683	-3.4271	-0.9533	-4.3804	-3.8046	-1.1690	-4.9737	66.7125	99.8331	
  1008	-2.8186	-0.3798	-3.1984	-3.3613	-0.9501	-4.3114	-3.7476	-1.1660	-4.9137	66.8242	99.8344	
  1009	-2.7496	-0.3661	-3.1157	-3.3083	-0.9424	-4.2506	-3.7129	-1.1551	-4.8681	66.7128	99.8333	
  1010	-2.7022	-0.3370	-3.0392	-3.2673	-0.9171	-4.1844	-3.6775	-1.1328	-4.8105	66.7128	99.8333	
  1011	-2.6480	-0.3180	-2.9660	-3.2211	-0.9136	-4.1347	-3.6487	-1.1256	-4.7745	66.7136	99.8313	
  1012	-2.6096	-0.3088	-2.9183	-3.1946	-0.9097	-4.1044	-3.6258	-1.1221	-4.7481	66.7140	99.8292	
  1013	-2.5178	-0.2956	-2.8134	-3.1280	-0.8935	-4.0215	-3.5623	-1.1040	-4.6665	66.6014	99.8262	
  1014	-2.4409	-0.2770	-2.7180	-3.0895	-0.9072	-3.9966	-3.5467	-1.1269	-4.6737	66.7170	99.8200	
  1015	-2.4715	-0.2814	-2.7529	-3.1894	-0.9314	-4.1208	-3.6161	-1.1487	-4.7649	66.6054	99.7987	
  1016	-2.5701	-0.2845	-2.8546	-3.2802	-0.9126	-4.1927	-3.6730	-1.1518	-4.8249	66.7189	99.8035	
  1017	-2.6855	-0.3123	-2.9978	-3.3733	-0.9326	-4.3059	-3.7372	-1.1812	-4.9185	66.9457	99.8055	
  1018	-2.8018	-0.3550	-3.1569	-3.4553	-0.9831	-4.4383	-3.8080	-1.2257	-5.0338	67.1725	99.8059	
  1019	-2.9369	-0.4526	-3.3895	-3.5372	-1.0336	-4.5707	-3.8847	-1.2739	-5.1587	67.0553	99.8220	
  1020	-3.0236	-0.5060	-3.5296	-3.5653	-1.0633	-4.6286	-3.9031	-1.2964	-5.1995	67.1629	99.8320	
  1021	-3.0631	-0.5303	-3.5933	-3.5918	-1.0672	-4.6590	-3.9149	-1.3038	-5.2187	67.1605	99.8360	
  1022	-3.1094	-0.5444	-3.6538	-3.6115	-1.0669	-4.6783	-3.9142	-1.2924	-5.2067	67.1558	99.8369	
  1023	-3.0917	-0.5046	-3.5963	-3.5757	-1.0199	-4.5957	-3.8427	-1.2366	-5.0794	67.2593	99.8333	
  1024	-2.8788	-0.3736	-3.2523	-3.3810	-0.9498	-4.3307	-3.6546	-1.1293	-4.7841	67.3660	99.8123	
  1025	-2.5909	-0.2540	-2.8449	-3.1360	-0.8113	-3.9473	-3.4291	-0.9658	-4.3950	66.7026	99.8078	
  1026	-2.3591	-0.1834	-2.5426	-2.8762	-0.7509	-3.6271	-3.2538	-0.9756	-4.2295	67.3640	99.8399	
  1027	-2.5365	-0.3503	-2.8868	-3.0493	-0.8949	-3.9442	-3.4852	-1.1429	-4.6282	67.1558	99.8580	
  1028	-2.5079	-0.3759	-2.8838	-3.1028	-1.0150	-4.1177	-3.6361	-1.2922	-4.9284	67.4104	99.8508	
  1029	-2.6054	-0.4793	-3.0847	-3.2562	-1.1593	-4.4155	-3.8162	-1.3618	-5.1781	66.6102	99.8224	
  1030	-2.6587	-0.4832	-3.1419	-3.3702	-1.0926	-4.4627	-3.7736	-1.3131	-5.0868	66.6063	99.8039	
  1031	-2.6233	-0.4037	-3.0270	-3.2662	-1.0036	-4.2697	-3.6674	-1.2464	-4.9139	67.0574	99.8218	
  1032	-2.6844	-0.4125	-3.0969	-3.3344	-1.0456	-4.3801	-3.7257	-1.2722	-4.9980	67.1734	99.8084	
  1033	-2.6933	-0.4324	-3.1257	-3.3421	-1.0628	-4.4049	-3.7264	-1.2835	-5.0100	67.1725	99.8065	
  1034	-2.6962	-0.4774	-3.1736	-3.3437	-1.0887	-4.4324	-3.7566	-1.3134	-5.0700	66.9469	99.8164	
  1035	-2.7810	-0.5008	-3.2818	-3.3959	-1.0835	-4.4794	-3.7715	-1.2791	-5.0507	66.7151	99.8142	
  1036	-2.6509	-0.3631	-3.0140	-3.2850	-0.9903	-4.2753	-3.6109	-1.1564	-4.7673	66.9357	99.7864	
  1037	-2.3532	-0.2086	-2.5618	-2.9633	-0.7797	-3.7430	-3.2497	-0.9076	-4.1574	66.4835	99.7873	
  1038	-2.1363	-0.1328	-2.2690	-2.6489	-0.6856	-3.3345	-3.0056	-0.9069	-3.9127	67.5701	99.8394	
  1039	-2.2939	-0.3451	-2.6390	-2.8747	-0.9367	-3.8114	-3.3682	-1.1784	-4.5467	67.1645	99.8480	
  1040	-2.3314	-0.3394	-2.6708	-2.9353	-0.9616	-3.8969	-3.4345	-1.2419	-4.6764	67.6275	99.8479	
  1041	-2.4792	-0.5169	-2.9960	-3.2048	-1.1775	-4.3823	-3.7464	-1.4270	-5.1735	66.8455	99.8221	
  1042	-2.5758	-0.4899	-3.0657	-3.2393	-1.0991	-4.3384	-3.7031	-1.3670	-5.0702	67.1816	99.8326	
  1043	-2.5729	-0.4448	-3.0178	-3.2505	-1.0686	-4.3192	-3.6708	-1.3031	-4.9741	67.0624	99.8128	
  1044	-2.5572	-0.4351	-2.9923	-3.2180	-1.0735	-4.2915	-3.6316	-1.3112	-4.9429	67.4031	99.8121	
  1045	-2.5729	-0.4448	-3.0178	-3.2461	-1.1033	-4.3494	-3.6670	-1.3334	-5.0005	67.4073	99.8054	
  1046	-2.6272	-0.4638	-3.0909	-3.3052	-1.1023	-4.4075	-3.7121	-1.3291	-5.0413	67.1775	99.8054	
  1047	-2.7129	-0.5022	-3.2151	-3.3838	-1.1010	-4.4848	-3.7638	-1.3398	-5.1037	67.0610	99.8125	
  1048	-2.7869	-0.4756	-3.2626	-3.3814	-1.0621	-4.4435	-3.7323	-1.2872	-5.0196	67.2771	99.8190	
  1049	-2.6677	-0.3878	-3.0555	-3.3055	-1.0029	-4.3084	-3.5959	-1.1906	-4.7866	67.2699	99.7870	
  1050	-2.4094	-0.2576	-2.6670	-2.9931	-0.8353	-3.8284	-3.2892	-0.9979	-4.2871	67.0322	99.7999	
  1051	-2.1865	-0.2069	-2.3935	-2.7212	-0.7924	-3.5136	-3.1034	-1.0229	-4.1265	67.8039	99.8360	
  1052	-2.3816	-0.4136	-2.7952	-2.9847	-1.0170	-4.0017	-3.4463	-1.2493	-4.6956	67.2798	99.8351	
  1053	-2.4358	-0.4325	-2.8684	-3.0554	-1.0979	-4.1533	-3.5847	-1.3799	-4.9647	67.8758	99.8425	
  1054	-2.6261	-0.5641	-3.1901	-3.2988	-1.2104	-4.5092	-3.7759	-1.4455	-5.2215	67.1866	99.8185	
  1055	-2.6399	-0.5437	-3.1836	-3.2144	-1.1211	-4.3355	-3.7031	-1.3670	-5.0702	67.0602	99.8508	
  1056	-2.5828	-0.4797	-3.0625	-3.1915	-1.0696	-4.2612	-3.6330	-1.3339	-4.9669	67.4000	99.8400	
  1057	-2.6281	-0.4788	-3.1069	-3.2120	-1.0823	-4.2943	-3.6389	-1.3376	-4.9765	67.6237	99.8368	
  1058	-2.6606	-0.5132	-3.1739	-3.2939	-1.1327	-4.4267	-3.7214	-1.3895	-5.1110	67.5206	99.8265	
  1059	-2.7306	-0.5419	-3.2726	-3.3742	-1.1573	-4.5315	-3.7850	-1.4076	-5.1926	67.4073	99.8213	
  1060	-2.8155	-0.5653	-3.3807	-3.4144	-1.1696	-4.5840	-3.8197	-1.4185	-5.2382	67.5172	99.8290	
  1061	-2.8391	-0.5799	-3.4190	-3.4401	-1.1605	-4.6006	-3.8086	-1.4224	-5.2311	67.6262	99.8298	
  1062	-2.8204	-0.5251	-3.3455	-3.3710	-1.1055	-4.4765	-3.6951	-1.3293	-5.0245	67.7185	99.8219	
  1063	-2.6164	-0.4139	-3.0302	-3.2019	-1.0263	-4.2282	-3.5522	-1.2177	-4.7699	67.3817	99.8078	
  1064	-2.3877	-0.2731	-2.6608	-2.9220	-0.8538	-3.7758	-3.2520	-1.0399	-4.2921	67.4708	99.8183	
  1065	-2.3008	-0.3350	-2.6358	-2.8839	-0.9798	-3.8637	-3.3560	-1.2580	-4.6141	68.1874	99.8420	
  1066	-2.5354	-0.4506	-2.9860	-3.0871	-1.0800	-4.1672	-3.5715	-1.3498	-4.9214	67.9687	99.8491	
  1067	-2.6211	-0.6043	-3.2254	-3.3739	-1.2567	-4.6306	-3.8603	-1.4331	-5.2935	66.1454	99.7918	
  1068	-2.6666	-0.4881	-3.1547	-3.2538	-1.1204	-4.3742	-3.7162	-1.3971	-5.1134	67.8653	99.8411	
  1069	-2.5641	-0.4249	-2.9890	-3.2505	-1.0686	-4.3192	-3.6389	-1.3376	-4.9765	67.7494	99.8096	
  1070	-2.6252	-0.4338	-3.0590	-3.3308	-1.0932	-4.4241	-3.7017	-1.3443	-5.0461	67.6375	99.7957	
  1071	-2.7110	-0.4721	-3.1831	-3.3855	-1.1269	-4.5123	-3.7718	-1.3775	-5.1494	67.6388	99.8043	
  1072	-2.7810	-0.5008	-3.2818	-3.4598	-1.1602	-4.6199	-3.8353	-1.3956	-5.2310	67.5252	99.7969	
  1073	-2.8116	-0.5052	-3.3168	-3.4931	-1.1683	-4.6613	-3.8575	-1.3877	-5.2454	67.4094	99.7897	
  1074	-2.8037	-0.5004	-3.3040	-3.4726	-1.1556	-4.6282	-3.8294	-1.3919	-5.2214	67.6363	99.7962	
  1075	-2.8431	-0.5246	-3.3677	-3.4931	-1.1683	-4.6613	-3.8471	-1.4030	-5.2502	67.6337	99.8008	
  1076	-2.8973	-0.5436	-3.4409	-3.5256	-1.1634	-4.6890	-3.8752	-1.3988	-5.2742	67.5160	99.8086	
  1077	-2.9043	-0.5334	-3.4377	-3.5043	-1.1378	-4.6421	-3.8457	-1.3803	-5.2261	67.6237	99.8165	
  1078	-2.8717	-0.4990	-3.3707	-3.5043	-1.1378	-4.6421	-3.8450	-1.3690	-5.2141	67.6287	99.8016	
  1079	-2.9102	-0.5083	-3.4185	-3.5308	-1.1417	-4.6725	-3.8621	-1.3688	-5.2309	67.6262	99.8019	
  1080	-2.9496	-0.5325	-3.4822	-3.5513	-1.1543	-4.7056	-3.8634	-1.3914	-5.2550	67.8491	99.8062	
  1081	-2.9812	-0.5520	-3.5331	-3.5376	-1.1459	-4.6835	-3.8391	-1.3653	-5.2045	67.7238	99.8132	
  1082	-2.8865	-0.4937	-3.3802	-3.3746	-1.0579	-4.4325	-3.6570	-1.2617	-4.9188	67.8108	99.8233	
  1083	-2.6677	-0.3878	-3.0555	-3.1585	-0.9622	-4.1207	-3.4741	-1.1468	-4.6210	67.5840	99.8228	
  1084	-2.4498	-0.2969	-2.7467	-2.9706	-0.8962	-3.8668	-3.3412	-1.1069	-4.4482	67.7016	99.8288	
  1085	-2.5079	-0.3759	-2.8838	-3.0140	-0.9603	-3.9743	-3.4435	-1.2039	-4.6475	67.7146	99.8499	
  1086	-2.5956	-0.4444	-3.0400	-3.1104	-1.0321	-4.1425	-3.5753	-1.3195	-4.8949	67.9578	99.8621	
  1087	-2.6528	-0.5084	-3.1611	-3.2458	-1.2027	-4.4485	-3.8075	-1.4981	-5.3056	68.1274	99.8487	
  1088	-2.7089	-0.5574	-3.2663	-3.4594	-1.2596	-4.7190	-3.9134	-1.4664	-5.3799	66.9623	99.7826	
  1089	-2.7366	-0.5167	-3.2533	-3.4373	-1.2211	-4.6584	-3.8603	-1.4331	-5.2935	67.4200	99.7863	
  1090	-2.7120	-0.4872	-3.1991	-3.3939	-1.1570	-4.5509	-3.7836	-1.3849	-5.1686	67.5252	99.7950	
  1091	-2.7652	-0.4911	-3.2563	-3.4051	-1.1265	-4.5317	-3.7888	-1.3773	-5.1662	67.6337	99.8133	
  1092	-2.8116	-0.5052	-3.3168	-3.4393	-1.1476	-4.5868	-3.8235	-1.3882	-5.2118	67.6337	99.8116	
  1093	-2.8185	-0.4951	-3.3135	-3.4240	-1.1132	-4.5373	-3.8058	-1.3770	-5.1830	67.7439	99.8248	
  1094	-2.8421	-0.5096	-3.3518	-3.4368	-1.1087	-4.5456	-3.8235	-1.3882	-5.2118	67.7439	99.8342	
  1095	-2.9348	-0.5378	-3.4727	-3.5027	-1.1119	-4.6146	-3.8811	-1.4026	-5.2838	67.7412	99.8437	
  1096	-3.0452	-0.6058	-3.6510	-3.5854	-1.1753	-4.7608	-3.9703	-1.4695	-5.4399	67.8579	99.8500	
  1097	-3.1231	-0.6393	-3.7625	-3.6469	-1.2132	-4.8601	-4.0102	-1.4728	-5.4831	67.7385	99.8409	
  1098	-2.9733	-0.5471	-3.5204	-3.5196	-1.1721	-4.6917	-3.8804	-1.3912	-5.2718	67.7345	99.8187	
  1099	-2.7258	-0.4668	-3.1926	-3.3317	-1.1062	-4.4378	-3.6951	-1.3293	-5.0245	67.7345	99.8082	
  1100	-2.6272	-0.4638	-3.0909	-3.2248	-1.0777	-4.3026	-3.6264	-1.3188	-4.9453	67.6213	99.8254	
  1101	-2.6508	-0.4784	-3.1292	-3.2265	-1.1036	-4.3301	-3.6874	-1.3899	-5.0774	67.9767	99.8460	
  1102	-2.6922	-0.5327	-3.2249	-3.3313	-1.2056	-4.5369	-3.8381	-1.4409	-5.2791	67.3051	99.8237	
  1103	-2.8362	-0.5348	-3.3710	-3.3361	-1.0715	-4.4076	-3.7509	-1.4080	-5.1591	68.1856	99.8741	
  1104	-2.8343	-0.5048	-3.3390	-3.4112	-1.1178	-4.5289	-3.8013	-1.3960	-5.1974	67.9703	99.8346	
  1105	-2.8185	-0.4951	-3.3135	-3.3975	-1.1094	-4.5069	-3.7666	-1.3851	-5.1518	68.0792	99.8300	
  1106	-2.7810	-0.5008	-3.2818	-3.3795	-1.1356	-4.5151	-3.7732	-1.4002	-5.1734	67.9735	99.8248	
  1107	-2.7731	-0.4960	-3.2691	-3.3999	-1.1482	-4.5482	-3.7843	-1.3962	-5.1806	67.8623	99.8114	
  1108	-2.7662	-0.5061	-3.2723	-3.4007	-1.1612	-4.5619	-3.7843	-1.3962	-5.1806	67.7480	99.8064	
  1109	-2.6775	-0.4227	-3.1002	-3.3377	-1.0974	-4.4351	-3.6577	-1.2730	-4.9308	67.5058	99.7721	
  1110	-2.4350	-0.3022	-2.7372	-3.1353	-1.0101	-4.1454	-3.4769	-1.1921	-4.6691	67.6200	99.7640	
  1111	-2.2309	-0.1910	-2.4219	-2.8349	-0.8250	-3.6599	-3.1309	-1.0075	-4.1384	67.8026	99.7896	
  1112	-2.2535	-0.3058	-2.5593	-2.8209	-0.9160	-3.7369	-3.2360	-1.1499	-4.3859	67.8234	99.8322	
  1113	-2.4250	-0.3826	-2.8077	-2.8935	-0.9234	-3.8170	-3.3008	-1.1906	-4.4916	68.0318	99.8638	
  1114	-2.5936	-0.5296	-3.1232	-3.1426	-1.1266	-4.2692	-3.6738	-1.4468	-5.1208	67.9846	99.8721	
  1115	-2.7760	-0.5410	-3.3170	-3.3180	-1.0978	-4.4158	-3.6985	-1.3860	-5.0846	67.9547	99.8504	
  1116	-2.8047	-0.5154	-3.3200	-3.3931	-1.1440	-4.5371	-3.7863	-1.4303	-5.2167	68.2035	99.8321	
  1117	-2.8283	-0.5299	-3.3583	-3.4598	-1.1602	-4.6199	-3.8210	-1.4412	-5.2623	68.0927	99.8184	
  1118	-2.8914	-0.5688	-3.4602	-3.4674	-1.1773	-4.6447	-3.8335	-1.4599	-5.2935	68.1981	99.8322	
  1119	-2.9220	-0.5732	-3.4952	-3.5015	-1.1984	-4.6999	-3.8800	-1.4782	-5.3584	68.2053	99.8300	
  1120	-2.9525	-0.5776	-3.5301	-3.5493	-1.2278	-4.7771	-3.9376	-1.4926	-5.4304	68.0995	99.8207	
  1121	-2.9693	-0.6023	-3.5716	-3.5919	-1.2789	-4.8709	-3.9907	-1.5260	-5.5168	67.9943	99.8088	
  1122	-3.0324	-0.6411	-3.6735	-3.6526	-1.3038	-4.9564	-4.0386	-1.5670	-5.6057	68.1116	99.8133	
  1123	-3.0560	-0.6557	-3.7117	-3.6730	-1.3165	-4.9895	-4.0570	-1.5894	-5.6465	68.2291	99.8161	
  1124	-3.0018	-0.6367	-3.6385	-3.5943	-1.3178	-4.9121	-4.0112	-1.5824	-5.5937	68.3449	99.8197	
  1125	-2.9101	-0.6235	-3.5336	-3.5277	-1.3016	-4.8293	-3.9647	-1.5641	-5.5289	68.1169	99.8195	
  1126	-2.8489	-0.6147	-3.4637	-3.4132	-1.2560	-4.6693	-3.8658	-1.5238	-5.3897	68.1012	99.8388	
  1127	-2.7711	-0.5812	-3.3523	-3.2835	-1.1761	-4.4596	-3.7131	-1.4388	-5.1519	68.0741	99.8503	
  1128	-2.6705	-0.5481	-3.2186	-3.1904	-1.1561	-4.3465	-3.6444	-1.4283	-5.0727	68.1909	99.8528	
  1129	-2.6320	-0.5389	-3.1709	-3.1904	-1.1561	-4.3465	-3.6267	-1.4172	-5.0439	68.0792	99.8405	
  1130	-2.5857	-0.5248	-3.1104	-3.1245	-1.1529	-4.2774	-3.5808	-1.4102	-4.9911	68.1909	99.8438	
  1131	-2.5718	-0.5451	-3.1169	-3.1390	-1.1742	-4.3132	-3.6117	-1.4514	-5.0632	68.2035	99.8463	
  1132	-2.6034	-0.5645	-3.1679	-3.2209	-1.2247	-4.4456	-3.7002	-1.5070	-5.2073	68.2236	99.8351	
  1133	-2.6803	-0.5830	-3.2633	-3.2859	-1.2150	-4.5009	-3.7217	-1.4878	-5.2096	68.0961	99.8329	
  1134	-2.7001	-0.5375	-3.2376	-3.3237	-1.1884	-4.5121	-3.7197	-1.4538	-5.1736	68.2071	99.8181	
  1135	-2.7228	-0.5371	-3.2598	-3.3562	-1.1835	-4.5397	-3.7190	-1.4425	-5.1615	68.2017	99.8101	
  1136	-2.7760	-0.5410	-3.3170	-3.3494	-1.1793	-4.5287	-3.7020	-1.4427	-5.1448	68.5292	99.8205	
  1137	-2.8076	-0.5604	-3.3680	-3.3562	-1.1835	-4.5397	-3.7138	-1.4501	-5.1640	68.5250	99.8288	
  1138	-2.8391	-0.5799	-3.4190	-3.3835	-1.2004	-4.5839	-3.7433	-1.4686	-5.2120	68.5271	99.8306	
  1139	-2.8855	-0.5940	-3.4794	-3.4048	-1.2259	-4.6307	-3.7780	-1.4795	-5.2576	68.5271	99.8311	
  1140	-2.8933	-0.5988	-3.4922	-3.4108	-1.2172	-4.6280	-3.7773	-1.4682	-5.2456	68.4099	99.8323	
  1141	-2.9081	-0.5935	-3.5016	-3.4297	-1.2039	-4.6336	-3.7714	-1.4645	-5.2360	68.5188	99.8312	
  1142	-2.9072	-0.5785	-3.4857	-3.4092	-1.1913	-4.6005	-3.7464	-1.4270	-5.1735	68.3961	99.8276	
  1143	-2.7564	-0.4712	-3.2276	-3.2855	-1.1026	-4.3881	-3.5969	-1.3003	-4.8973	68.1577	99.8071	
  1144	-2.5148	-0.3658	-2.8806	-3.1044	-1.0409	-4.1453	-3.4522	-1.2530	-4.7052	68.2820	99.7985	
  1145	-2.4546	-0.3720	-2.8266	-2.9695	-0.9826	-3.9521	-3.3369	-1.2242	-4.5612	68.3729	99.8333	
  1146	-2.4802	-0.4166	-2.8968	-2.9249	-1.0050	-3.9299	-3.3404	-1.2809	-4.6214	68.7060	99.8617	
  1147	-2.4851	-0.4917	-2.9768	-3.0306	-1.1199	-4.1505	-3.5083	-1.4301	-4.9384	68.6537	99.8572	
  1148	-2.6132	-0.5994	-3.2126	-3.1253	-1.1658	-4.2912	-3.5999	-1.4440	-5.0440	67.9609	99.8653	
  1149	-2.6241	-0.5340	-3.1582	-3.1510	-1.1568	-4.3078	-3.6117	-1.4514	-5.0632	68.5377	99.8548	
  1150	-2.6468	-0.5336	-3.1804	-3.2382	-1.1855	-4.4237	-3.6575	-1.4584	-5.1160	68.4319	99.8286	
  1151	-2.7080	-0.5424	-3.2503	-3.2843	-1.1891	-4.4734	-3.6974	-1.4617	-5.1592	68.4299	99.8307	
  1152	-2.7543	-0.5565	-3.3108	-3.3108	-1.1929	-4.5038	-3.7092	-1.4691	-5.1784	68.5377	99.8339	
  1153	-2.7474	-0.5666	-3.3140	-3.3185	-1.2101	-4.5286	-3.7217	-1.4878	-5.2096	68.5441	99.8315	
  1154	-2.7789	-0.5861	-3.3650	-3.3731	-1.2437	-4.6168	-3.7807	-1.5249	-5.3057	68.5569	99.8266	
  1155	-2.8726	-0.6293	-3.5019	-3.4610	-1.2855	-4.7465	-3.8803	-1.5766	-5.4570	68.5678	99.8317	
  1156	-2.9505	-0.6628	-3.6133	-3.5277	-1.3016	-4.8293	-3.9497	-1.5984	-5.5482	68.4545	99.8383	
  1157	-3.0047	-0.6818	-3.6865	-3.5482	-1.3143	-4.8624	-3.9733	-1.6132	-5.5866	68.5656	99.8453	
  1158	-2.9968	-0.6769	-3.6738	-3.5285	-1.3146	-4.8431	-3.9615	-1.6058	-5.5674	68.5634	99.8457	
  1159	-2.9741	-0.6774	-3.6515	-3.5088	-1.3149	-4.8237	-3.9563	-1.6134	-5.5698	68.5678	99.8492	
  1160	-2.9820	-0.6823	-3.6643	-3.5285	-1.3146	-4.8431	-3.9681	-1.6208	-5.5890	68.5699	99.8488	
  1161	-2.9968	-0.6769	-3.6738	-3.5353	-1.3188	-4.8541	-3.9851	-1.6206	-5.6058	68.5721	99.8489	
  1162	-2.9968	-0.6769	-3.6738	-3.5353	-1.3188	-4.8541	-3.9792	-1.6169	-5.5962	68.5699	99.8472	
  1163	-2.9663	-0.6725	-3.6388	-3.5088	-1.3149	-4.8237	-3.9504	-1.6097	-5.5602	68.5678	99.8455	
  1164	-2.9199	-0.6584	-3.5783	-3.4627	-1.3114	-4.7740	-3.9164	-1.6101	-5.5266	68.6854	99.8463	
  1165	-2.9120	-0.6536	-3.5656	-3.4627	-1.3114	-4.7740	-3.9164	-1.6101	-5.5266	68.6877	99.8443	
  1166	-2.9120	-0.6536	-3.5656	-3.4755	-1.3068	-4.7823	-3.9164	-1.6101	-5.5266	68.6877	99.8421	
  1167	-2.9120	-0.6536	-3.5656	-3.4755	-1.3068	-4.7823	-3.9275	-1.6062	-5.5338	68.5743	99.8431	
  1168	-2.9120	-0.6536	-3.5656	-3.4755	-1.3068	-4.7823	-3.9216	-1.6025	-5.5242	68.5721	99.8414	
  1169	-2.8588	-0.6496	-3.5084	-3.4422	-1.2988	-4.7409	-3.8817	-1.5992	-5.4810	68.5721	99.8392	
  1170	-2.8509	-0.6448	-3.4957	-3.4293	-1.3033	-4.7326	-3.8817	-1.5992	-5.4810	68.5743	99.8393	
  1171	-2.8667	-0.6545	-3.5211	-3.4490	-1.3030	-4.7520	-3.8987	-1.5990	-5.4978	68.4586	99.8402	
  1172	-2.8667	-0.6545	-3.5211	-3.4618	-1.2984	-4.7603	-3.8987	-1.5990	-5.4978	68.4586	99.8380	
  1173	-2.8815	-0.6492	-3.5306	-3.4618	-1.2984	-4.7603	-3.9098	-1.5951	-5.5050	68.4586	99.8402	
  1174	-2.8657	-0.6395	-3.5052	-3.4353	-1.2946	-4.7299	-3.8810	-1.5879	-5.4690	68.5699	99.8396	
  1175	-2.8203	-0.6404	-3.4607	-3.4157	-1.2949	-4.7106	-3.8588	-1.5958	-5.4546	68.5743	99.8371	
  1176	-2.8282	-0.6452	-3.4734	-3.4157	-1.2949	-4.7106	-3.8699	-1.5918	-5.4618	68.4586	99.8402	
  1177	-2.8282	-0.6452	-3.4734	-3.4225	-1.2991	-4.7216	-3.8758	-1.5955	-5.4714	68.4607	99.8381	
  1178	-2.8430	-0.6399	-3.4829	-3.4353	-1.2946	-4.7299	-3.8817	-1.5992	-5.4810	68.5765	99.8389	
  1179	-2.8430	-0.6399	-3.4829	-3.4285	-1.2903	-4.7189	-3.8699	-1.5918	-5.4618	68.5721	99.8392	
  1180	-2.7967	-0.6258	-3.4225	-3.3823	-1.2868	-4.6691	-3.8300	-1.5886	-5.4186	68.6877	99.8383	
  1181	-2.7819	-0.6311	-3.4130	-3.3823	-1.2868	-4.6691	-3.8411	-1.5846	-5.4258	68.4607	99.8381	
  1182	-2.7897	-0.6360	-3.4257	-3.3952	-1.2823	-4.6775	-3.8411	-1.5846	-5.4258	68.4586	99.8380	
  1183	-2.8045	-0.6307	-3.4352	-3.3952	-1.2823	-4.6775	-3.8411	-1.5846	-5.4258	68.5721	99.8392	
  1184	-2.8045	-0.6307	-3.4352	-3.4012	-1.2735	-4.6747	-3.8463	-1.5770	-5.4234	68.4566	99.8401	
  1185	-2.7740	-0.6263	-3.4002	-3.3619	-1.2742	-4.6360	-3.8175	-1.5698	-5.3874	68.4545	99.8405	
  1186	-2.7513	-0.6267	-3.3780	-3.3490	-1.2787	-4.6277	-3.8123	-1.5774	-5.3898	68.4586	99.8402	
  1187	-2.7740	-0.6263	-3.4002	-3.3747	-1.2696	-4.6444	-3.8345	-1.5696	-5.4042	68.3429	99.8411	
  1188	-2.7888	-0.6210	-3.4097	-3.3815	-1.2739	-4.6554	-3.8345	-1.5696	-5.4042	68.4566	99.8384	
  1189	-2.8036	-0.6156	-3.4192	-3.3876	-1.2651	-4.6527	-3.8345	-1.5696	-5.4042	68.5699	99.8412	
  1190	-2.7809	-0.6161	-3.3970	-3.3739	-1.2567	-4.6306	-3.8116	-1.5661	-5.3778	68.5678	99.8411	
  1191	-2.7582	-0.6166	-3.3747	-3.3482	-1.2658	-4.6140	-3.8116	-1.5661	-5.3778	68.4566	99.8422	
  1192	-2.7888	-0.6210	-3.4097	-3.3747	-1.2696	-4.6444	-3.8404	-1.5733	-5.4138	68.4586	99.8440	
  1193	-2.8045	-0.6307	-3.4352	-3.3944	-1.2693	-4.6637	-3.8463	-1.5770	-5.4234	68.4566	99.8439	
  1194	-2.8341	-0.6200	-3.4542	-3.4072	-1.2648	-4.6720	-3.8574	-1.5731	-5.4306	68.5699	99.8450	
  1195	-2.8193	-0.6254	-3.4447	-3.3876	-1.2651	-4.6527	-3.8456	-1.5657	-5.4114	68.4524	99.8463	
  1196	-2.7809	-0.6161	-3.3970	-3.3611	-1.2612	-4.6223	-3.8227	-1.5622	-5.3850	68.4545	99.8443	
  1197	-2.7809	-0.6161	-3.3970	-3.3611	-1.2612	-4.6223	-3.8286	-1.5659	-5.3946	68.4566	99.8460	
  1198	-2.7957	-0.6108	-3.4065	-3.3739	-1.2567	-4.6306	-3.8338	-1.5583	-5.3922	68.4545	99.8443	
  1199	-2.7957	-0.6108	-3.4065	-3.3739	-1.2567	-4.6306	-3.8279	-1.5545	-5.3825	68.4524	99.8425	
  1200	-2.7878	-0.6059	-3.3937	-3.3602	-1.2483	-4.6085	-3.8161	-1.5471	-5.3633	68.4503	99.8446	
  1201	-2.7267	-0.5971	-3.3238	-3.3141	-1.2447	-4.5588	-3.7821	-1.5476	-5.3298	68.4545	99.8443	
  1202	-2.7188	-0.5923	-3.3110	-3.3141	-1.2447	-4.5588	-3.7821	-1.5476	-5.3298	68.4566	99.8422	
  1203	-2.7267	-0.5971	-3.3238	-3.3209	-1.2490	-4.5698	-3.7932	-1.5436	-5.3369	68.3410	99.8415	
  1204	-2.7267	-0.5971	-3.3238	-3.3269	-1.2402	-4.5671	-3.7873	-1.5399	-5.3273	68.3390	99.8414	
  1205	-2.7336	-0.5870	-3.3205	-3.3329	-1.2315	-4.5644	-3.7814	-1.5362	-5.3177	68.4524	99.8404	
  1206	-2.6951	-0.5777	-3.2728	-3.2868	-1.2279	-4.5147	-3.7578	-1.5214	-5.2793	68.3371	99.8418	
  1207	-2.6724	-0.5782	-3.2506	-3.2799	-1.2237	-4.5036	-3.7467	-1.5253	-5.2721	68.3390	99.8414	
  1208	-2.6803	-0.5830	-3.2633	-3.2868	-1.2279	-4.5147	-3.7578	-1.5214	-5.2793	68.2236	99.8406	
  1209	-2.6951	-0.5777	-3.2728	-3.2996	-1.2234	-4.5230	-3.7578	-1.5214	-5.2793	68.3371	99.8396	
  1210	-2.6951	-0.5777	-3.2728	-3.3056	-1.2146	-4.5203	-3.7630	-1.5138	-5.2769	68.2217	99.8405	
  1211	-2.6793	-0.5680	-3.2473	-3.2791	-1.2108	-4.4899	-3.7453	-1.5027	-5.2481	68.2199	99.8409	
  1212	-2.6488	-0.5636	-3.2124	-3.2655	-1.2024	-4.4678	-3.7283	-1.5029	-5.2313	68.2217	99.8405	
  1213	-2.6566	-0.5685	-3.2251	-3.2723	-1.2066	-4.4789	-3.7453	-1.5027	-5.2481	68.1081	99.8415	
  1214	-2.6714	-0.5632	-3.2346	-3.2723	-1.2066	-4.4789	-3.7453	-1.5027	-5.2481	68.2217	99.8427	
  1215	-2.6784	-0.5530	-3.2314	-3.2723	-1.2066	-4.4789	-3.7505	-1.4950	-5.2457	68.2217	99.8410	
  1216	-2.6784	-0.5530	-3.2314	-3.2715	-1.1936	-4.4651	-3.7335	-1.4952	-5.2289	68.3332	99.8437	
  1217	-2.6399	-0.5437	-3.1836	-3.2321	-1.1943	-4.4264	-3.7158	-1.4841	-5.2000	68.2199	99.8431	
  1218	-2.6320	-0.5389	-3.1709	-3.2382	-1.1855	-4.4237	-3.7158	-1.4841	-5.2000	68.2217	99.8427	
  1219	-2.6399	-0.5437	-3.1836	-3.2510	-1.1810	-4.4320	-3.7158	-1.4841	-5.2000	68.2199	99.8425	
  1220	-2.6399	-0.5437	-3.1836	-3.2510	-1.1810	-4.4320	-3.7158	-1.4841	-5.2000	68.2199	99.8425	
  1221	-2.6547	-0.5384	-3.1931	-3.2510	-1.1810	-4.4320	-3.7210	-1.4765	-5.1976	68.2181	99.8429	
  1222	-2.6310	-0.5239	-3.1549	-3.2305	-1.1684	-4.3989	-3.6922	-1.4693	-5.1616	68.3312	99.8420	
  1223	-2.5936	-0.5296	-3.1232	-3.2108	-1.1687	-4.3796	-3.6863	-1.4656	-5.1520	68.1047	99.8418	
  1224	-2.6162	-0.5292	-3.1454	-3.2365	-1.1596	-4.3962	-3.6922	-1.4693	-5.1616	68.2181	99.8424	
