OxySoft export of:	C:\Users\TO3 TechSupport\Documents\Train2Adapt\T2A_63
Export date:	2022/09/17 09:18:56
Start of measurement:	2022-09-17 08:23:00.822

Datafile sample rate:	10.00	Hz
Datafile duration:	3292.100	s
Datafile total number of samples:	32921

Description:	

Optode-template:	PortaMon TSI Fit Factor
Optode distance (mm):	 35.00
Optode gradients (mm):	 5.00
DPF:	6.56

Device id:	334
# Receivers:	1
# Light sources:	6
# ADC:	2

Light source wavelengths:
device	index	wavelength
1	1	849	nm
1	2	759	nm
1	3	846	nm
1	4	757	nm
1	5	848	nm
1	6	757	nm

Export sample rate:	10.00	Hz
Selected time span:	0	3292.100
Selected time span (sample numbers):	0	32921


Legend:
Column	Trace (Measurement)
1	(Sample number)
2	Rx1-Tx1 O2Hb (T2A_63)
3	Rx1-Tx1 HHb (T2A_63)
4	Rx1-Tx1 tHb (T2A_63)
5	Rx1-Tx2 O2Hb (T2A_63)
6	Rx1-Tx2 HHb (T2A_63)
7	Rx1-Tx2 tHb (T2A_63)
8	Rx1-Tx3 O2Hb (T2A_63)
9	Rx1-Tx3 HHb (T2A_63)
10	Rx1-Tx3 tHb (T2A_63)
11	Rx1-Tx1,Tx2,Tx3 TSI% (T2A_63)
12	Rx1-Tx1,Tx2,Tx3 TSI Fit Factor (T2A_63)
13	(Event)


1	2	3	4	5	6	7	8	9	10	11	12	13
     0	110.4416	50.1125	160.5541	87.8143	39.8830	127.6973	70.2434	34.9271	105.1705	11.5652	98.7634	
     1	-0.0446	 0.0009	-0.0437	-0.0632	 0.0223	-0.0408	-0.0874	 0.0309	-0.0565	56.5712	99.9809	
     2	-0.0592	 0.0061	-0.0531	-0.0833	 0.0099	-0.0733	-0.1201	 0.0425	-0.0777	56.4878	99.9797	
     3	-0.0465	-0.0287	-0.0752	-0.0833	 0.0099	-0.0733	-0.1215	 0.0202	-0.1013	56.4461	99.9813	
     4	-0.0747	-0.0035	-0.0781	-0.1086	 0.0188	-0.0897	-0.1215	 0.0202	-0.1013	56.5654	99.9804	
     5	-0.0747	-0.0035	-0.0781	-0.1035	-0.0025	-0.1059	-0.1010	-0.0099	-0.1108	56.7205	99.9797	
     6	-0.0766	-0.0330	-0.1096	-0.1540	 0.0153	-0.1385	-0.1338	 0.0017	-0.1320	56.5237	99.9794	
     7	-0.1202	-0.0173	-0.1376	-0.1489	-0.0060	-0.1548	-0.1556	 0.0094	-0.1462	56.5654	99.9795	
     8	-0.1212	-0.0321	-0.1533	-0.1741	 0.0029	-0.1711	-0.1556	 0.0094	-0.1462	56.5295	99.9790	
     9	-0.0475	-0.0434	-0.0909	-0.0833	 0.0099	-0.0733	-0.0996	 0.0124	-0.0872	56.4937	99.9813	
    10	-0.0456	-0.0139	-0.0594	-0.0202	-0.0124	-0.0325	-0.0341	-0.0107	-0.0448	56.8152	99.9813	
    11	-0.0174	-0.0391	-0.0565	-0.0454	-0.0035	-0.0488	-0.0341	-0.0107	-0.0448	56.6961	99.9804	
    12	-0.0320	-0.0339	-0.0658	-0.0581	 0.0010	-0.0570	-0.0669	 0.0009	-0.0660	56.6129	99.9809	
    13	-0.0456	-0.0139	-0.0594	-0.0581	 0.0010	-0.0570	-0.0341	-0.0107	-0.0448	56.8152	99.9800	
    14	-0.0737	 0.0113	-0.0624	-0.0581	 0.0010	-0.0570	-0.0341	-0.0107	-0.0448	56.9341	99.9800	
    15	-0.0601	-0.0087	-0.0688	-0.0833	 0.0099	-0.0733	-0.0996	 0.0124	-0.0872	56.6071	99.9806	
    16	-0.0756	-0.0182	-0.0938	-0.1287	 0.0064	-0.1222	-0.1010	-0.0099	-0.1108	56.6846	99.9792	
    17	-0.0620	-0.0382	-0.1002	-0.0908	-0.0070	-0.0977	-0.0669	 0.0009	-0.0660	56.6603	99.9793	
    18	-0.0446	 0.0009	-0.0437	-0.0127	 0.0044	-0.0081	 0.0000	-0.0000	 0.0000	56.9039	99.9809	
    19	 0.0136	-0.0200	-0.0064	 0.0016	 0.0255	 0.0271	 0.0219	-0.0077	 0.0142	56.8209	99.9817	
    20	 0.0000	-0.0000	-0.0000	-0.0000	-0.0000	 0.0001	 0.0000	-0.0000	 0.0000	56.8152	99.9802	
    21	-0.0009	-0.0148	-0.0157	-0.0000	-0.0000	 0.0001	 0.0000	-0.0000	 0.0000	56.7793	99.9807	
    22	 0.0136	-0.0200	-0.0064	 0.0051	-0.0213	-0.0162	 0.0000	-0.0000	 0.0000	56.7377	99.9793	
    23	-0.0009	-0.0148	-0.0157	-0.0127	 0.0044	-0.0081	 0.0205	-0.0300	-0.0095	56.9341	99.9806	
    24	-0.0155	-0.0096	-0.0251	-0.0127	 0.0044	-0.0081	-0.0122	-0.0184	-0.0307	56.8511	99.9815	
    25	-0.0019	-0.0295	-0.0314	-0.0454	-0.0035	-0.0488	-0.0122	-0.0184	-0.0307	56.7736	99.9793	
    26	-0.0301	-0.0043	-0.0344	-0.0581	 0.0010	-0.0570	 0.0205	-0.0300	-0.0095	57.0171	99.9781	
    27	 0.0291	-0.0105	 0.0187	 0.0268	 0.0165	 0.0434	 0.0547	-0.0193	 0.0354	56.9397	99.9813	
    28	 0.0669	-0.0014	 0.0656	 0.0722	 0.0200	 0.0923	 0.0837	-0.0011	 0.0826	56.9039	99.9813	
    29	 0.0669	-0.0014	 0.0656	 0.0722	 0.0200	 0.0923	 0.1093	-0.0386	 0.0707	57.0973	99.9818	
    30	 0.0815	-0.0066	 0.0749	 0.0722	 0.0200	 0.0923	 0.0837	-0.0011	 0.0826	56.8624	99.9811	
    31	 0.0669	-0.0014	 0.0656	 0.0722	 0.0200	 0.0923	 0.0837	-0.0011	 0.0826	56.9039	99.9813	
    32	 0.0592	-0.0061	 0.0530	 0.0394	 0.0121	 0.0516	 0.1093	-0.0386	 0.0707	57.1000	99.9797	
    33	 0.0446	-0.0009	 0.0437	 0.0252	-0.0089	 0.0164	 0.0547	-0.0193	 0.0354	56.9341	99.9789	
    34	 0.0437	-0.0157	 0.0280	-0.0000	-0.0000	 0.0001	 0.0547	-0.0193	 0.0354	56.8982	99.9784	
    35	 0.0146	-0.0052	 0.0093	-0.0000	-0.0000	 0.0001	 0.0424	-0.0377	 0.0046	57.0116	99.9800	
    36	 0.0446	-0.0009	 0.0437	 0.0470	 0.0289	 0.0760	 0.1311	-0.0463	 0.0848	57.2241	99.9810	
    37	 0.0960	-0.0118	 0.0842	 0.1354	-0.0023	 0.1332	 0.1055	-0.0088	 0.0967	56.9039	99.9827	
    38	 0.1028	-0.0218	 0.0810	 0.1026	-0.0102	 0.0924	 0.1055	-0.0088	 0.0967	56.8652	99.9804	
    39	 0.0737	-0.0113	 0.0624	 0.0900	-0.0058	 0.0843	 0.1093	-0.0386	 0.0707	57.0586	99.9813	
    40	 0.0883	-0.0166	 0.0717	 0.0900	-0.0058	 0.0843	 0.1093	-0.0386	 0.0707	57.0171	99.9811	
    41	 0.0592	-0.0061	 0.0530	 0.0647	 0.0031	 0.0679	 0.1298	-0.0686	 0.0612	57.2547	99.9810	
    42	 0.0437	-0.0157	 0.0280	 0.0505	-0.0179	 0.0327	 0.0970	-0.0570	 0.0400	57.1359	99.9802	
    43	 0.0563	-0.0504	 0.0059	 0.0177	-0.0258	-0.0080	 0.0629	-0.0678	-0.0049	56.9701	99.9799	
    44	 0.0127	-0.0348	-0.0221	-0.0024	-0.0382	-0.0405	 0.0615	-0.0901	-0.0285	57.1665	99.9795	
    45	 0.0262	-0.0548	-0.0285	 0.0177	-0.0258	-0.0080	 0.0957	-0.0793	 0.0163	57.1414	99.9802	
    46	 0.0437	-0.0157	 0.0280	 0.1026	-0.0102	 0.0924	 0.1311	-0.0463	 0.0848	57.1882	99.9822	
    47	 0.1174	-0.0270	 0.0904	 0.1606	-0.0112	 0.1495	 0.1639	-0.0579	 0.1060	57.1414	99.9832	
    48	 0.1174	-0.0270	 0.0904	 0.1354	-0.0023	 0.1332	 0.1639	-0.0579	 0.1060	57.1414	99.9824	
    49	 0.1174	-0.0270	 0.0904	 0.1354	-0.0023	 0.1332	 0.1639	-0.0579	 0.1060	57.1414	99.9824	
    50	 0.1028	-0.0218	 0.0810	 0.1279	-0.0192	 0.1088	 0.1516	-0.0763	 0.0753	57.2133	99.9822	
    51	 0.1019	-0.0366	 0.0653	 0.1279	-0.0192	 0.1088	 0.1516	-0.0763	 0.0753	57.1774	99.9826	
    52	 0.0864	-0.0461	 0.0403	 0.0884	-0.0313	 0.0572	 0.1298	-0.0686	 0.0612	57.1000	99.9807	
    53	 0.0709	-0.0556	 0.0152	 0.0809	-0.0481	 0.0328	 0.1175	-0.0871	 0.0305	57.1359	99.9809	
    54	 0.0554	-0.0652	-0.0098	 0.0355	-0.0516	-0.0160	 0.1162	-0.1094	 0.0068	57.2133	99.9795	
    55	 0.0262	-0.0548	-0.0285	 0.0051	-0.0213	-0.0162	 0.0834	-0.0978	-0.0144	57.1719	99.9808	
    56	 0.0709	-0.0556	 0.0152	 0.1136	-0.0402	 0.0736	 0.1516	-0.0763	 0.0753	57.1882	99.9818	
    57	 0.1310	-0.0470	 0.0840	 0.1910	-0.0415	 0.1496	 0.1858	-0.0656	 0.1201	57.1469	99.9829	
    58	 0.1465	-0.0374	 0.1090	 0.1985	-0.0246	 0.1740	 0.2390	-0.1072	 0.1318	57.4200	99.9834	
    59	 0.1465	-0.0374	 0.1090	 0.1606	-0.0112	 0.1495	 0.2063	-0.0956	 0.1106	57.2961	99.9827	
    60	 0.1465	-0.0374	 0.1090	 0.1606	-0.0112	 0.1495	 0.1639	-0.0579	 0.1060	57.0586	99.9828	
    61	 0.1174	-0.0270	 0.0904	 0.1784	-0.0370	 0.1415	 0.1844	-0.0879	 0.0965	57.2961	99.9831	
    62	 0.1019	-0.0366	 0.0653	 0.1279	-0.0192	 0.1088	 0.1516	-0.0763	 0.0753	57.1774	99.9826	
    63	 0.1019	-0.0366	 0.0653	 0.1263	-0.0446	 0.0817	 0.1516	-0.0763	 0.0753	57.1774	99.9809	
    64	 0.0873	-0.0313	 0.0560	 0.1061	-0.0570	 0.0492	 0.1503	-0.0986	 0.0517	57.2907	99.9800	
    65	 0.0845	-0.0756	 0.0088	 0.0607	-0.0605	 0.0003	 0.1162	-0.1094	 0.0068	57.1305	99.9799	
    66	 0.0699	-0.0704	-0.0005	 0.0355	-0.0516	-0.0160	 0.1162	-0.1094	 0.0068	57.1719	99.9792	
    67	 0.0864	-0.0461	 0.0403	 0.1515	-0.0536	 0.0981	 0.2049	-0.1179	 0.0870	57.4613	99.9822	
    68	 0.1300	-0.0618	 0.0683	 0.1531	-0.0281	 0.1251	 0.2049	-0.1179	 0.0870	57.3374	99.9831	
    69	 0.1281	-0.0913	 0.0368	 0.1693	-0.0794	 0.0900	 0.1926	-0.1364	 0.0563	57.2961	99.9828	
    70	 0.1281	-0.0913	 0.0368	 0.1693	-0.0794	 0.0900	 0.1926	-0.1364	 0.0563	57.2961	99.9828	
    71	 0.1145	-0.0713	 0.0432	 0.1263	-0.0446	 0.0817	 0.1721	-0.1064	 0.0658	57.2187	99.9819	
    72	 0.0990	-0.0808	 0.0182	 0.1061	-0.0570	 0.0492	 0.1585	-0.1471	 0.0114	57.3267	99.9825	
    73	 0.0981	-0.0956	 0.0024	 0.0860	-0.0694	 0.0166	 0.1367	-0.1394	-0.0027	57.2079	99.9814	
    74	 0.0680	-0.0999	-0.0319	 0.0785	-0.0863	-0.0077	 0.1367	-0.1394	-0.0027	57.2547	99.9809	
    75	 0.0311	-0.0943	-0.0631	 0.0406	-0.0729	-0.0322	 0.1025	-0.1501	-0.0475	57.2880	99.9818	
    76	 0.0302	-0.1090	-0.0789	 0.0643	-0.1073	-0.0430	 0.1244	-0.1578	-0.0334	57.3347	99.9810	
    77	 0.0825	-0.1052	-0.0226	 0.1491	-0.0918	 0.0575	 0.1708	-0.1287	 0.0421	57.2655	99.9829	
    78	 0.1126	-0.1008	 0.0118	 0.1945	-0.0883	 0.1064	 0.1926	-0.1364	 0.0563	57.3014	99.9843	
    79	 0.1262	-0.1208	 0.0054	 0.1440	-0.0704	 0.0737	 0.2132	-0.1664	 0.0468	57.3787	99.9831	
    80	 0.1262	-0.1208	 0.0054	 0.1491	-0.0918	 0.0575	 0.2132	-0.1664	 0.0468	57.3787	99.9821	
    81	 0.1116	-0.1156	-0.0039	 0.1491	-0.0918	 0.0575	 0.1585	-0.1471	 0.0114	57.2133	99.9834	
    82	 0.1184	-0.1256	-0.0071	 0.1416	-0.1086	 0.0331	 0.1585	-0.1471	 0.0114	57.1746	99.9821	
    83	 0.0893	-0.1152	-0.0258	 0.0785	-0.0863	-0.0077	 0.1572	-0.1694	-0.0122	57.3294	99.9811	
    84	 0.0884	-0.1299	-0.0415	 0.1021	-0.1207	-0.0185	 0.1449	-0.1878	-0.0429	57.3240	99.9818	
    85	 0.0593	-0.1195	-0.0602	 0.0643	-0.1073	-0.0430	 0.1449	-0.1878	-0.0429	57.4068	99.9809	
    86	 0.0302	-0.1090	-0.0789	 0.0390	-0.0984	-0.0593	 0.1449	-0.1878	-0.0429	57.4894	99.9804	
    87	 0.0748	-0.1099	-0.0351	 0.1491	-0.0918	 0.0575	 0.2118	-0.1887	 0.0231	57.5772	99.9839	
    88	 0.1116	-0.1156	-0.0039	 0.2123	-0.1141	 0.0983	 0.2132	-0.1664	 0.0468	57.4200	99.9845	
    89	 0.1184	-0.1256	-0.0071	 0.1618	-0.0962	 0.0656	 0.2118	-0.1887	 0.0231	57.4534	99.9836	
    90	 0.1029	-0.1351	-0.0322	 0.1416	-0.1086	 0.0331	 0.1995	-0.2071	-0.0076	57.4894	99.9834	
    91	 0.0710	-0.1690	-0.0980	 0.1274	-0.1296	-0.0021	 0.1777	-0.1994	-0.0217	57.3814	99.9835	
    92	 0.0555	-0.1785	-0.1231	 0.1021	-0.1207	-0.0185	 0.1995	-0.2071	-0.0076	57.4691	99.9828	
    93	 0.0409	-0.1733	-0.1324	 0.1491	-0.0918	 0.0575	 0.2595	-0.1372	 0.1223	57.4289	99.9832	
    94	 0.1330	-0.1308	 0.0022	 0.1491	-0.0918	 0.0575	 0.1708	-0.1287	 0.0421	57.1027	99.9823	
    95	-0.2714	-0.1671	-0.4385	-0.4129	 0.0027	-0.4101	-0.4765	 0.0545	-0.4220	55.4797	99.9817	
    96	-0.6050	-0.1456	-0.7506	-0.8807	 0.0574	-0.8232	-0.9530	 0.1090	-0.8441	54.7346	99.9795	
    97	-0.9784	-0.1628	-1.1412	-1.3315	 0.0735	-1.2579	-1.3480	 0.1289	-1.2190	54.3028	99.9763	
    98	-0.6795	-0.3758	-1.0552	-0.6504	-0.3884	-1.0387	-0.4111	-0.7088	-1.1199	58.5062	99.9835	
    99	-0.9111	-1.5392	-2.4502	-1.1671	-1.7351	-2.9020	-1.2320	-2.1041	-3.3361	58.6198	99.9832	
   100	-1.9289	-1.9673	-3.8963	-2.2714	-2.1583	-4.4296	-2.2573	-2.5447	-4.8020	58.3145	99.9793	
   101	-2.2249	-1.8234	-4.0483	-2.6357	-2.1011	-4.7368	-2.5418	-2.3588	-4.9006	57.8587	99.9658	
   102	-2.2971	-1.3291	-3.6262	-2.7302	-1.5472	-4.2773	-2.6463	-1.7809	-4.4273	56.9855	99.9668	
   103	-2.9114	-0.9275	-3.8389	-3.3047	-1.0319	-4.3364	-3.3875	-1.1205	-4.5080	54.9230	99.9730	
   104	-3.2421	-0.9751	-4.2172	-3.5718	-0.8659	-4.4376	-3.6026	-0.9876	-4.5902	54.4184	99.9809	
   105	-2.8548	-1.3180	-4.1728	-3.2250	-1.2032	-4.4281	-3.2672	-1.3452	-4.6124	54.8959	99.9808	
   106	-2.3472	-1.6435	-3.9908	-2.7720	-1.5975	-4.3694	-2.7853	-1.7717	-4.5570	55.8238	99.9773	
   107	-2.1832	-1.7552	-3.9385	-2.6323	-1.6338	-4.2660	-2.6106	-1.6512	-4.2618	55.2516	99.9713	
   108	-1.9607	-1.1929	-3.1537	-2.2214	-0.8420	-3.0632	-1.9905	-0.5323	-2.5228	54.1459	99.9622	
   109	-1.5533	-0.3041	-1.8574	-1.7290	 0.0122	-1.7167	-1.5992	 0.2177	-1.3815	54.1312	99.9729	
   110	-1.9480	-0.3061	-2.2541	-2.1242	-0.0109	-2.1350	-1.9079	 0.2812	-1.6266	53.8749	99.9647	
   111	-1.5940	-0.3575	-1.9515	-1.7753	-0.2122	-1.9874	-1.6903	-0.3650	-2.0553	55.7905	99.9823	
   112	-1.8157	-0.7917	-2.6074	-2.0875	-0.8697	-2.9572	-1.8728	-0.9838	-2.8566	56.7424	99.9663	
   113	-1.7746	-1.0784	-2.8530	-2.2286	-1.1648	-3.3933	-1.8059	-0.9847	-2.7906	56.0941	99.9288	
   114	-1.8294	-0.6584	-2.4877	-2.1778	-0.5581	-2.7357	-1.4690	-0.1187	-1.5876	55.2571	99.9081	
   115	-1.7179	-0.5472	-2.2652	-2.0092	-0.4419	-2.4510	-1.2619	 0.0758	-1.1861	55.2215	99.9026	
   116	-1.6733	-0.5481	-2.2215	-1.7897	-0.4414	-2.2310	-1.0090	 0.1060	-0.9030	55.6940	99.9081	
   117	-1.4794	-0.5421	-2.0215	-1.5299	-0.4160	-1.9459	-0.7933	 0.1664	-0.6269	55.6967	99.9131	
   118	-1.5317	-0.5460	-2.0778	-1.6712	-0.4052	-2.0763	-0.8917	 0.2012	-0.6905	55.4206	99.9042	
   119	-1.4126	-0.4301	-1.8427	-1.4623	-0.2642	-1.7265	-0.6781	 0.4104	-0.2677	55.3503	99.9052	
   120	-1.2477	-0.4137	-1.6614	-1.2894	-0.1822	-1.4715	-0.3813	 0.5219	 0.1406	55.4790	99.8993	
   121	-1.0664	-0.3730	-1.4394	-1.0245	-0.1782	-1.2026	-0.1212	 0.5781	 0.4568	55.7161	99.8973	
   122	-0.9733	-0.4290	-1.4023	-0.9590	-0.1623	-1.1211	 0.0003	 0.5579	 0.5582	55.7771	99.9002	
   123	-0.9199	-0.4104	-1.3303	-0.8918	-0.1209	-1.0127	 0.0586	 0.6910	 0.7496	55.4467	99.8954	
   124	-0.8384	-0.5303	-1.3687	-0.4258	-0.4092	-0.8349	 0.8501	 0.3089	 1.1590	58.1610	99.8910	
   125	-0.1933	-0.6861	-0.8794	 0.1449	-0.5718	-0.4268	 1.2311	 0.1515	 1.3826	58.0526	99.8985	
   126	-0.5089	-1.1924	-1.7013	-0.4475	-1.1694	-1.6168	 0.5312	-0.5350	-0.0038	57.9004	99.8900	
   127	-0.8624	-1.7077	-2.5701	-0.6677	-1.6968	-2.3643	 0.4515	-1.2072	-0.7557	59.2725	99.8997	
   128	-1.1580	-1.9039	-3.0619	-0.9303	-1.8708	-2.8010	 0.1740	-1.2743	-1.1002	58.8637	99.8948	
   129	-0.8713	-1.5005	-2.3719	-0.6912	-1.4542	-2.1453	 0.4785	-0.7612	-0.2827	58.4061	99.8795	
   130	-0.2075	-1.0210	-1.2285	 0.1270	-0.9624	-0.8353	 1.2666	-0.2767	 0.9899	58.7223	99.8933	
   131	-0.2503	-0.8772	-1.1275	 0.0327	-0.7144	-0.6815	 1.1365	 0.1564	 1.2930	57.4518	99.8841	
   132	-0.6125	-0.3771	-0.9897	-0.5106	-0.2166	-0.7270	 0.3718	 0.4267	 0.7984	56.5812	99.9092	
   133	-1.0479	-0.4325	-1.4804	-1.0080	-0.3271	-1.3350	-0.1385	 0.3849	 0.2464	56.1120	99.8967	
   134	-1.1392	-0.3469	-1.4861	-1.0723	-0.2198	-1.2920	-0.0874	 0.4921	 0.4047	56.2751	99.8919	
   135	-1.0006	-0.2757	-1.2763	-0.9590	-0.1623	-1.1211	 0.0549	 0.5386	 0.5935	56.3970	99.8883	
   136	-0.8163	-0.3040	-1.1203	-0.7806	-0.1993	-0.9797	 0.2590	 0.5918	 0.8508	56.3263	99.8768	
   137	-0.6979	-0.3163	-1.0142	-0.6065	-0.2022	-0.8086	 0.4508	 0.6265	 1.0773	56.4444	99.8762	
   138	-0.6407	-0.3519	-0.9926	-0.5307	-0.2290	-0.7596	 0.5781	 0.6100	 1.1881	56.6205	99.8732	
   139	-0.5796	-0.3285	-0.9081	-0.4652	-0.2131	-0.6782	 0.7068	 0.6157	 1.3226	56.8627	99.8690	
   140	-0.4730	-0.2912	-0.7642	-0.3779	-0.1593	-0.5371	 0.7675	 0.6968	 1.4643	56.6503	99.8685	
   141	-0.4545	-0.3507	-0.8052	-0.3566	-0.2319	-0.5884	 0.7871	 0.5589	 1.3460	56.9585	99.8740	
   142	-0.6386	-0.5491	-1.1876	-0.5695	-0.4365	-1.0059	 0.6231	 0.3379	 0.9609	57.1172	99.8692	
   143	-0.8391	-0.7718	-1.6109	-0.7547	-0.6118	-1.3665	 0.5269	 0.2238	 0.7507	57.0728	99.8610	
   144	-0.9729	-0.7691	-1.7420	-0.7448	-0.5568	-1.3015	 0.5343	 0.3465	 0.8808	56.9513	99.8688	
   145	-1.1301	-0.6674	-1.7975	-0.8916	-0.4268	-1.3183	 0.4229	 0.5339	 0.9567	56.6175	99.8636	
   146	-1.0741	-0.4911	-1.5652	-0.8426	-0.2620	-1.1044	 0.5272	 0.7817	 1.3089	56.4125	99.8495	
   147	-0.8812	-0.3865	-1.2677	-0.5082	-0.1784	-0.6865	 0.9469	 0.8953	 1.8422	56.9703	99.8476	
   148	-0.4003	-0.2039	-0.6043	 0.0682	-0.0437	 0.0247	 1.5326	 0.9845	 2.5170	57.6621	99.8542	
   149	 0.0388	 0.0239	 0.0626	 0.4836	 0.2000	 0.6837	 1.8857	 1.1956	 3.0813	57.6057	99.8624	
   150	 0.3227	 0.2695	 0.5922	 0.7190	 0.4552	 1.1744	 2.1340	 1.4268	 3.5608	57.5542	99.8617	
   151	 0.4973	 0.2069	 0.7042	 0.8220	 0.3472	 1.1694	 2.1525	 1.3633	 3.5158	57.3428	99.8548	
   152	 0.3889	 0.0267	 0.4156	 0.7963	 0.2457	 1.0421	 2.2601	 1.2057	 3.4658	57.8484	99.8624	
   153	 0.3919	-0.0423	 0.3495	 0.7524	 0.0595	 0.8120	 2.1449	 0.9617	 3.1066	58.1686	99.8602	
   154	 0.3143	-0.0901	 0.2242	 0.6864	-0.0668	 0.6197	 2.0304	 0.7289	 2.7593	58.6517	99.8685	
   155	 0.1749	-0.2894	-0.1145	 0.4948	-0.3440	 0.1509	 1.9232	 0.3397	 2.2629	59.3983	99.8627	
   156	 0.1372	-0.4118	-0.2747	 0.4923	-0.5904	-0.0980	 2.0678	 0.0552	 2.1230	60.4099	99.8459	
   157	 0.1382	-0.5104	-0.3722	 0.5163	-0.7225	-0.2061	 2.2000	-0.0655	 2.1344	60.8569	99.8340	
   158	 0.2420	-0.5174	-0.2754	 0.6426	-0.7672	-0.1245	 2.3433	-0.0934	 2.2499	61.0793	99.8287	
   159	 0.2140	-0.6055	-0.3916	 0.5454	-0.8760	-0.3305	 2.2400	-0.2334	 2.0066	61.1291	99.8252	
   160	-0.0237	-0.5959	-0.6195	 0.2928	-0.7867	-0.4938	 1.9948	-0.0443	 1.9505	60.3881	99.8201	
   161	-0.0431	-0.5511	-0.5942	 0.2246	-0.7431	-0.5184	 1.9221	-0.0471	 1.8750	60.3725	99.8219	
   162	-0.1847	-0.5532	-0.7379	 0.1413	-0.7332	-0.5918	 1.8893	-0.0355	 1.8538	60.4953	99.8230	
   163	-0.1905	-0.5285	-0.7190	 0.1160	-0.7243	-0.6081	 1.8675	-0.0278	 1.8397	60.4907	99.8198	
   164	-0.2633	-0.5024	-0.7657	 0.0580	-0.7233	-0.6652	 1.8101	-0.0531	 1.7571	60.6278	99.8214	
   165	-0.2468	-0.4781	-0.7249	 0.1235	-0.7074	-0.5838	 1.8965	-0.0096	 1.8869	60.7155	99.8194	
   166	-0.1576	-0.4798	-0.6374	 0.2463	-0.7052	-0.4588	 2.0726	-0.0490	 2.0236	61.0860	99.8225	
   167	-0.0576	-0.5459	-0.6036	 0.3600	-0.7454	-0.3853	 2.2256	-0.1031	 2.1225	61.2756	99.8241	
   168	-0.0004	-0.5816	-0.5819	 0.5494	-0.8123	-0.2628	 2.4222	-0.1725	 2.2497	61.7546	99.8307	
   169	 0.0763	-0.6619	-0.5856	 0.6086	-0.8983	-0.2896	 2.4684	-0.2401	 2.2283	61.7523	99.8278	
   170	 0.0918	-0.6524	-0.5606	 0.6303	-0.8604	-0.2300	 2.5206	-0.2073	 2.3133	61.7603	99.8290	
   171	 0.1964	-0.5313	-0.3348	 0.7981	-0.7570	 0.0412	 2.7171	-0.0945	 2.6226	61.9543	99.8288	
   172	 0.4940	-0.4189	 0.0751	 1.0947	-0.6601	 0.4347	 3.0280	-0.0279	 3.0001	62.2094	99.8295	
   173	 0.7122	-0.3839	 0.3283	 1.3157	-0.6341	 0.6817	 3.1781	 0.0558	 3.2339	62.0022	99.8286	
   174	 0.8576	-0.3227	 0.5349	 1.4551	-0.5727	 0.8825	 3.2934	 0.1175	 3.4109	61.9693	99.8303	
   175	 1.0312	-0.2867	 0.7444	 1.6383	-0.5333	 1.1051	 3.4620	 0.1376	 3.5997	62.0785	99.8347	
   176	 1.2950	-0.3512	 0.9439	 1.8995	-0.6907	 1.2090	 3.6820	-0.0995	 3.5825	62.7323	99.8377	
   177	 1.2792	-1.0556	 0.2236	 1.7661	-1.4830	 0.2832	 3.4325	-0.9964	 2.4361	63.3960	99.8406	
   178	 1.2120	-1.7491	-0.5371	 1.8052	-2.0955	-0.2901	 3.4810	-1.5772	 1.9038	63.7933	99.8507	
   179	 1.4798	-1.8678	-0.3880	 1.9891	-2.2515	-0.2623	 3.5006	-1.7151	 1.7855	63.5629	99.8525	
   180	 0.7862	-1.6569	-0.8707	 1.0976	-1.7478	-0.6501	 2.4684	-0.7013	 1.7671	59.6294	99.8219	
   181	 0.2073	-0.7089	-0.5016	 0.9861	-0.6413	 0.3450	 2.8988	 0.2342	 3.1329	60.8763	99.8467	
   182	 0.3505	-0.4506	-0.1000	 1.0762	-0.4388	 0.6375	 2.8255	 0.4992	 3.3247	60.2648	99.8448	
   183	 0.6994	-0.1224	 0.5769	 1.4016	-0.1894	 1.2123	 3.1644	 0.6585	 3.8228	60.7185	99.8448	
   184	 0.7733	-0.3604	 0.4128	 1.3680	-0.4183	 0.9498	 3.1714	 0.4055	 3.5768	60.8406	99.8368	
   185	 0.7454	-0.5620	 0.1834	 1.4334	-0.6106	 0.8229	 3.2217	 0.2226	 3.4442	61.0921	99.8443	
   186	 0.7503	-0.6015	 0.1488	 1.4511	-0.6364	 0.8149	 3.3077	 0.1694	 3.4771	61.3452	99.8438	
   187	 0.8366	-0.6476	 0.1891	 1.5356	-0.7313	 0.8044	 3.4051	 0.0268	 3.4319	61.7558	99.8430	
   188	 0.8832	-0.7323	 0.1510	 1.6480	-0.8946	 0.7534	 3.5548	-0.2652	 3.2896	62.7245	99.8508	
   189	 0.8979	-0.8508	 0.0471	 1.6467	-1.0178	 0.6290	 3.5583	-0.3917	 3.1666	62.8257	99.8491	
   190	 0.9163	-0.7970	 0.1193	 1.6744	-0.9885	 0.6859	 3.5426	-0.2837	 3.2589	62.5486	99.8428	
   191	 0.8448	-1.0962	-0.2514	 1.5661	-1.2756	 0.2905	 3.5451	-0.5180	 3.0271	62.6931	99.8257	
   192	 0.4966	-1.9911	-1.4946	 1.5653	-2.0107	-0.4453	 3.6619	-1.0774	 2.5845	63.1157	99.8362	
   193	 1.4618	-2.2618	-0.8000	 2.8611	-2.2408	 0.6205	 5.2576	-1.4476	 3.8100	65.4178	99.8533	
   194	 2.3846	-2.8420	-0.4574	 3.4991	-2.8761	 0.6231	 5.5161	-2.1539	 3.3622	65.4130	99.8648	
   195	 2.8098	-3.2891	-0.4793	 3.6650	-3.4228	 0.2423	 5.4877	-2.9011	 2.5866	66.0355	99.8731	
   196	 2.3323	-3.8809	-1.5486	 2.8830	-4.1616	-1.2785	 4.4264	-3.7503	 0.6761	65.9027	99.8720	
   197	 1.1051	-4.4379	-3.3328	 1.3261	-4.8024	-3.4761	 2.7339	-4.4278	-1.6938	65.0865	99.8557	
   198	-0.2722	-4.3216	-4.5938	-0.1545	-4.6371	-4.7915	 1.1949	-4.0434	-2.8485	62.8905	99.8335	
   199	-1.2380	-3.3709	-4.6089	-0.8676	-3.4482	-4.3156	 0.7075	-2.6015	-1.8940	60.9864	99.8299	
   200	-0.5248	-2.8184	-3.3432	-0.0559	-3.2664	-3.3222	 1.8130	-2.9579	-1.1450	64.8778	99.8368	
   201	 0.9950	-2.9178	-1.9228	 1.5258	-3.4674	-1.9415	 3.3362	-3.2342	 0.1020	66.4137	99.8448	
   202	 1.1484	-3.0785	-1.9302	 1.6355	-3.5712	-1.9356	 3.4031	-3.2350	 0.1680	65.9039	99.8391	
   203	 1.4797	-2.7894	-1.3097	 2.0490	-3.2553	-1.2062	 3.8080	-2.9055	 0.9025	65.8663	99.8474	
   204	 1.6842	-2.6210	-0.9368	 2.2713	-3.1061	-0.8347	 4.0297	-2.7447	 1.2850	65.9018	99.8459	
   205	 1.8228	-2.5499	-0.7271	 2.3988	-3.0275	-0.6285	 4.1700	-2.7316	 1.4384	66.1173	99.8519	
   206	 1.7841	-2.5737	-0.7897	 2.3988	-3.0275	-0.6285	 4.1792	-2.6722	 1.5069	65.9369	99.8498	
   207	 1.7841	-2.5737	-0.7897	 2.4292	-3.0577	-0.6284	 4.1946	-2.6948	 1.4998	66.0444	99.8496	
   208	 1.6659	-2.7882	-1.1223	 2.2819	-3.2464	-0.9645	 4.0531	-2.9124	 1.1407	66.1173	99.8522	
   209	 1.0924	-3.3682	-2.2758	 1.6832	-3.7377	-2.0544	 3.4020	-3.1606	 0.2414	65.0014	99.8357	
   210	 0.2178	-3.5380	-3.3202	 0.7694	-3.5905	-2.8210	 2.6750	-2.7273	-0.0523	62.9798	99.8154	
   211	 0.7372	-3.1048	-2.3676	 1.8291	-3.1581	-1.3288	 4.1023	-2.5597	 1.5426	65.6864	99.8540	
   212	 1.7073	-3.4150	-1.7077	 2.6599	-3.6012	-0.9413	 4.6352	-3.1579	 1.4773	66.4929	99.8711	
   213	 1.9997	-3.9580	-1.9583	 2.7819	-4.1259	-1.3439	 4.6080	-3.7006	 0.9074	66.4314	99.8739	
   214	 1.8749	-4.2758	-2.4009	 2.5362	-4.5466	-2.0104	 4.1557	-4.1671	-0.0114	66.4446	99.8771	
   215	 1.0743	-4.6837	-3.6094	 1.3876	-5.0583	-3.6707	 2.8277	-4.7228	-1.8951	65.7216	99.8625	
   216	 0.0684	-4.4664	-4.3981	 0.3389	-4.7984	-4.4595	 1.7873	-4.3040	-2.5167	64.1867	99.8460	
   217	-0.4379	-3.4312	-3.8691	-0.0280	-3.5431	-3.5710	 1.6012	-2.7692	-1.1680	62.0769	99.8330	
   218	-0.8160	-2.6007	-3.4166	-0.4318	-2.7757	-3.2074	 1.1810	-2.3361	-1.1550	62.4094	99.8636	
   219	-0.2105	-2.9085	-3.1190	 0.1296	-3.3970	-3.2673	 1.7277	-3.0758	-1.3481	64.3462	99.8449	
   220	 0.1167	-3.2600	-3.1433	 0.4780	-3.7088	-3.2307	 2.1658	-3.3046	-1.1388	64.6522	99.8327	
   221	 0.5346	-3.2437	-2.7090	 0.9667	-3.7383	-2.7715	 2.6738	-3.3930	-0.7192	65.4281	99.8386	
   222	 0.8711	-3.2208	-2.3497	 1.3551	-3.7194	-2.3642	 3.1086	-3.3986	-0.2900	65.9046	99.8410	
   223	 1.1823	-3.1285	-1.9461	 1.7543	-3.6327	-1.8783	 3.5199	-3.3332	 0.1866	66.3028	99.8484	
   224	 1.4073	-3.1034	-1.6961	 1.9853	-3.5516	-1.5662	 3.7782	-3.2138	 0.5644	66.1552	99.8477	
   225	 1.4356	-3.2420	-1.8064	 2.0195	-3.7264	-1.7068	 3.7480	-3.4366	 0.3114	66.4473	99.8550	
   226	 0.7901	-3.6677	-2.8776	 1.2785	-3.9136	-2.6350	 2.9694	-3.0249	-0.0554	63.3485	99.8058	
   227	 0.6189	-3.0926	-2.4737	 1.4052	-3.1254	-1.7201	 3.6544	-2.4014	 1.2529	64.4682	99.8222	
   228	 1.6916	-3.1978	-1.5062	 2.8628	-3.4517	-0.5888	 5.0048	-3.0437	 1.9611	67.4189	99.8708	
   229	 1.9048	-4.0448	-2.1400	 2.7601	-4.3720	-1.6118	 4.6078	-3.9795	 0.6283	67.2872	99.8666	
   230	 2.0868	-4.6842	-2.5974	 2.7649	-5.0179	-2.2529	 4.3646	-4.6794	-0.3147	67.2445	99.8779	
   231	 1.7487	-5.0766	-3.3280	 2.2112	-5.4079	-3.1966	 3.7208	-5.0839	-1.3631	66.7906	99.8717	
   232	 1.2724	-4.9587	-3.6863	 1.6030	-5.3297	-3.7266	 3.1114	-4.9198	-1.8084	65.9815	99.8501	
   233	 0.8129	-4.1216	-3.3087	 1.1456	-4.3872	-3.2415	 2.5661	-3.6966	-1.1305	63.5134	99.8381	
   234	 0.0543	-2.9581	-2.9038	 0.3429	-3.0820	-2.7389	 1.9116	-2.4348	-0.5232	62.0306	99.8427	
   235	-0.1638	-3.1065	-3.2703	 0.2219	-3.5728	-3.3508	 1.9497	-3.2795	-1.3298	64.9453	99.8421	
   236	 0.6165	-3.7037	-3.0871	 0.9976	-4.1722	-3.1745	 2.7300	-3.7545	-1.0245	65.4647	99.8260	
   237	 0.9975	-3.5683	-2.5708	 1.4462	-4.0184	-2.5721	 3.1460	-3.6111	-0.4651	65.6124	99.8374	
   238	 1.2321	-3.3956	-2.1635	 1.6152	-3.7918	-2.1764	 3.3151	-3.3975	-0.0824	65.3208	99.8395	
   239	 1.3375	-3.1464	-1.8088	 1.8045	-3.5528	-1.7482	 3.5378	-3.1289	 0.4089	65.3599	99.8391	
   240	 1.5042	-2.9871	-1.4829	 1.9502	-3.3895	-1.4392	 3.6971	-2.9859	 0.7112	65.3606	99.8392	
   241	 1.5517	-2.9437	-1.3920	 2.0746	-3.3619	-1.2872	 3.8439	-2.9580	 0.8858	65.6141	99.8416	
   242	 1.7117	-3.0011	-1.2893	 2.3145	-3.4467	-1.1321	 4.1484	-3.0884	 1.0600	66.2960	99.8443	
   243	 1.7808	-3.1996	-1.4188	 2.4001	-3.6266	-1.2264	 4.2028	-3.2044	 0.9984	66.1879	99.8426	
   244	 1.3670	-3.4969	-2.1299	 1.9524	-3.7677	-1.8153	 3.7364	-2.9827	 0.7537	64.3681	99.8154	
   245	 1.2378	-3.3070	-2.0692	 2.1922	-3.3384	-1.1461	 4.5048	-2.6393	 1.8655	65.5142	99.8321	
   246	 2.5441	-3.2543	-0.7102	 3.8229	-3.3745	 0.4486	 6.1679	-2.8169	 3.3510	67.5806	99.8590	
   247	 3.1160	-3.9655	-0.8495	 4.0143	-4.2360	-0.2216	 5.9744	-3.8930	 2.0814	68.1366	99.8706	
   248	 2.7156	-5.0910	-2.3754	 3.3374	-5.4609	-2.1234	 4.8118	-5.1277	-0.3160	67.6883	99.8805	
   249	 2.1313	-5.6067	-3.4754	 2.5386	-5.9530	-3.4143	 3.9431	-5.6521	-1.7090	67.2429	99.8765	
   250	 1.3884	-5.5820	-4.1936	 1.6050	-5.9160	-4.3109	 2.9303	-5.5163	-2.5860	65.8341	99.8607	
   251	 0.6410	-4.9362	-4.2952	 0.7607	-5.1752	-4.4145	 2.1759	-4.5210	-2.3451	63.6294	99.8276	
   252	 0.0355	-3.5935	-3.5580	 0.4398	-3.5977	-3.1578	 2.1456	-2.7167	-0.5711	61.9366	99.8243	
   253	 0.1377	-2.9351	-2.7974	 0.5869	-3.1031	-2.5161	 2.4814	-2.6987	-0.2173	64.0948	99.8491	
   254	 1.0342	-3.3473	-2.3131	 1.6152	-3.7918	-2.1764	 3.5415	-3.4377	 0.1038	66.3714	99.8348	
   255	 1.3699	-3.5659	-2.1960	 1.9361	-3.9247	-1.9885	 3.8466	-3.3746	 0.4719	65.7221	99.8210	
   256	 1.7972	-3.1753	-1.3780	 2.3998	-3.5289	-1.1290	 4.2952	-3.0606	 1.2346	65.9357	99.8356	
   257	 1.9949	-2.9969	-1.0020	 2.6027	-3.3793	-0.7765	 4.4886	-2.9068	 1.5818	65.9708	99.8338	
   258	 2.1897	-2.8628	-0.6731	 2.7974	-3.2594	-0.4619	 4.7250	-2.7797	 1.9453	66.0761	99.8283	
   259	 2.2808	-2.8350	-0.5542	 2.9068	-3.2655	-0.3586	 4.8234	-2.8144	 2.0089	66.3242	99.8305	
   260	 2.1908	-2.9614	-0.7706	 2.7733	-3.3355	-0.5621	 4.6298	-2.7859	 1.8439	65.6510	99.8266	
   261	 1.4826	-2.7451	-1.2625	 2.0698	-2.7160	-0.6461	 4.0562	-1.5697	 2.4864	62.1560	99.7876	
   262	 2.0818	-2.5748	-0.4930	 3.8611	-2.7633	 1.0980	 6.4777	-2.2146	 4.2631	68.5263	99.8672	
   263	 3.4142	-3.4983	-0.0841	 4.6111	-3.6724	 0.9387	 7.1520	-3.3354	 3.8166	69.2953	99.8551	
   264	 3.8449	-4.5518	-0.7069	 4.6601	-4.9522	-0.2919	 6.3570	-4.6716	 1.6854	68.9518	99.8793	
   265	 3.4296	-5.3320	-1.9024	 4.0917	-5.6819	-1.5901	 5.5438	-5.3863	 0.1574	68.3672	99.8895	
   266	 2.9963	-5.5845	-2.5882	 3.4611	-5.9601	-2.4989	 4.7685	-5.6590	-0.8906	67.7141	99.8850	
   267	 2.3572	-5.5668	-3.2096	 2.4841	-5.9989	-3.5147	 3.7738	-5.6834	-1.9096	66.7370	99.8570	
   268	 1.7553	-4.8599	-3.1047	 1.8755	-5.1006	-3.2250	 3.4445	-4.3030	-0.8585	64.0733	99.7962	
   269	 1.5810	-3.1808	-1.5998	 2.0174	-3.1400	-1.1225	 3.8184	-2.1804	 1.6380	62.3753	99.8148	
   270	 0.9547	-2.3896	-1.4349	 1.5789	-2.3083	-0.7293	 3.5208	-1.3806	 2.1402	62.0980	99.8261	
   271	 1.2485	-2.3363	-1.0879	 1.9357	-2.3823	-0.4465	 3.8445	-1.5633	 2.2813	63.0333	99.8333	
   272	 1.4841	-2.2622	-0.7781	 2.1659	-2.3140	-0.1480	 4.0725	-1.4844	 2.5881	63.0741	99.8315	
   273	 1.8535	-2.1907	-0.3372	 2.4470	-2.3612	 0.0858	 4.3334	-1.5993	 2.7340	63.5867	99.8226	
   274	 2.3461	-2.1710	 0.1751	 2.8811	-2.4365	 0.4447	 4.6420	-1.6628	 2.9791	63.7187	99.8180	
   275	 2.6303	-2.1520	 0.4782	 3.1796	-2.4118	 0.7678	 4.9266	-1.5698	 3.3568	63.6222	99.8130	
   276	 2.7611	-2.0857	 0.6755	 3.3431	-2.2744	 1.0688	 5.2453	-1.4660	 3.7792	63.9176	99.8134	
   277	 2.7524	-2.1052	 0.6472	 3.3407	-2.3126	 1.0282	 5.2149	-1.5066	 3.7084	63.9498	99.8146	
   278	 2.7224	-2.1095	 0.6128	 3.4011	-2.2754	 1.1258	 5.3316	-1.4225	 3.9091	63.9615	99.8156	
   279	 2.8164	-2.0375	 0.7789	 3.5346	-2.2054	 1.3293	 5.4630	-1.3721	 4.0908	64.1026	99.8210	
   280	 2.8309	-2.0427	 0.7882	 3.5168	-2.1796	 1.3373	 5.4933	-1.3316	 4.1617	64.0021	99.8158	
   281	 2.8251	-2.0179	 0.8071	 3.5571	-2.1548	 1.4024	 5.5674	-1.3065	 4.2608	64.1438	99.8164	
   282	 2.9385	-1.9906	 0.9479	 3.6653	-2.0759	 1.5895	 5.6912	-1.1966	 4.4947	63.9441	99.8164	
   283	 3.0316	-1.9334	 1.0982	 3.7988	-2.0059	 1.7930	 5.8697	-1.1059	 4.7638	64.0202	99.8147	
   284	 3.0412	-1.8990	 1.1422	 3.8584	-1.9814	 1.8771	 5.9328	-1.0769	 4.8558	64.1251	99.8168	
   285	 3.0276	-1.8791	 1.1486	 3.8482	-1.9388	 1.9095	 5.9304	-1.0248	 4.9055	64.0252	99.8176	
   286	 3.0373	-1.8448	 1.1925	 3.8884	-1.9140	 1.9746	 5.9351	-0.9468	 4.9883	63.8578	99.8160	
   287	 3.0188	-1.7852	 1.2336	 3.8798	-1.8458	 2.0340	 5.9763	-0.9101	 5.0662	63.9959	99.8170	
   288	 3.0731	-1.7518	 1.3213	 3.9730	-1.8007	 2.1724	 6.0937	-0.8149	 5.2788	63.9354	99.8135	
   289	 3.1584	-1.6993	 1.4591	 4.0626	-1.7087	 2.3540	 6.2110	-0.7197	 5.4913	63.8735	99.8152	
   290	 3.1651	-1.5960	 1.5691	 4.1373	-1.6505	 2.4869	 6.2956	-0.6130	 5.6826	63.9462	99.8096	
   291	 3.1795	-1.4878	 1.6917	 4.1705	-1.5321	 2.6385	 6.4058	-0.5437	 5.8621	64.1846	99.8113	
   292	 3.2211	-1.4197	 1.8015	 4.2325	-1.4694	 2.7632	 6.4672	-0.4515	 6.0157	64.1208	99.8091	
   293	 3.2628	-1.3515	 1.9113	 4.2566	-1.3933	 2.8634	 6.5651	-0.4007	 6.1644	64.2569	99.8052	
   294	 3.2753	-1.2729	 2.0024	 4.3060	-1.3262	 2.9799	 6.6555	-0.2903	 6.3652	64.2621	99.7985	
   295	 3.4158	-1.1722	 2.2436	 4.5200	-1.2066	 3.3135	 6.8772	-0.1295	 6.7477	64.2369	99.8009	
   296	 3.5632	-1.0815	 2.4816	 4.6575	-1.0729	 3.5846	 7.0242	-0.0049	 7.0193	64.1418	99.8050	
   297	 3.6649	-1.0047	 2.6602	 4.7337	-0.9892	 3.7445	 7.0972	 0.0945	 7.1918	64.0119	99.8024	
   298	 3.7143	-0.9318	 2.7825	 4.8134	-0.9524	 3.8612	 7.1463	 0.1683	 7.3146	63.9805	99.7995	
   299	 3.7569	-0.8488	 2.9081	 4.8206	-0.8378	 3.9830	 7.2193	 0.2678	 7.4871	63.9513	99.7963	
   300	 3.7762	-0.7802	 2.9960	 4.8945	-0.7923	 4.1023	 7.1939	 0.4020	 7.5959	63.6257	99.7965	
   301	 3.8867	-0.6839	 3.2028	 5.0066	-0.6497	 4.3570	 7.4201	 0.5441	 7.9643	63.7028	99.7919	
   302	 4.0185	-0.6027	 3.4158	 5.1559	-0.5333	 4.6228	 7.5248	 0.7064	 8.2312	63.4161	99.7956	
   303	 4.0669	-0.5445	 3.5224	 5.2061	-0.4534	 4.7528	 7.6343	 0.7645	 8.3989	63.5187	99.7955	
   304	 4.0999	-0.4959	 3.6039	 5.2042	-0.3811	 4.8231	 7.6711	 0.8198	 8.4910	63.4881	99.7940	
   305	 4.1192	-0.4273	 3.6919	 5.2922	-0.3146	 4.9777	 7.7448	 0.9305	 8.6753	63.4305	99.7954	
   306	 4.1482	-0.3244	 3.8238	 5.3424	-0.2347	 5.1078	 7.8184	 1.0411	 8.8595	63.4356	99.7892	
   307	 4.1976	-0.2514	 3.9461	 5.3579	-0.0905	 5.2674	 7.8921	 1.1517	 9.0438	63.3448	99.7930	
   308	 4.3226	-0.1603	 4.1623	 5.4886	 0.0390	 5.5277	 8.0886	 1.2645	 9.3531	63.4179	99.7938	
   309	 4.4079	-0.1078	 4.3001	 5.5471	 0.1484	 5.6956	 8.1493	 1.3456	 9.4949	63.2923	99.8007	
   310	 4.3952	-0.0730	 4.3222	 5.6102	 0.1261	 5.7365	 8.1930	 1.3301	 9.5231	63.5167	99.8017	
   311	 4.3962	-0.0583	 4.3379	 5.5882	 0.1860	 5.7743	 8.2117	 1.3633	 9.5751	63.4871	99.8040	
   312	 4.3699	-0.0035	 4.3664	 5.5957	 0.2029	 5.7986	 8.1997	 1.4416	 9.6413	63.3941	99.7976	
   313	 4.3796	 0.0308	 4.4104	 5.5862	 0.2583	 5.8446	 8.2236	 1.4673	 9.6910	63.4269	99.7989	
   314	 4.3679	 0.0803	 4.4482	 5.5488	 0.3821	 5.9310	 8.2246	 1.5752	 9.7997	63.2409	99.8029	
   315	 4.4532	 0.1328	 4.5860	 5.6562	 0.4483	 6.1046	 8.3593	 1.6813	10.0406	63.1863	99.7993	
   316	 4.4861	 0.1814	 4.6675	 5.7099	 0.4814	 6.1914	 8.4269	 1.6916	10.1185	63.3458	99.8008	
   317	 4.4725	 0.2014	 4.6739	 5.6862	 0.5157	 6.2021	 8.3910	 1.7441	10.1351	63.1882	99.8005	
   318	 4.4589	 0.2214	 4.6803	 5.6862	 0.5157	 6.2021	 8.3910	 1.7441	10.1351	63.2512	99.7996	
   319	 4.4444	 0.2266	 4.6710	 5.6389	 0.5845	 6.2235	 8.3114	 1.8121	10.1235	62.9340	99.8062	
   320	 4.4162	 0.2518	 4.6680	 5.6010	 0.5979	 6.1990	 8.3114	 1.8121	10.1235	63.0293	99.8026	
   321	 4.3231	 0.3079	 4.6310	 5.5994	 0.5724	 6.1720	 8.2260	 1.8764	10.1025	62.9347	99.7987	
   322	 4.3677	 0.3070	 4.6747	 5.6152	 0.6189	 6.2343	 8.2807	 1.8571	10.1378	63.0299	99.8052	
   323	 4.3231	 0.3079	 4.6310	 5.5758	 0.6068	 6.1827	 8.2022	 1.8507	10.0529	62.9628	99.8070	
   324	 4.2853	 0.2988	 4.5840	 5.4731	 0.6171	 6.0903	 8.1475	 1.8700	10.0175	62.8358	99.7989	
   325	 4.2407	 0.2997	 4.5403	 5.4479	 0.6260	 6.0740	 8.1288	 1.8368	 9.9656	62.9615	99.8053	
   326	 4.1980	 0.3301	 4.5281	 5.3863	 0.6738	 6.0602	 8.0383	 1.9086	 9.9469	62.7066	99.8054	
   327	 4.1203	 0.3957	 4.5160	 5.3358	 0.6916	 6.0275	 7.9529	 1.9729	 9.9258	62.6102	99.8007	
   328	 4.1077	 0.4305	 4.5381	 5.3137	 0.7515	 6.0653	 7.9358	 2.0587	 9.9945	62.4238	99.7992	
   329	 4.1387	 0.4496	 4.5882	 5.3489	 0.7976	 6.1466	 7.9597	 2.0844	10.0441	62.3931	99.8054	
   330	 4.0901	 0.5047	 4.5949	 5.2857	 0.8199	 6.1058	 7.9050	 2.1037	10.0088	62.4214	99.8008	
   331	 4.0455	 0.5056	 4.5512	 5.2605	 0.8289	 6.0894	 7.8504	 2.1230	 9.9734	62.3257	99.8044	
   332	 3.9601	 0.5665	 4.5266	 5.1737	 0.8856	 6.0593	 7.8067	 2.1385	 9.9452	62.4521	99.8049	
   333	 3.9456	 0.5717	 4.5173	 5.1247	 0.9289	 6.0537	 7.7162	 2.2103	 9.9265	62.1008	99.8064	
   334	 3.8893	 0.6221	 4.5114	 5.0632	 0.9766	 6.0399	 7.6803	 2.2628	 9.9432	62.0710	99.8031	
   335	 3.8853	 0.6764	 4.5617	 5.0731	 1.0317	 6.1049	 7.6991	 2.2961	 9.9951	62.1361	99.8060	
   336	 3.8863	 0.6912	 4.5775	 5.0241	 1.0750	 6.0993	 7.6632	 2.3486	10.0118	61.9455	99.8030	
   337	 3.8271	 0.6973	 4.5244	 4.9610	 1.0973	 6.0584	 7.5352	 2.3540	 9.8892	61.7776	99.8115	
   338	 3.7408	 0.7433	 4.4841	 4.8978	 1.1197	 6.0176	 7.4447	 2.4258	 9.8705	61.6192	99.8079	
   339	 3.7223	 0.8029	 4.5252	 4.8841	 1.2091	 6.0933	 7.4463	 2.5448	 9.9911	61.4378	99.8068	
   340	 3.7348	 0.8815	 4.6163	 4.8762	 1.2900	 6.1663	 7.4292	 2.6306	10.0597	61.3102	99.8059	
   341	 3.7037	 0.9757	 4.6794	 4.8877	 1.3705	 6.2583	 7.4557	 2.7009	10.1566	61.4116	99.8077	
   342	 3.7638	 0.9844	 4.7482	 4.8976	 1.4256	 6.3233	 7.4386	 2.7867	10.2253	61.0633	99.8074	
   343	 3.7066	 1.0200	 4.7266	 4.8597	 1.4390	 6.2988	 7.3762	 2.7689	10.1450	61.1510	99.8121	
   344	 3.6484	 1.0409	 4.6893	 4.7713	 1.4702	 6.2416	 7.2857	 2.8407	10.1264	60.8969	99.8067	
   345	 3.6134	 1.0761	 4.6895	 4.7477	 1.5046	 6.2523	 7.2498	 2.8932	10.1430	60.8033	99.8066	
   346	 3.5717	 1.1213	 4.6929	 4.6944	 1.5820	 6.2765	 7.1952	 2.9125	10.1077	60.7983	99.8153	
   347	 3.5241	 1.1912	 4.7153	 4.6412	 1.6593	 6.3006	 7.1729	 3.0058	10.1787	60.7098	99.8114	
   348	 3.5648	 1.2446	 4.8094	 4.6822	 1.6969	 6.3792	 7.2541	 3.0568	10.3109	60.7818	99.8053	
   349	 3.5521	 1.2794	 4.8315	 4.6526	 1.7399	 6.3926	 7.1636	 3.1287	10.2922	60.4900	99.8068	
   350	 3.5085	 1.2950	 4.8035	 4.6021	 1.7577	 6.3599	 7.0653	 3.1634	10.2287	60.2923	99.8087	
   351	 3.4163	 1.3659	 4.7821	 4.5406	 1.8055	 6.3462	 7.0106	 3.1827	10.1933	60.4174	99.8113	
   352	 3.4008	 1.3563	 4.7571	 4.4522	 1.8367	 6.2890	 6.9919	 3.1495	10.1414	60.4767	99.8110	
   353	 3.3134	 1.3876	 4.7011	 4.3874	 1.8336	 6.2211	 6.8031	 3.2560	10.0591	59.9902	99.8078	
   354	 3.2998	 1.4076	 4.7075	 4.3594	 1.9020	 6.2616	 6.8167	 3.2968	10.1135	59.9658	99.8110	
   355	 3.3018	 1.4372	 4.7389	 4.3594	 1.9020	 6.2616	 6.8167	 3.2968	10.1135	60.0263	99.8081	
   356	 3.2435	 1.4580	 4.7016	 4.3089	 1.9199	 6.2289	 6.7484	 3.2753	10.0238	60.0810	99.8141	
   357	 3.1940	 1.4984	 4.6925	 4.2221	 1.9766	 6.1988	 6.6637	 3.3508	10.0145	59.8558	99.8108	
   358	 3.1368	 1.5341	 4.6709	 4.1546	 2.0330	 6.1877	 6.5732	 3.4226	 9.9959	59.6305	99.8123	
   359	 3.1096	 1.5741	 4.6837	 4.1014	 2.1103	 6.2118	 6.5322	 3.4827	10.0149	59.5035	99.8149	
   360	 3.0620	 1.6440	 4.7060	 4.0481	 2.1877	 6.2359	 6.4963	 3.5352	10.0316	59.5035	99.8165	
   361	 3.1017	 1.6826	 4.7844	 4.1255	 2.1864	 6.3120	 6.5178	 3.6130	10.1308	59.3497	99.8117	
   362	 3.0677	 1.7326	 4.8003	 4.0580	 2.2428	 6.3009	 6.4331	 3.6885	10.1216	59.1208	99.8093	
   363	 3.0241	 1.7483	 4.7723	 4.0091	 2.2861	 6.2953	 6.3785	 3.7078	10.0863	59.0539	99.8146	
   364	 2.9668	 1.7839	 4.7507	 3.9459	 2.3084	 6.2545	 6.3238	 3.7271	10.0510	59.0505	99.8126	
   365	 2.9241	 1.8143	 4.7385	 3.8674	 2.3947	 6.2623	 6.2442	 3.7951	10.0393	58.8245	99.8173	
   366	 2.8474	 1.8947	 4.7421	 3.7747	 2.4600	 6.2348	 6.1486	 3.8744	10.0231	58.6919	99.8136	
   367	 2.8717	 1.9238	 4.7955	 3.8099	 2.5062	 6.3161	 6.1701	 3.9523	10.1223	58.5422	99.8138	
   368	 2.8668	 1.9633	 4.8301	 3.8351	 2.4972	 6.3325	 6.1264	 3.9677	10.0941	58.4992	99.8146	
   369	 2.8095	 1.9990	 4.8085	 3.7550	 2.5581	 6.3132	 6.0854	 4.0277	10.1131	58.4095	99.8122	
   370	 2.7668	 2.0294	 4.7962	 3.6386	 2.6578	 6.2965	 6.0307	 4.0470	10.0778	58.3720	99.8168	
   371	 2.7270	 2.1041	 4.8311	 3.6343	 2.6918	 6.3262	 5.8992	 4.1789	10.0781	57.9466	99.8158	
   372	 2.6843	 2.1345	 4.8188	 3.5601	 2.7441	 6.3043	 5.8145	 4.2544	10.0689	57.6877	99.8140	
   373	 2.6949	 2.1836	 4.8785	 3.5657	 2.8332	 6.3990	 5.9265	 4.2604	10.1869	57.9945	99.8176	
   374	 2.7201	 2.2275	 4.9475	 3.5866	 2.8583	 6.4451	 5.8855	 4.3204	10.2059	57.7936	99.8170	
   375	 2.6706	 2.2679	 4.9384	 3.4982	 2.8896	 6.3879	 5.7762	 4.3590	10.1352	57.6177	99.8143	
   376	 2.6133	 2.3035	 4.9168	 3.4434	 2.9415	 6.3850	 5.6915	 4.4345	10.1260	57.3925	99.8160	
   377	 2.5793	 2.3535	 4.9328	 3.3901	 3.0189	 6.4091	 5.6095	 4.5546	10.1641	57.0421	99.8151	
   378	 2.5521	 2.3934	 4.9456	 3.3310	 3.1048	 6.4359	 5.6122	 4.5992	10.2114	57.0511	99.8164	
   379	 2.5569	 2.4673	 5.0242	 3.3365	 3.1940	 6.5306	 5.6394	 4.6807	10.3201	57.0306	99.8171	
   380	 2.5966	 2.5059	 5.1025	 3.3953	 3.2057	 6.6012	 5.5984	 4.7407	10.3391	56.7943	99.8191	
   381	 2.5326	 2.5515	 5.0841	 3.3026	 3.2710	 6.5737	 5.5438	 4.7600	10.3038	56.8215	99.8206	
   382	 2.4840	 2.6067	 5.0908	 3.2478	 3.3229	 6.5708	 5.4482	 4.8393	10.2875	56.5891	99.8204	
   383	 2.4355	 2.6619	 5.0974	 3.1929	 3.3748	 6.5679	 5.4072	 4.8994	10.3065	56.5278	99.8178	
   384	 2.4073	 2.6871	 5.0944	 3.1550	 3.3882	 6.5434	 5.3174	 4.9823	10.2997	56.2020	99.8129	
   385	 2.3539	 2.7818	 5.1357	 3.1397	 3.4522	 6.5920	 5.3201	 5.0269	10.3470	56.3686	99.8135	
   386	 2.3936	 2.8204	 5.2141	 3.1689	 3.5070	 6.6760	 5.3337	 5.0677	10.4014	56.3025	99.8171	
   387	 2.3685	 2.7766	 5.1451	 3.1397	 3.4522	 6.5920	 5.2627	 5.0016	10.2644	56.2803	99.8203	
   388	 2.3055	 2.7236	 5.0291	 2.9865	 3.4803	 6.4669	 5.1559	 4.9881	10.1440	56.0762	99.8217	
   389	 2.2609	 2.7245	 4.9854	 2.9782	 3.4507	 6.4290	 5.0576	 5.0229	10.0805	55.8396	99.8222	
   390	 2.2191	 2.7697	 4.9888	 2.9277	 3.4686	 6.3964	 5.0576	 5.0229	10.0805	56.0021	99.8168	
   391	 2.1987	 2.7997	 4.9984	 2.8981	 3.5115	 6.4098	 5.0139	 5.0383	10.0522	55.9598	99.8214	
   392	 2.1220	 2.8801	 5.0021	 2.8701	 3.5800	 6.4502	 4.9841	 5.1912	10.1753	55.7645	99.8153	
   393	 2.0637	 3.0143	 5.0780	 2.8442	 3.7844	 6.6287	 5.0638	 5.4022	10.4660	55.7316	99.8151	
   394	 1.9461	 3.2680	 5.2141	 2.7784	 4.0744	 6.8529	 5.0458	 5.6590	10.7049	55.7047	99.8221	
   395	 2.0052	 3.3753	 5.3804	 2.7718	 4.2785	 7.0504	 4.9733	 5.9352	10.9085	54.9210	99.8243	
   396	 1.8543	 2.9988	 4.8530	 2.6674	 3.8469	 6.5143	 4.7688	 5.5064	10.2752	55.1100	99.8296	
   397	 1.7081	 2.6961	 4.4043	 2.5457	 3.7597	 6.3055	 4.7688	 5.5064	10.2752	54.7259	99.8316	
   398	 1.6084	 2.5355	 4.1439	 2.4986	 3.5225	 6.0213	 4.5771	 5.2894	 9.8666	54.7262	99.8375	
   399	 1.3360	 2.3537	 3.6897	 2.3572	 3.3252	 5.6826	 4.5632	 5.1520	 9.7152	55.1377	99.8289	
   400	 1.3400	 2.2994	 3.6394	 2.5483	 3.2838	 5.8321	 4.9592	 5.0576	10.0169	56.1259	99.8321	
   401	 1.4749	 2.1981	 3.6730	 2.6690	 3.1500	 5.8191	 5.0249	 4.8522	 9.8771	56.4018	99.8395	
   402	 1.3383	 2.0431	 3.3814	 2.5512	 2.9183	 5.4696	 4.8339	 4.6464	 9.4803	56.4529	99.8369	
   403	 1.1997	 1.9720	 3.1717	 2.3755	 2.8958	 5.2714	 4.6729	 4.5666	 9.2395	56.3998	99.8431	
   404	 1.1715	 1.9972	 3.1687	 2.3503	 2.9047	 5.2551	 4.5882	 4.6421	 9.2303	56.1088	99.8399	
   405	 1.1230	 2.0524	 3.1753	 2.3014	 2.9480	 5.2495	 4.5336	 4.6614	 9.1950	56.1304	99.8417	
   406	 1.1200	 2.1214	 3.2414	 2.2986	 3.0076	 5.3063	 4.5062	 4.7622	 9.2684	55.9436	99.8388	
   407	 1.1180	 2.2052	 3.3232	 2.2663	 3.1101	 5.3765	 4.5526	 4.7914	 9.3439	56.1403	99.8398	
   408	 1.1829	 2.2877	 3.4706	 2.3307	 3.2110	 5.5418	 4.5279	 4.9367	 9.4646	55.7570	99.8438	
   409	 1.2100	 2.3611	 3.5711	 2.2775	 3.2883	 5.5659	 4.4022	 5.0722	 9.4744	55.2228	99.8387	
   410	 1.1012	 2.5210	 3.6222	 2.0557	 3.4578	 5.5136	 4.0225	 5.2519	 9.2744	54.4053	99.8432	
   411	 0.9641	 2.8194	 3.7836	 1.8459	 3.8182	 5.6642	 3.8672	 5.6370	 9.5043	53.8546	99.8376	
   412	 0.9989	 3.0109	 4.0098	 1.7923	 3.9934	 5.7857	 3.6978	 5.7880	 9.4858	53.3997	99.8417	
   413	 0.9212	 3.0766	 3.9978	 1.6786	 4.0335	 5.7122	 3.5995	 5.8227	 9.4222	53.3483	99.8366	
   414	 0.8736	 3.1465	 4.0201	 1.6151	 4.1536	 5.7688	 3.5100	 6.0024	 9.5124	52.8827	99.8360	
   415	 0.8308	 3.2903	 4.1211	 1.6105	 4.2853	 5.8959	 3.5187	 6.1474	 9.6661	52.8778	99.8354	
   416	 0.9238	 3.4609	 4.3847	 1.6501	 4.5056	 6.1558	 3.6258	 6.2576	 9.8834	53.0152	99.8421	
   417	 0.9586	 3.5391	 4.4977	 1.6414	 4.5737	 6.2153	 3.6234	 6.3097	 9.9330	52.9700	99.8395	
   418	 0.9324	 3.5938	 4.5262	 1.6075	 4.6508	 6.2584	 3.6295	 6.4100	10.0395	52.8697	99.8356	
   419	 0.9139	 3.6533	 4.5672	 1.6308	 4.7141	 6.3451	 3.5809	 6.5296	10.1105	52.5907	99.8389	
   420	 0.9177	 3.7124	 4.6301	 1.5993	 4.8294	 6.4288	 3.6331	 6.5624	10.1955	52.7347	99.8430	
   421	 0.8992	 3.7719	 4.6711	 1.5907	 4.8975	 6.4883	 3.5903	 6.6857	10.2761	52.4599	99.8417	
   422	 0.8681	 3.8662	 4.7342	 1.5591	 5.0128	 6.5720	 3.5964	 6.7861	10.3825	52.4491	99.8422	
   423	 0.8583	 3.9452	 4.8035	 1.5529	 5.1191	 6.6721	 3.6411	 6.8785	10.5195	52.4802	99.8423	
   424	 0.9446	 4.0125	 4.9570	 1.6145	 5.2795	 6.8942	 3.8387	 6.9169	10.7555	52.8146	99.8495	
   425	 0.9629	 4.0663	 5.0293	 1.6379	 5.3428	 6.9808	 3.7959	 7.0401	10.8360	52.4690	99.8501	
   426	 0.9289	 4.1163	 5.0452	 1.6335	 5.3769	 7.0106	 3.7371	 7.1748	10.9119	52.1377	99.8455	
   427	 0.8949	 4.1663	 5.0612	 1.5937	 5.4626	 7.0564	 3.7951	 7.2112	11.0063	52.3293	99.8454	
   428	 0.9046	 4.2006	 5.1052	 1.5606	 5.5523	 7.1131	 3.7490	 7.2788	11.0278	52.0997	99.8501	
   429	 0.8784	 4.2553	 5.1337	 1.5563	 5.5864	 7.1428	 3.7448	 7.3941	11.1389	51.9405	99.8424	
   430	 0.8589	 4.3000	 5.1590	 1.5105	 5.6807	 7.1913	 3.6935	 7.4692	11.1627	51.7496	99.8469	
   431	 0.8492	 4.3791	 5.2282	 1.4688	 5.8386	 7.3075	 3.7986	 7.5459	11.3445	51.9591	99.8476	
   432	 0.9432	 4.4511	 5.3943	 1.6023	 5.9085	 7.5109	 3.7927	 7.7245	11.5172	51.4653	99.8506	
   433	 0.9702	 4.5245	 5.4948	 1.6003	 5.9808	 7.5812	 3.7800	 7.7917	11.5716	51.3609	99.8500	
   434	 0.9508	 4.5693	 5.5201	 1.5648	 6.0324	 7.5973	 3.7834	 7.8474	11.6308	51.3447	99.8463	
   435	 0.9459	 4.6088	 5.5547	 1.5822	 6.1043	 7.6867	 3.8414	 7.8838	11.7252	51.4672	99.8506	
   436	 0.9051	 4.6687	 5.5739	 1.5467	 6.1559	 7.7027	 3.7304	 7.9857	11.7161	51.1386	99.8514	
   437	 0.9002	 4.7083	 5.6085	 1.4757	 6.2591	 7.7349	 3.6774	 8.1240	11.8013	50.7470	99.8477	
   438	 0.8691	 4.8025	 5.6716	 1.4679	 6.3399	 7.8079	 3.6756	 8.1872	11.8628	50.8166	99.8494	
   439	 0.8787	 4.9502	 5.8288	 1.5051	 6.5220	 8.0272	 3.7669	 8.4055	12.1724	50.7350	99.8468	
   440	 1.0326	 5.2576	 6.2902	 1.5653	 6.8652	 8.4305	 3.7985	 8.6506	12.4491	50.5152	99.8547	
   441	 1.0925	 5.4930	 6.5854	 1.6033	 7.0600	 8.6633	 3.7881	 8.8478	12.6359	50.3411	99.8538	
   442	 1.0922	 5.7197	 6.8119	 1.5907	 7.2726	 8.8635	 3.7111	 9.1427	12.8537	49.8510	99.8496	
   443	 1.0602	 5.7992	 6.8593	 1.5711	 7.3707	 8.9418	 3.7588	 9.1941	12.9529	50.0376	99.8512	
   444	 1.0283	 5.6519	 6.6802	 1.5907	 7.2726	 8.8635	 3.7657	 9.1234	12.8891	50.0042	99.8565	
   445	 0.9452	 5.2889	 6.2342	 1.5045	 6.9257	 8.4303	 3.7967	 8.7138	12.5106	50.5579	99.8541	
   446	 0.7800	 4.6910	 5.4709	 1.4002	 5.9799	 7.3802	 3.4860	 7.5425	11.0285	51.9966	99.8655	
   447	 0.3171	 3.9807	 4.2978	 0.9511	 4.7851	 5.7363	 2.7777	 6.1643	 8.9420	53.4346	99.8633	
   448	-0.0108	 3.1691	 3.1583	 0.5878	 3.8268	 4.4147	 2.3002	 5.1886	 7.4888	53.9026	99.8582	
   449	-0.1355	 2.7379	 2.6024	 0.5046	 3.3225	 3.8273	 2.2678	 4.6534	 6.9212	54.6351	99.8534	
   450	-0.1984	 2.5716	 2.3732	 0.5002	 3.1484	 3.6487	 2.3270	 4.4332	 6.7603	55.1488	99.8560	
   451	-0.3002	 2.4948	 2.1946	 0.4015	 3.0141	 3.4157	 2.1537	 4.3350	 6.4887	55.0385	99.8534	
   452	-0.5125	 2.4350	 1.9225	 0.0880	 2.9557	 3.0438	 1.8862	 4.1562	 6.0425	55.1693	99.8550	
   453	-0.7849	 2.3665	 1.5815	-0.2350	 2.7445	 2.5095	 1.4051	 3.9504	 5.3555	54.9653	99.8508	
   454	-1.3348	 2.3824	 1.0476	-1.0417	 3.0555	 2.0139	 0.5315	 4.6349	 5.1664	51.9078	99.8263	
   455	-1.5030	 2.7751	 1.2721	-0.8780	 3.6093	 2.7314	 0.9065	 5.2995	 6.2060	52.0858	99.8368	
   456	-0.9583	 3.1388	 2.1804	-0.4633	 4.0485	 3.5853	 1.2619	 5.6408	 6.9027	51.7847	99.8494	
   457	-0.8856	 3.1127	 2.2271	-0.5151	 3.9431	 3.4282	 1.1000	 5.2710	 6.3710	52.2433	99.8679	
   458	-1.0699	 2.2194	 1.1495	-0.3696	 2.7595	 2.3899	 1.4545	 4.1209	 5.5754	54.7597	99.8452	
   459	-0.8989	 1.8710	 0.9721	-0.3086	 2.3930	 2.0845	 1.3845	 3.7015	 5.0860	54.7483	99.8511	
   460	-1.4148	 1.8369	 0.4222	-0.8483	 2.3299	 1.4817	 0.8214	 3.6158	 4.4371	54.4977	99.8510	
   461	-1.7970	 1.9136	 0.1166	-1.1830	 2.3441	 1.1611	 0.5094	 3.6235	 4.1329	54.5781	99.8477	
   462	-1.9589	 1.9415	-0.0175	-1.3440	 2.4530	 1.1091	 0.3843	 3.7702	 4.1545	54.2005	99.8484	
   463	-1.8368	 1.9883	 0.1515	-1.2619	 2.5281	 1.2663	 0.4201	 3.8999	 4.3200	53.7953	99.8463	
   464	-1.7777	 2.0955	 0.3178	-1.1833	 2.6500	 1.4668	 0.4668	 4.0257	 4.4925	53.6727	99.8512	
   465	-1.8388	 2.0721	 0.2333	-1.3380	 2.6526	 1.3147	 0.3227	 4.0425	 4.3652	53.3357	99.8448	
   466	-1.9059	 2.1868	 0.2810	-1.3470	 2.8185	 1.4716	 0.3048	 4.2993	 4.6041	52.9237	99.8450	
   467	-1.9468	 2.3601	 0.4134	-1.4558	 3.1432	 1.6875	 0.1371	 4.8482	 4.9853	51.4063	99.8358	
   468	-2.0653	 2.5990	 0.5337	-1.5302	 3.5014	 1.9713	 0.1358	 5.2871	 5.4229	50.8999	99.8360	
   469	-1.9782	 2.7944	 0.8162	-1.4041	 3.7627	 2.3587	 0.3165	 5.5080	 5.8245	50.9811	99.8446	
   470	-1.7921	 2.9090	 1.1169	-1.1625	 3.9116	 2.7492	 0.5717	 5.6683	 6.2400	51.0614	99.8493	
   471	-1.6953	 3.0253	 1.3301	-1.0428	 4.0710	 3.0283	 0.7511	 5.8669	 6.6180	51.0179	99.8463	
   472	-1.4878	 3.1247	 1.6369	-0.7790	 4.1600	 3.3811	 1.0948	 5.9219	 7.0167	51.5241	99.8465	
   473	-1.3346	 3.1906	 1.8560	-0.5236	 4.2194	 3.6959	 1.4552	 5.9768	 7.4320	52.0901	99.8453	
   474	-1.0106	 3.0215	 2.0110	-0.2289	 3.8745	 3.6457	 1.5682	 5.4472	 7.0154	52.8922	99.8597	
   475	-1.4138	 2.7733	 1.3595	-0.6293	 3.6646	 3.0354	 1.1761	 5.3295	 6.5056	52.4809	99.8534	
   476	-1.3876	 2.8319	 1.4443	-0.5661	 3.6423	 3.0763	 1.2526	 5.3025	 6.5551	52.8127	99.8484	
   477	-1.2421	 2.7797	 1.5376	-0.3767	 3.5754	 3.1988	 1.6463	 5.0780	 6.7243	53.9901	99.8499	
   478	-0.9461	 2.5225	 1.5764	 0.0873	 3.1511	 3.2386	 2.0836	 4.5591	 6.6427	55.3953	99.8576	
   479	-0.8712	 2.2992	 1.4280	 0.1254	 2.8318	 2.9574	 2.0470	 4.1393	 6.1863	55.9011	99.8621	
   480	-1.1755	 2.0835	 0.9080	-0.3429	 2.5678	 2.2250	 1.5364	 3.7219	 5.2582	55.9873	99.8651	
   481	-1.4885	 1.8483	 0.3598	-0.6825	 2.2974	 1.6150	 1.2017	 3.4472	 4.6489	56.0347	99.8602	
   482	-1.5651	 1.8153	 0.2502	-0.7536	 2.1924	 1.4388	 1.1192	 3.3739	 4.4931	56.1175	99.8521	
   483	-1.6708	 1.7928	 0.1220	-0.8657	 2.2580	 1.3924	 1.0577	 3.4639	 4.5216	55.8428	99.8530	
   484	-1.5614	 1.9877	 0.4263	-0.7380	 2.5448	 1.8068	 1.2425	 3.7517	 4.9941	55.6734	99.8578	
   485	-1.2193	 2.2125	 0.9933	-0.4833	 2.7996	 2.3164	 1.4051	 3.9504	 5.3555	55.3796	99.8670	
   486	-1.1339	 2.1517	 1.0178	-0.5245	 2.5539	 2.0295	 1.2464	 3.5396	 4.7860	55.9314	99.8680	
   487	-1.5727	 1.6972	 0.1245	-0.9753	 1.8477	 0.8725	 0.6680	 2.8330	 3.5009	56.4243	99.8552	
   488	-1.9081	 1.4624	-0.4457	-1.2328	 1.6524	 0.4197	 0.4766	 2.7127	 3.1893	56.3867	99.8509	
   489	-1.9732	 1.6066	-0.3666	-1.3017	 1.8915	 0.5899	 0.2971	 3.1576	 3.4547	55.0724	99.8469	
   490	-1.9175	 2.2363	 0.3188	-1.3470	 2.8185	 1.4716	 0.2909	 4.1619	 4.4528	53.4141	99.8563	
   491	-1.1227	 3.5905	 2.4679	-0.6588	 4.6381	 3.9794	 0.7723	 6.3092	 7.0815	49.9964	99.8734	
   492	-0.6721	 3.9955	 3.3234	-0.7512	 4.6057	 3.8546	 0.5307	 5.7284	 6.2591	51.0444	99.8660	
   493	-1.1152	 2.9004	 1.7852	-0.5722	 3.4427	 2.8706	 1.1205	 4.7798	 5.9003	53.6416	99.8483	
   494	-0.8628	 2.6588	 1.7960	-0.1455	 3.3505	 3.2051	 1.8510	 4.6811	 6.5321	54.6714	99.8497	
   495	-0.4990	 2.5283	 2.0293	 0.1599	 3.0734	 3.2334	 2.0288	 4.2994	 6.3283	55.2665	99.8532	
   496	-0.6569	 2.3886	 1.7316	-0.0245	 2.9109	 2.8864	 1.7801	 4.1539	 5.9340	55.0773	99.8525	
   497	-1.0147	 2.2676	 1.2529	-0.5717	 2.8309	 2.2593	 0.9800	 4.2088	 5.1888	53.3905	99.8493	
   498	-1.3909	 2.2061	 0.8152	-0.9760	 2.7655	 1.7896	 0.6544	 4.1758	 4.8302	53.2405	99.8374	
   499	-1.4811	 2.1931	 0.7120	-1.1307	 2.7681	 1.6375	 0.4775	 4.2041	 4.6817	52.8642	99.8333	
   500	-1.6013	 2.1758	 0.5745	-1.2543	 2.7532	 1.4990	 0.3694	 4.1683	 4.5377	52.8839	99.8342	
   501	-1.7129	 2.1780	 0.4652	-1.3838	 2.7469	 1.3632	 0.2284	 4.1441	 4.3725	52.8170	99.8349	
   502	-1.8176	 2.1703	 0.3527	-1.4896	 2.7062	 1.2167	 0.1131	 4.0824	 4.1955	52.8871	99.8348	
   503	-1.9204	 2.1920	 0.2716	-1.5653	 2.7329	 1.1677	 0.0168	 4.1506	 4.1673	52.6886	99.8345	
   504	-1.9311	 2.2563	 0.3252	-1.5826	 2.8692	 1.2867	 0.0614	 4.2430	 4.3044	52.6911	99.8403	
   505	-1.9196	 2.3202	 0.4006	-1.5727	 2.9243	 1.3516	 0.0635	 4.2764	 4.3399	52.7180	99.8423	
   506	-1.9748	 2.2720	 0.2972	-1.5985	 2.8227	 1.2244	-0.0119	 4.2290	 4.2171	52.6654	99.8379	
   507	-1.9612	 2.2520	 0.2908	-1.6237	 2.8317	 1.2080	-0.0447	 4.2406	 4.1959	52.4828	99.8381	
   508	-1.9757	 2.2572	 0.2815	-1.6379	 2.8106	 1.1728	-0.0795	 4.2187	 4.1392	52.4984	99.8375	
   509	-2.0678	 2.2147	 0.1469	-1.7497	 2.7785	 1.0290	-0.2116	 4.1572	 3.9457	52.4264	99.8417	
   510	-2.1104	 2.1318	 0.0213	-1.8697	 2.7168	 0.8472	-0.3487	 4.1032	 3.7545	52.1391	99.8386	
   511	-2.1686	 2.1526	-0.0160	-1.9076	 2.7302	 0.8227	-0.3784	 4.0738	 3.6954	52.3042	99.8431	
   512	-2.2142	 2.1388	-0.0754	-1.9487	 2.6927	 0.7441	-0.4460	 4.0635	 3.6175	52.2197	99.8406	
   513	-2.1996	 2.1335	-0.0661	-1.9487	 2.6927	 0.7441	-0.4480	 4.0301	 3.5821	52.2735	99.8437	
   514	-2.1996	 2.1335	-0.0661	-1.9487	 2.6927	 0.7441	-0.4480	 4.0301	 3.5821	52.2735	99.8437	
   515	-2.1841	 2.1431	-0.0411	-1.9218	 2.7092	 0.7875	-0.4152	 4.0185	 3.6033	52.3812	99.8475	
   516	-2.1414	 2.1127	-0.0288	-1.8745	 2.6404	 0.7661	-0.4173	 3.9851	 3.5678	52.3275	99.8447	
   517	-2.1627	 2.0145	-0.1482	-1.8900	 2.4962	 0.6064	-0.4274	 3.8178	 3.3904	52.6134	99.8427	
   518	-2.1975	 1.9364	-0.2611	-1.9038	 2.3775	 0.4738	-0.4027	 3.6724	 3.2698	52.9924	99.8400	
   519	-2.2276	 1.9320	-0.2955	-1.9197	 2.3310	 0.4115	-0.4593	 3.6583	 3.1990	52.9393	99.8370	
   520	-2.1849	 1.9016	-0.2833	-1.8944	 2.3221	 0.4278	-0.3958	 3.6017	 3.2059	53.1171	99.8397	
   521	-2.1703	 1.8964	-0.2739	-1.8328	 2.2743	 0.4416	-0.3740	 3.5940	 3.2200	53.1556	99.8381	
   522	-2.1964	 1.8378	-0.3587	-1.8704	 2.1900	 0.3197	-0.4418	 3.4870	 3.0452	53.2206	99.8396	
   523	-2.2905	 1.7657	-0.5247	-2.0090	 2.1414	 0.1325	-0.5404	 3.4250	 2.8846	53.1712	99.8366	
   524	-2.4863	 1.7302	-0.7561	-2.2072	 2.0682	-0.1388	-0.7612	 3.3721	 2.6109	53.0611	99.8326	
   525	-2.7064	 1.6656	-1.0408	-2.4594	 2.0597	-0.3996	-1.0343	 3.4686	 2.4342	52.3555	99.8257	
   526	-2.7772	 1.7212	-1.0560	-2.5825	 2.1553	-0.4271	-1.1235	 3.5627	 2.4392	52.1101	99.8231	
   527	-2.8403	 1.7816	-1.0587	-2.6275	 2.2623	-0.3651	-1.1232	 3.6594	 2.5362	52.0794	99.8264	
   528	-2.8074	 1.8303	-0.9771	-2.5738	 2.2954	-0.2783	-1.0884	 3.6813	 2.5928	52.1493	99.8293	
   529	-2.8220	 1.8355	-0.9865	-2.5915	 2.3211	-0.2703	-1.1192	 3.7263	 2.6071	51.9785	99.8301	
   530	-2.7716	 1.9232	-0.8484	-2.5035	 2.3876	-0.1157	-1.0861	 3.8114	 2.7253	51.9126	99.8335	
   531	-2.7580	 1.9032	-0.8548	-2.4999	 2.3408	-0.1590	-1.0953	 3.7520	 2.6567	51.9937	99.8326	
   532	-2.8559	 1.7721	-1.0838	-2.6346	 2.1477	-0.4869	-1.2224	 3.4041	 2.1817	52.5915	99.8398	
   533	-3.0526	 1.6085	-1.4441	-2.8728	 1.9520	-0.9207	-1.4464	 3.1131	 1.6667	52.8940	99.8425	
   534	-3.2445	 1.5187	-1.7258	-3.1204	 1.8117	-1.3085	-1.7429	 2.9161	 1.1732	52.8917	99.8437	
   535	-3.4491	 1.4636	-1.9855	-3.3967	 1.7272	-1.6695	-2.0609	 2.8235	 0.7626	52.6194	99.8400	
   536	-3.6585	 1.4481	-2.2104	-3.6624	 1.7104	-1.9519	-2.3285	 2.8269	 0.4984	52.2825	99.8336	
   537	-3.7284	 1.5185	-2.2100	-3.7165	 1.7751	-1.9413	-2.4016	 2.9097	 0.5081	52.1376	99.8340	
   538	-3.7431	 1.6370	-2.1060	-3.7499	 1.9626	-1.7872	-2.3984	 3.1477	 0.7493	51.7254	99.8308	
   539	-3.8482	 1.9693	-1.8788	-3.8034	 2.3459	-1.4574	-2.4517	 3.6505	 1.1988	51.0377	99.8270	
   540	-3.9890	 2.2087	-1.7803	-3.9193	 2.5560	-1.3632	-2.5716	 3.7897	 1.2181	51.1234	99.8346	
   541	-4.0308	 2.2539	-1.7768	-3.9951	 2.5828	-1.4122	-2.7047	 3.8025	 1.0978	50.9189	99.8367	
   542	-3.9551	 2.2721	-1.6830	-3.9339	 2.6328	-1.3011	-2.5972	 3.8272	 1.2300	51.0214	99.8375	
   543	-3.8039	 2.3085	-1.4954	-3.7515	 2.6594	-1.0920	-2.4331	 3.8660	 1.4329	51.1234	99.8392	
   544	-3.6381	 2.3397	-1.2984	-3.5715	 2.6479	-0.9235	-2.2931	 3.7823	 1.4893	51.4879	99.8472	
   545	-3.5052	 2.3223	-1.1829	-3.4578	 2.6077	-0.8500	-2.1820	 3.6805	 1.4984	51.7863	99.8503	
   546	-3.4053	 2.3695	-1.0358	-3.3225	 2.6054	-0.7169	-2.0708	 3.6753	 1.6046	52.0063	99.8507	
   547	-3.4791	 2.3809	-1.0982	-3.4329	 2.6965	-0.7363	-2.1815	 3.8739	 1.6924	51.2897	99.8442	
   548	-3.7941	 2.2295	-1.5646	-3.7820	 2.4815	-1.3004	-2.4482	 3.5240	 1.0758	51.9130	99.8430	
   549	-4.0335	 2.0963	-1.9373	-4.0186	 2.3113	-1.7072	-2.7847	 3.4949	 0.7102	51.2792	99.8327	
   550	-4.8494	 2.3738	-2.4756	-4.3205	 3.0557	-1.2648	-2.5797	 4.5783	 1.9986	50.8107	99.8363	
   551	-3.9835	 2.5240	-1.4595	-3.3964	 3.0740	-0.3223	-1.5753	 4.3942	 2.8189	52.5671	99.8431	
   552	-3.3822	 2.4972	-0.8850	-2.8075	 2.9961	 0.1887	-1.2456	 4.3119	 3.0663	52.4576	99.8585	
   553	-3.1995	 3.1343	-0.0653	-2.8311	 3.9610	 1.1300	-1.3112	 5.4397	 4.1284	50.1052	99.8607	
   554	-3.4468	 3.1096	-0.3372	-3.4387	 3.6356	 0.1970	-1.6360	 4.3132	 2.6771	52.9651	99.8653	
   555	-3.6336	 1.7186	-1.9149	-3.6407	 1.7483	-1.8923	-2.2765	 2.5808	 0.3043	53.7604	99.8398	
   556	-4.2666	 1.4849	-2.7818	-4.1089	 1.6925	-2.4163	-2.6261	 2.7043	 0.0782	53.1426	99.8392	
   557	-4.3657	 1.6791	-2.6867	-4.2338	 2.0685	-2.1652	-2.7736	 3.3087	 0.5351	51.5658	99.8321	
   558	-4.3642	 2.0487	-2.3155	-4.1807	 2.5052	-1.6754	-2.7337	 3.7843	 1.0506	51.0841	99.8398	
   559	-4.3547	 2.3097	-2.0451	-4.1430	 2.7977	-1.3452	-2.7168	 4.0630	 1.3462	50.8702	99.8482	
   560	-4.4101	 2.3748	-2.0352	-4.2768	 2.8255	-1.4512	-2.9046	 4.0952	 1.1906	50.5376	99.8433	
   561	-4.4808	 2.3171	-2.1637	-4.3756	 2.6912	-1.6843	-3.0307	 3.8551	 0.8244	50.9277	99.8474	
   562	-4.4214	 2.0843	-2.3371	-4.3611	 2.4063	-1.9548	-2.9430	 3.4597	 0.5166	51.7004	99.8446	
   563	-4.2120	 2.0998	-2.1121	-4.1484	 2.4027	-1.7456	-2.7301	 3.4755	 0.7455	51.8377	99.8410	
   564	-4.0442	 2.1605	-1.8837	-3.9478	 2.5140	-1.4337	-2.4588	 3.6245	 1.1657	51.9084	99.8384	
   565	-3.8067	 2.2642	-1.5425	-3.6580	 2.6068	-1.0510	-2.2364	 3.7965	 1.5601	51.7475	99.8386	
   566	-3.8931	 2.3103	-1.5828	-3.8008	 2.8005	-1.0002	-2.4104	 4.1483	 1.7380	50.5247	99.8341	
   567	-4.0254	 2.6826	-1.3428	-3.7957	 3.5014	-0.2941	-2.1762	 5.0677	 2.8915	49.5499	99.8332	
   568	-3.8793	 3.0986	-0.7808	-3.4145	 3.9199	 0.5055	-1.7530	 5.5160	 3.7631	49.9762	99.8443	
   569	-3.6943	 3.3117	-0.3826	-3.1085	 4.1696	 1.0613	-1.3657	 5.7379	 4.3722	50.4321	99.8524	
   570	-3.5789	 3.3685	-0.2104	-3.0086	 4.2189	 1.2105	-1.3719	 5.8198	 4.4479	50.0947	99.8557	
   571	-3.5965	 3.4428	-0.1537	-3.0097	 4.3039	 1.2943	-1.2798	 5.8670	 4.5872	50.3819	99.8544	
   572	-3.4937	 3.4210	-0.0726	-2.8680	 4.1953	 1.3274	-1.1660	 5.6275	 4.4615	51.0980	99.8643	
   573	-3.7822	 2.9882	-0.7940	-3.1040	 3.6215	 0.5175	-1.2300	 5.0295	 3.7995	52.2318	99.8444	
   574	-3.5357	 2.7713	-0.7643	-2.7347	 3.3348	 0.6002	-0.7372	 4.5991	 3.8620	53.7398	99.8511	
   575	-3.2339	 2.6027	-0.6312	-2.4743	 2.9565	 0.4823	-0.5463	 4.0648	 3.5185	54.8424	99.8508	
   576	-2.9503	 2.1535	-0.7968	-2.3219	 2.4016	 0.0798	-0.5404	 3.4250	 2.8846	55.2425	99.8519	
   577	-2.6947	 1.6161	-1.0786	-2.2720	 1.8569	-0.4150	-0.5215	 2.8148	 2.2933	55.4436	99.8452	
   578	-2.6059	 1.0328	-1.5731	-2.3864	 1.3702	-1.0161	-0.7078	 2.2258	 1.5180	55.2788	99.8547	
   579	-2.8852	 1.0877	-1.7976	-2.5576	 1.5218	-1.0357	-0.7616	 2.5352	 1.7736	54.8404	99.8456	
   580	-2.5957	 1.5353	-1.0604	-2.1386	 1.9269	-0.2116	-0.2956	 2.8603	 2.5646	55.4883	99.8558	
   581	-2.3768	 1.8118	-0.5650	-2.0667	 2.0446	-0.0219	-0.4012	 3.0513	 2.6501	54.8950	99.8386	
   582	-2.6543	 1.8962	-0.7580	-2.3351	 2.0874	-0.2476	-0.5633	 3.0459	 2.4826	55.2117	99.8317	
   583	-2.7416	 1.9275	-0.8140	-2.3856	 2.1052	-0.2803	-0.6596	 3.1141	 2.4545	55.0006	99.8317	
   584	-2.7203	 2.0257	-0.6947	-2.3847	 2.3262	-0.0584	-0.5772	 3.3697	 2.7925	54.6173	99.8313	
   585	-2.3335	 2.1362	-0.1973	-1.8935	 2.5430	 0.6497	-0.2020	 3.6699	 3.4679	54.1864	99.8495	
   586	-1.7610	 1.7798	 0.0188	-1.2825	 2.4053	 1.1229	 0.2937	 3.5631	 3.8567	53.8766	99.8755	
   587	-1.5413	 1.2629	-0.2784	-0.9125	 1.9231	 1.0108	 0.6113	 3.2800	 3.8913	53.9324	99.8725	
   588	-1.2696	 1.0899	-0.1797	-0.6469	 1.7317	 1.0849	 0.8476	 3.1282	 3.9758	54.0755	99.8688	
   589	-1.2047	 1.1724	-0.0323	-0.6548	 1.8126	 1.1579	 0.7404	 3.2002	 3.9407	53.6734	99.8722	
   590	-1.3832	 1.2893	-0.0939	-0.9630	 1.9410	 0.9781	 0.2140	 3.3521	 3.5661	52.5236	99.8788	
   591	-1.9409	 1.3004	-0.6405	-1.5903	 1.9218	 0.3317	-0.4317	 3.1930	 2.7613	52.4372	99.8864	
   592	-2.4344	 1.1526	-1.2818	-2.0210	 1.7422	-0.2788	-0.7690	 2.8738	 2.1048	53.1263	99.8935	
   593	-2.3259	 1.3327	-0.9932	-1.9542	 1.8812	-0.0729	-0.7565	 2.9889	 2.2324	53.0190	99.8939	
   594	-2.2164	 1.4143	-0.8021	-1.8753	 1.9054	 0.0302	-0.7636	 2.9630	 2.1993	53.0586	99.8982	
   595	-2.2717	 1.4795	-0.7922	-1.9546	 1.9790	 0.0245	-0.8510	 2.9939	 2.1428	52.9970	99.9016	
   596	-2.2980	 1.5343	-0.7637	-2.0213	 2.0481	 0.0269	-0.9384	 3.0247	 2.0863	52.8563	99.9050	
   597	-2.3010	 1.6033	-0.6977	-2.0307	 2.1035	 0.0729	-0.9405	 2.9913	 2.0508	53.1158	99.9104	
   598	-2.2525	 1.6615	-0.5910	-1.9458	 2.1190	 0.1733	-0.9057	 3.0132	 2.1075	53.1799	99.9123	
   599	-2.2050	 1.7049	-0.5002	-1.9047	 2.1566	 0.2519	-0.8767	 3.0314	 2.1547	53.2083	99.9138	
   600	-2.2322	 1.7449	-0.4874	-1.9679	 2.1789	 0.2111	-1.0040	 3.0479	 2.0439	52.9767	99.9153	
   601	-2.3224	 1.7319	-0.5905	-2.0847	 2.1681	 0.0835	-1.0988	 2.9561	 1.8573	53.1551	99.9189	
   602	-2.4252	 1.7536	-0.6716	-2.1696	 2.1526	-0.0170	-1.2224	 2.9429	 1.7205	53.1252	99.9197	
   603	-2.5009	 1.7354	-0.7654	-2.2577	 2.0861	-0.1715	-1.3370	 2.8923	 1.5552	53.0875	99.9164	
   604	-2.6376	 1.6938	-0.9438	-2.3947	 2.0629	-0.3317	-1.4298	 2.8340	 1.4041	53.1926	99.9176	
   605	-2.6230	 1.6886	-0.9344	-2.3426	 2.0705	-0.2720	-1.3698	 2.9038	 1.5340	53.0928	99.9150	
   606	-2.5736	 1.7615	-0.8121	-2.2868	 2.2395	-0.0472	-1.3554	 3.2347	 1.8793	52.1985	99.9116	
   607	-2.5660	 1.8797	-0.6863	-2.2638	 2.4006	 0.1369	-1.3425	 3.4465	 2.1040	51.8492	99.9120	
   608	-2.5302	 1.9726	-0.5576	-2.2736	 2.5537	 0.2802	-1.2836	 3.5908	 2.3072	51.7119	99.9100	
   609	-2.2889	 2.1353	-0.1535	-2.0481	 2.7538	 0.7058	-1.0625	 3.7405	 2.6779	51.7407	99.9159	
   610	-2.0134	 2.1348	 0.1213	-1.8429	 2.7334	 0.8906	-0.8440	 3.6633	 2.8192	52.0049	99.9144	
   611	-1.7632	 2.0903	 0.3271	-1.5255	 2.6473	 1.1219	-0.5361	 3.5886	 3.0525	52.4397	99.9148	
   612	-1.3938	 2.1618	 0.7680	-1.1438	 2.6621	 1.5184	-0.0134	 3.4666	 3.4532	53.5949	99.9134	
   613	-1.1291	 2.2255	 1.0964	-0.9050	 2.6623	 1.7574	 0.3204	 3.4511	 3.7715	54.1282	99.9029	
   614	-1.1448	 2.4427	 1.2979	-0.9806	 2.8973	 1.9167	 0.3038	 3.7303	 4.0341	53.7709	99.8932	
   615	-1.4147	 2.7585	 1.3438	-1.2797	 3.2762	 1.9967	 0.0475	 4.1055	 4.1531	53.2257	99.8937	
   616	-1.9405	 2.9169	 0.9764	-1.8990	 3.3844	 1.4855	-0.6377	 4.3078	 3.6701	52.2385	99.8812	
   617	-2.5633	 3.0723	 0.5090	-2.6004	 3.4175	 0.8172	-1.3289	 4.4096	 3.0807	51.6995	99.8591	
   618	-3.4615	 3.2282	-0.2333	-3.4135	 3.6267	 0.2133	-2.1116	 4.9367	 2.8251	50.1934	99.8351	
   619	-3.8318	 4.0636	 0.2318	-3.4386	 4.5661	 1.1276	-1.9651	 5.7903	 3.8251	50.6432	99.8645	
   620	-3.2509	 4.0667	 0.8159	-2.9054	 4.5274	 1.6221	-1.6186	 5.7077	 4.0891	50.6695	99.8759	
   621	-3.1507	 3.7740	 0.6233	-2.9959	 4.2145	 1.2186	-1.7180	 5.3557	 3.6376	50.5999	99.8660	
   622	-3.2087	 3.5681	 0.3595	-3.0343	 4.1174	 1.0832	-1.7118	 5.2737	 3.5619	50.5123	99.8712	
   623	-3.1223	 3.5221	 0.3997	-2.9959	 4.2145	 1.2186	-1.5037	 5.3938	 3.8901	50.4350	99.8646	
   624	-2.8878	 3.6948	 0.8070	-2.5084	 4.2700	 1.7617	-1.0708	 5.6337	 4.5630	50.7802	99.8584	
   625	-2.8858	 3.6110	 0.7252	-2.4820	 4.1760	 1.6942	-0.9303	 5.4645	 4.5342	51.4309	99.8576	
   626	-2.8839	 3.6405	 0.7566	-2.4534	 4.4262	 1.9729	-0.7086	 5.6253	 4.9167	51.5831	99.8711	
   627	-2.5587	 3.3728	 0.8141	-1.8895	 4.0513	 2.1619	-0.1826	 5.5590	 5.3765	51.8933	99.8513	
   628	-1.8080	 3.2395	 1.4316	-1.1383	 3.9876	 2.8494	 0.5740	 5.3373	 5.9113	52.7113	99.8714	
   629	-1.3199	 2.9587	 1.6388	-0.5996	 3.8298	 3.2303	 1.1749	 5.1250	 6.2999	53.2756	99.8838	
   630	-0.8793	 2.6345	 1.7552	-0.0676	 3.6679	 3.6004	 1.7145	 5.0994	 6.8140	53.1580	99.8884	
   631	-0.4248	 2.9852	 2.5604	 0.3017	 3.8953	 4.1971	 1.9986	 4.9991	 6.9977	54.0588	99.9070	
   632	-0.5105	 3.3861	 2.8756	 0.0703	 2.2592	 2.3295	-5.7636	10.6967	 4.9330	17.2419	99.1474	
   633	-1.4991	 2.7208	 1.2217	-1.2537	 3.7941	 2.5405	 0.6103	 5.1992	 5.8095	51.5306	99.8528	
   634	-1.5744	 3.3975	 1.8231	-0.9785	 3.9637	 2.9853	 0.9053	 5.0950	 6.0002	54.1151	99.8599	
   635	-0.9904	 3.2183	 2.2279	-0.3860	 3.8390	 3.4530	 1.2404	 5.1018	 6.3423	53.4735	99.8713	
   636	-1.3380	 2.6782	 1.3401	-0.4651	 3.6066	 3.1416	 1.5404	 4.7111	 6.2516	54.7254	99.8964	
   637	-1.4501	 2.2122	 0.7621	-0.2305	 3.1268	 2.8964	 1.4951	 4.6076	 6.1027	54.1115	99.9019	
   638	-1.7558	 2.4352	 0.6794	-0.3705	 3.2609	 2.8904	 1.6934	 4.6571	 6.3505	55.4081	99.8903	
   639	-1.7023	 2.3405	 0.6381	-0.2925	 3.0641	 2.7717	 1.8775	 4.4725	 6.3500	56.0452	99.8759	
   640	-1.8040	 2.1503	 0.3463	-0.4612	 2.7398	 2.2787	 1.8436	 4.0973	 5.9409	56.7897	99.8558	
   641	-1.8608	 1.7325	-0.1283	-0.7330	 2.3152	 1.5823	 1.4630	 3.7079	 5.1709	56.2480	99.8453	
   642	-1.6164	 1.7128	 0.0965	-0.2450	 2.4812	 2.2363	 2.1333	 4.1828	 6.3161	55.9496	99.8329	
   643	 0.0666	 2.2953	 2.3619	 1.2751	 3.0504	 4.3255	 3.5652	 4.6107	 8.1759	56.3810	99.8426	
   644	 0.8965	 2.5793	 3.4758	 1.8607	 3.4356	 5.2964	 3.8980	 4.6696	 8.5676	56.1975	99.8835	
   645	 1.0411	 2.5123	 3.5534	 1.9419	 3.2898	 5.2318	 3.8384	 4.5142	 8.3525	56.1237	99.8844	
   646	 0.7767	 2.1086	 2.8853	 1.6161	 2.9299	 4.5460	 3.3463	 4.3122	 7.6586	55.1687	99.8815	
   647	-0.0146	 2.0751	 2.0605	 0.7842	 2.7357	 3.5200	 2.4143	 4.1234	 6.5377	54.8466	99.8733	
   648	-0.7995	 2.3717	 1.5722	 0.1994	 3.0855	 3.2850	 1.9492	 4.3674	 6.3166	55.0624	99.8906	
   649	-0.6699	 2.7634	 2.0935	 0.1916	 3.3746	 3.5663	 1.8152	 4.7336	 6.5488	54.3325	99.8771	
   650	-0.1705	 2.7731	 2.6026	 0.2690	 3.3733	 3.6424	 1.7746	 4.7081	 6.4827	53.4562	99.8606	
   651	-0.4989	 2.4150	 1.9161	 0.0884	 3.0662	 3.1547	 1.8088	 4.5366	 6.3454	53.8311	99.8446	
   652	 0.2628	 1.9907	 2.2535	 1.2224	 2.7241	 3.9466	 3.3587	 4.1484	 7.5072	56.2594	99.8487	
   653	 0.1313	 1.5695	 1.7008	 1.3969	 2.1093	 3.5063	 3.5458	 3.6439	 7.1897	57.4052	99.8398	
   654	 0.3251	 1.8022	 2.1273	 1.6419	 2.5173	 4.1593	 3.9687	 4.1778	 8.1464	57.0011	99.8328	
   655	 1.2463	 1.8873	 3.1336	 2.2882	 2.6338	 4.9221	 4.3078	 3.9725	 8.2803	57.0128	99.8713	
   656	 1.6508	 1.8102	 3.4610	 2.5297	 2.5745	 5.1043	 4.3202	 3.8087	 8.1289	56.6812	99.8877	
   657	 1.6975	 1.6121	 3.3097	 2.4881	 2.2183	 4.7065	 4.1873	 3.4571	 7.6444	56.8880	99.8764	
   658	 1.7190	 1.4836	 3.2026	 2.5117	 2.1839	 4.6958	 4.3106	 3.3737	 7.6843	57.0860	99.8809	
   659	 1.7328	 1.2369	 2.9697	 2.6865	 1.9855	 4.6722	 4.4963	 3.3081	 7.8044	57.1249	99.8814	
   660	 0.9026	 1.2929	 2.1955	 2.0126	 1.8397	 3.8524	 3.9455	 3.2408	 7.1862	57.5821	99.8592	
   661	 0.5436	 1.4972	 2.0408	 1.7621	 2.0649	 3.8270	 3.9741	 3.3446	 7.3186	58.3638	99.8593	
   662	 0.5416	 1.5810	 2.1226	 1.8904	 2.1562	 4.0467	 4.0671	 3.4996	 7.5667	58.3038	99.8647	
   663	 0.9719	 1.7893	 2.7612	 2.5237	 2.3749	 4.8987	 4.6527	 3.7710	 8.4236	58.5424	99.8764	
   664	 2.3473	 1.6435	 3.9908	 3.5023	 2.4391	 5.9415	 5.4807	 3.8087	 9.2893	57.7181	99.8814	
   665	 2.5707	 1.2990	 3.8696	 3.4491	 1.7942	 5.2434	 5.1628	 3.0726	 8.2354	58.0332	99.8678	
   666	 2.5495	 1.0875	 3.6370	 3.2702	 1.7207	 4.9911	 5.0078	 3.0932	 8.1010	57.2077	99.8583	
   667	 2.3768	 1.1796	 3.5565	 3.1329	 1.7953	 4.9283	 4.9599	 3.2240	 8.1839	57.2092	99.8470	
   668	 2.5028	 1.2856	 3.7883	 3.2585	 1.9461	 5.2047	 5.2550	 3.3987	 8.6537	57.3787	99.8356	
   669	 3.0062	 1.2410	 4.2472	 3.8971	 1.8376	 5.7349	 5.7873	 3.2505	 9.0378	58.0458	99.8511	
   670	 3.2535	 1.1523	 4.4058	 4.1612	 1.8289	 5.9902	 6.2337	 3.2522	 9.4859	58.4087	99.8442	
   671	 3.7735	 1.0187	 4.7922	 4.5543	 1.7160	 6.2705	 6.5458	 3.0622	 9.6081	58.5049	99.8510	
   672	 3.8376	 0.8597	 4.6973	 4.6225	 1.4642	 6.0868	 6.5208	 2.8319	 9.3527	58.6649	99.8481	
   673	 3.9706	 0.7289	 4.6995	 4.7835	 1.3553	 6.1389	 6.8157	 2.7277	 9.5435	59.0937	99.8409	
   674	 4.4227	 0.5819	 5.0046	 5.2145	 1.2290	 6.4436	 7.2746	 2.5656	 9.8402	59.4965	99.8425	
   675	 4.5703	 0.4459	 5.0161	 5.3151	 1.0829	 6.3980	 7.3276	 2.4273	 9.7549	59.4802	99.8412	
   676	 4.6131	 0.3021	 4.9151	 5.4058	 0.8816	 6.2875	 7.4582	 2.1876	 9.6458	60.0617	99.8399	
   677	 4.7354	 0.1222	 4.8577	 5.5284	 0.6756	 6.2041	 7.5419	 2.0043	 9.5462	60.1833	99.8381	
   678	 4.8034	 0.0223	 4.8257	 5.6231	 0.5381	 6.1612	 7.5898	 1.8735	 9.4633	60.3377	99.8394	
   679	 4.8899	-0.1371	 4.7527	 5.6941	 0.4349	 6.1291	 7.7735	 1.7744	 9.5479	60.5210	99.8339	
   680	 5.3021	-0.2094	 5.0927	 6.2419	 0.3194	 6.5614	 8.3406	 1.6481	 9.9886	61.2582	99.8389	
   681	 5.6175	-0.3981	 5.2194	 6.5529	 0.1314	 6.6845	 8.5960	 1.4439	10.0400	61.4790	99.8442	
   682	 5.6875	-0.5818	 5.1057	 6.6124	-0.0523	 6.5603	 8.6617	 1.2385	 9.9002	61.6991	99.8450	
   683	 5.7148	-0.7352	 4.9796	 6.6601	-0.2188	 6.4414	 8.6806	 1.0895	 9.7701	61.7923	99.8454	
   684	 5.7828	-0.8351	 4.9477	 6.7153	-0.3684	 6.3470	 8.6995	 0.9405	 9.6400	61.9431	99.8427	
   685	 5.7509	-0.9823	 4.7686	 6.6714	-0.5546	 6.1168	 8.6508	 0.7812	 9.4320	62.0331	99.8358	
   686	 5.7626	-1.0318	 4.7308	 6.7424	-0.6578	 6.0847	 8.7600	 0.7426	 9.5026	62.2373	99.8250	
   687	 6.0565	-1.0919	 4.9646	 7.1529	-0.6987	 6.4543	 9.2229	 0.6474	 9.8703	62.8665	99.8364	
   688	 6.3156	-1.2301	 5.0855	 7.4528	-0.8567	 6.5962	 9.4483	 0.4994	 9.9477	63.0582	99.8418	
   689	 6.4427	-1.3362	 5.1066	 7.6047	-1.0080	 6.5968	 9.6260	 0.3000	 9.9260	63.5698	99.8422	
   690	 6.4332	-1.4838	 4.9494	 7.5769	-1.2455	 6.3316	 9.5005	 0.0710	 9.5715	63.6857	99.8392	
   691	 6.1802	-1.5971	 4.5831	 7.3898	-1.3485	 6.0413	 9.3470	-0.0683	 9.2787	63.9110	99.8456	
   692	 5.9368	-1.6760	 4.2609	 7.0976	-1.4796	 5.6181	 9.1239	-0.2514	 8.8725	64.1952	99.8375	
   693	 5.7041	-1.7058	 3.9983	 6.9875	-1.4862	 5.5014	 9.1496	-0.2890	 8.8606	64.6214	99.8406	
   694	 5.7942	-1.5795	 4.2147	 7.2200	-1.3797	 5.8405	 9.3778	-0.1134	 9.2644	64.6918	99.8417	
   695	 6.1976	-1.5580	 4.6396	 7.6657	-1.3744	 6.2913	 9.7714	-0.1556	 9.6157	65.0438	99.8518	
   696	 6.3567	-1.6302	 4.7266	 7.8082	-1.4703	 6.3379	 9.8277	-0.2382	 9.5896	65.0105	99.8535	
   697	 6.3899	-1.8082	 4.5816	 7.6750	-1.6380	 6.0371	 9.5213	-0.3235	 9.1978	64.2308	99.8479	
   698	 6.2145	-1.9871	 4.2274	 7.1101	-1.6922	 5.4180	 8.8779	-0.3524	 8.5255	62.9034	99.8364	
   699	 5.9469	-2.0951	 3.8519	 6.5306	-1.6697	 4.8610	 8.2243	-0.3663	 7.8580	61.7749	99.8365	
   700	 4.9915	-1.9035	 3.0880	 5.7582	-1.5334	 4.2249	 7.9058	-0.3734	 7.5325	63.0251	99.8231	
   701	 5.3437	-2.0978	 3.2459	 6.1462	-1.6249	 4.5213	 8.1987	-0.3288	 7.8699	62.5163	99.8283	
   702	 5.7200	-2.0363	 3.6836	 6.6337	-1.5695	 5.0644	 8.7615	-0.3398	 8.4218	63.2524	99.8366	
   703	 6.1060	-2.0539	 4.0520	 7.1082	-1.6200	 5.4883	 9.1274	-0.3779	 8.7495	63.4831	99.8468	
   704	 6.3970	-2.1583	 4.2387	 7.3860	-1.7181	 5.6680	 9.3589	-0.4256	 8.9333	63.4207	99.8448	
   705	 6.6792	-2.1689	 4.5104	 7.8372	-1.8320	 6.0053	 9.7177	-0.4897	 9.2280	63.8788	99.8486	
   706	 6.6483	-2.3013	 4.3470	 7.7108	-1.9955	 5.7153	 9.6281	-0.7712	 8.8569	64.2894	99.8486	
   707	 6.4855	-2.4016	 4.0839	 7.5436	-2.2944	 5.2493	 9.2973	-1.0756	 8.2216	64.5688	99.8433	
   708	 6.1752	-2.4791	 3.6961	 7.2567	-2.2385	 5.0182	 9.1262	-1.0437	 8.0825	64.4098	99.8505	
   709	 6.1763	-2.5777	 3.5986	 7.2436	-2.3445	 4.8991	 9.2065	-1.1005	 8.1060	64.5110	99.8364	
   710	 6.1578	-2.5182	 3.6396	 6.7985	-2.0311	 4.7675	 8.6602	-0.9075	 7.7527	63.0103	99.8505	
   711	 5.2419	-2.0613	 3.1806	 6.0150	-1.8649	 4.1502	 8.1678	-1.0239	 7.1439	64.7895	99.8403	
   712	 5.4243	-3.1541	 2.2702	 6.7328	-2.9775	 3.7554	 9.0012	-1.8194	 7.1818	66.0397	99.8319	
   713	 5.5181	-2.8553	 2.6627	 7.1368	-2.8144	 4.3225	 9.4240	-1.7468	 7.6773	67.1621	99.8489	
   714	 5.7974	-2.9102	 2.8872	 7.0053	-2.7484	 4.2570	 8.8631	-1.5201	 7.3430	64.8977	99.8486	
   715	 5.3967	-2.6607	 2.7359	 6.0483	-2.2606	 3.7878	 8.0921	-1.1680	 6.9241	63.4651	99.8320	
   716	 5.3269	-2.7037	 2.6232	 6.2803	-2.4727	 3.8077	 8.4735	-1.4109	 7.0626	64.9619	99.8289	
   717	 5.8258	-3.1621	 2.6637	 7.1280	-2.9544	 4.1737	 9.1984	-1.6955	 7.5029	65.4562	99.8392	
   718	 6.2126	-3.0516	 3.1611	 7.3503	-2.8052	 4.5452	 9.3737	-1.5639	 7.8099	65.0982	99.8372	
   719	 6.3425	-3.0000	 3.3426	 7.3543	-2.7416	 4.6128	 9.3191	-1.5446	 7.7745	64.8668	99.8391	
   720	 6.3386	-2.9457	 3.3929	 7.3188	-2.6900	 4.6289	 9.2208	-1.5098	 7.7110	64.7005	99.8434	
   721	 6.2979	-2.9991	 3.2989	 7.2366	-2.7651	 4.4717	 9.1761	-1.6022	 7.5739	64.8303	99.8374	
   722	 6.2010	-3.0021	 3.1989	 7.1660	-2.7596	 4.4065	 9.0959	-1.5454	 7.5505	64.6344	99.8353	
   723	 6.1320	-2.9169	 3.2151	 7.1305	-2.7080	 4.4226	 9.0085	-1.5145	 7.4940	64.6654	99.8409	
   724	 6.1601	-2.8287	 3.3313	 7.3125	-2.5836	 4.7290	 9.3910	-1.3707	 8.0203	65.1319	99.8372	
   725	 6.0910	-2.6302	 3.4608	 7.6402	-2.5042	 5.1361	 9.8423	-1.4732	 8.3691	66.8380	99.8621	
   726	 4.9340	-2.5628	 2.3712	 6.6734	-2.5856	 4.0879	 9.2059	-1.7551	 7.4508	68.2508	99.8571	
   727	 3.6925	-2.4197	 1.2728	 5.4785	-2.5994	 2.8792	 8.2902	-1.8586	 6.4316	68.9067	99.8342	
   728	 3.6410	-2.2954	 1.3455	 5.4371	-2.5392	 2.8980	 8.2465	-1.8432	 6.4034	69.1391	99.8341	
   729	 3.5169	-2.3718	 1.1451	 5.1280	-2.6317	 2.4963	 7.9238	-2.0138	 5.9099	69.0764	99.8287	
   730	 3.4150	-2.3353	 1.0797	 5.0194	-2.6129	 2.4066	 7.8060	-2.0235	 5.7825	69.1165	99.8304	
   731	 3.2647	-2.3569	 0.9078	 4.7849	-2.6472	 2.1379	 7.4077	-2.0592	 5.3485	68.6553	99.8366	
   732	 3.3054	-2.3035	 1.0019	 4.9160	-2.6154	 2.3007	 7.7623	-2.0080	 5.7543	69.2108	99.8208	
   733	 4.5926	-2.5461	 2.0465	 6.4727	-2.9051	 3.5677	 8.9083	-2.1567	 6.7516	69.4475	99.8522	
   734	 5.8112	-3.1569	 2.6543	 7.0272	-3.2247	 3.8026	 8.9785	-2.1018	 6.8767	66.3105	99.8311	
   735	 5.9142	-3.2920	 2.6222	 7.0122	-3.2584	 3.7539	 9.0271	-2.2214	 6.8056	66.3115	99.8366	
   736	 5.8657	-3.3502	 2.5155	 6.9442	-3.3125	 3.6319	 8.9312	-2.2388	 6.6924	66.1141	99.8338	
   737	 5.9239	-3.3711	 2.5529	 6.9620	-3.3383	 3.6238	 8.9773	-2.3063	 6.6710	66.2801	99.8327	
   738	 5.9239	-3.3711	 2.5529	 6.9797	-3.3641	 3.6158	 8.9336	-2.2909	 6.6427	66.1483	99.8319	
   739	 5.9471	-3.2434	 2.7037	 7.0197	-3.2415	 3.7783	 9.0271	-2.2214	 6.8056	66.3787	99.8343	
   740	 5.9587	-3.1796	 2.7791	 7.0094	-3.1989	 3.8107	 9.0066	-2.1914	 6.8152	66.3798	99.8330	
   741	 6.0663	-3.1275	 2.9388	 7.2053	-3.1639	 4.0414	 9.2080	-2.1829	 7.0251	66.7073	99.8401	
   742	 6.2194	-3.0616	 3.1579	 7.3656	-3.0774	 4.2883	 9.3741	-2.1106	 7.2635	66.7378	99.8436	
   743	 6.2815	-3.0234	 3.2581	 7.3553	-3.0347	 4.3207	 9.3485	-2.0731	 7.2754	66.5753	99.8409	
   744	 6.2233	-3.0025	 3.2208	 7.3403	-3.0685	 4.2719	 9.2526	-2.0904	 7.1622	66.5776	99.8434	
   745	 6.2145	-3.0220	 3.1925	 7.2554	-3.0840	 4.1715	 9.1908	-2.0971	 7.0937	66.4467	99.8357	
   746	 6.1718	-2.9916	 3.1802	 7.2377	-3.0583	 4.1795	 9.1908	-2.0971	 7.0937	66.5787	99.8384	
   747	 6.1302	-3.0598	 3.0704	 7.1192	-3.0945	 4.0248	 9.0222	-2.1172	 6.9050	66.2167	99.8382	
   748	 6.0720	-3.0389	 3.0331	 7.0813	-3.0811	 4.0003	 9.0659	-2.1327	 6.9333	66.4807	99.8356	
   749	 6.1505	-2.9764	 3.1741	 7.2519	-3.0372	 4.2148	 9.2089	-2.0750	 7.1339	66.6104	99.8410	
   750	 6.2658	-2.9196	 3.3463	 7.3727	-2.9628	 4.4100	 9.4212	-2.0703	 7.3509	66.9698	99.8433	
   751	 6.2658	-2.9196	 3.3463	 7.3577	-2.9965	 4.3613	 9.3048	-2.0576	 7.2472	66.7099	99.8422	
   752	 6.2086	-2.8839	 3.3247	 7.2768	-2.9484	 4.3285	 9.2355	-2.0047	 7.2308	66.5779	99.8404	
   753	 6.1795	-2.8735	 3.3060	 7.2314	-2.9519	 4.2796	 9.1628	-2.0075	 7.1553	66.5134	99.8400	
   754	 6.1330	-2.9021	 3.2308	 7.1533	-2.9634	 4.1900	 9.0669	-2.0248	 7.0421	66.3822	99.8415	
   755	 6.0515	-2.8956	 3.1559	 7.0751	-2.9748	 4.1004	 8.9942	-2.0276	 6.9666	66.3827	99.8386	
   756	 6.0466	-2.8560	 3.1906	 7.0925	-2.9028	 4.1898	 9.0644	-1.9727	 7.0917	66.4467	99.8409	
   757	 6.1601	-2.8287	 3.3313	 7.2591	-2.9227	 4.3365	 9.1371	-1.9699	 7.1672	66.4805	99.8452	
   758	 6.1727	-2.8635	 3.3092	 7.2137	-2.9261	 4.2876	 9.0644	-1.9727	 7.0917	66.2497	99.8461	
   759	 6.1330	-2.9021	 3.2308	 7.1280	-2.9544	 4.1737	 8.9685	-1.9901	 6.9785	66.0845	99.8436	
   760	 6.0952	-2.9112	 3.1839	 7.0751	-2.9748	 4.1004	 8.9324	-2.0342	 6.8981	66.1850	99.8427	
   761	 6.0360	-2.9051	 3.1309	 6.9851	-2.9690	 4.0162	 8.8546	-2.0295	 6.8250	66.1189	99.8397	
   762	 5.9972	-2.9290	 3.0682	 6.9069	-2.9804	 3.9266	 8.6945	-2.0014	 6.6930	65.7188	99.8403	
   763	 5.8954	-2.8925	 3.0029	 6.8260	-2.9323	 3.8938	 8.7235	-1.9832	 6.7403	65.9520	99.8374	
   764	 5.9447	-2.8195	 3.1252	 6.9536	-2.8538	 4.0999	 8.8787	-1.9071	 6.9716	66.1167	99.8415	
   765	 6.0718	-2.8122	 3.2596	 7.0838	-2.8347	 4.2492	 8.9770	-1.9418	 7.0352	66.2501	99.8510	
   766	 6.0563	-2.8217	 3.2345	 7.0495	-2.8681	 4.1815	 8.8811	-1.9592	 6.9219	66.1186	99.8506	
   767	 5.9864	-2.7513	 3.2350	 6.9903	-2.7821	 4.2083	 8.8250	-1.7800	 7.0451	65.7182	99.8428	
   768	 5.9960	-2.7170	 3.2790	 6.9347	-2.7430	 4.1918	 8.7889	-1.8241	 6.9648	65.8519	99.8461	
   769	 5.8700	-2.7096	 3.1604	 6.8549	-2.7799	 4.0752	 8.5510	-1.7913	 6.7597	65.4845	99.8502	
   770	 5.7953	-2.7130	 3.0823	 6.7337	-2.7566	 3.9773	 8.5329	-1.8134	 6.7195	65.6184	99.8463	
   771	 5.8011	-2.7378	 3.0633	 6.6733	-2.7938	 3.8796	 8.4735	-1.8721	 6.6014	65.6184	99.8427	
   772	 5.8283	-2.7778	 3.0506	 6.6986	-2.8027	 3.8960	 8.4916	-1.8500	 6.6416	65.4508	99.8427	
   773	 5.8856	-2.8134	 3.0722	 6.7669	-2.8464	 3.9206	 8.5377	-1.9176	 6.6202	65.5849	99.8469	
   774	 5.8459	-2.8520	 2.9938	 6.6693	-2.8575	 3.8120	 8.4033	-1.9270	 6.4762	65.3155	99.8482	
   775	 5.7498	-2.8403	 2.9096	 6.5557	-2.8173	 3.7385	 8.2722	-1.8807	 6.3915	65.0794	99.8503	
   776	 5.6916	-2.8194	 2.8722	 6.5229	-2.8252	 3.6978	 8.2490	-1.8953	 6.3537	65.2141	99.8494	
   777	 5.6685	-2.9471	 2.7214	 6.4135	-3.0273	 3.3862	 8.0826	-2.2465	 5.8362	65.7202	99.8565	
   778	 5.3119	-3.2800	 2.0319	 5.9605	-3.3553	 2.6053	 7.5924	-2.5117	 5.0807	65.3088	99.8462	
   779	 4.8979	-3.3506	 1.5473	 5.4749	-3.4831	 1.9919	 6.9964	-2.5858	 4.4106	64.7852	99.8388	
   780	 4.3276	-3.3047	 1.0229	 4.9491	-3.4275	 1.5217	 6.3915	-2.4404	 3.9511	64.0521	99.8395	
   781	 4.3165	-2.9003	 1.4162	 5.0382	-2.9319	 2.1064	 6.5222	-1.9400	 4.5822	63.7230	99.8519	
   782	 3.9263	-2.4884	 1.4378	 4.8655	-2.5975	 2.2680	 6.3818	-1.7708	 4.6110	64.4828	99.8741	
   783	 3.4663	-2.2328	 1.2335	 4.4559	-2.3357	 2.1203	 6.0164	-1.5392	 4.4772	64.3113	99.8779	
   784	 3.0385	-2.0567	 0.9818	 4.0391	-2.1884	 1.8507	 5.6801	-1.4716	 4.2085	64.4808	99.8784	
   785	 2.7911	-1.9680	 0.8231	 3.7715	-2.1329	 1.6386	 5.4941	-1.5027	 3.9914	64.7887	99.8769	
   786	 2.6389	-2.0191	 0.6197	 3.6104	-2.2322	 1.3783	 5.2000	-1.5696	 3.6304	64.5047	99.8789	
   787	 2.4401	-2.0990	 0.3412	 3.3963	-2.3518	 1.0447	 5.0137	-1.6974	 3.3163	64.6407	99.8733	
   788	 2.3675	-2.1862	 0.1813	 3.3209	-2.4227	 0.8983	 4.9588	-1.7748	 3.1840	64.6753	99.8735	
   789	 2.4015	-2.2362	 0.1653	 3.3153	-2.5119	 0.8036	 4.8988	-1.8447	 3.0541	64.6016	99.8697	
   790	 2.4287	-2.2761	 0.1525	 3.2802	-2.5580	 0.7223	 4.7527	-1.8614	 2.8913	64.2087	99.8704	
   791	 2.5742	-2.3283	 0.2459	 3.2979	-2.5838	 0.7142	 4.7732	-1.8914	 2.8818	63.9928	99.8645	
   792	 2.4733	-2.2770	 0.1963	 3.2044	-2.5312	 0.6733	 4.6762	-1.8344	 2.8419	63.8865	99.8650	
   793	 2.2928	-2.1896	 0.1032	 2.9972	-2.4385	 0.5588	 4.4891	-1.7910	 2.6981	63.8469	99.8674	
   794	 2.0464	-2.0862	-0.0398	 2.8101	-2.3334	 0.4769	 4.3498	-1.6963	 2.6535	63.8859	99.8690	
   795	 1.9251	-2.0049	-0.0798	 2.7099	-2.2849	 0.4251	 4.2528	-1.6392	 2.6136	63.8854	99.8665	
   796	 1.9367	-1.9410	-0.0044	 2.7123	-2.2467	 0.4656	 4.2760	-1.6246	 2.6514	64.0261	99.8645	
   797	 1.8484	-1.9245	-0.0761	 2.6239	-2.2155	 0.4085	 4.1545	-1.6045	 2.5500	63.8818	99.8695	
   798	 1.7418	-1.9618	-0.2200	 2.4869	-2.2387	 0.2483	 4.0617	-1.6628	 2.3989	63.9505	99.8689	
   799	 1.7447	-2.0308	-0.2861	 2.5074	-2.3240	 0.1835	 4.0833	-1.7672	 2.3161	64.1620	99.8704	
   800	 1.7846	-2.1056	-0.3210	 2.5598	-2.4141	 0.1458	 4.0792	-1.8341	 2.2451	64.1243	99.8717	
   801	 1.8186	-2.1555	-0.3370	 2.5626	-2.4736	 0.0890	 4.0906	-1.9235	 2.1670	64.2638	99.8711	
   802	 1.8051	-2.2489	-0.4438	 2.5242	-2.5707	-0.0464	 4.0087	-1.9857	 2.0230	64.0822	99.8688	
   803	 1.7498	-2.2971	-0.5472	 2.4966	-2.6000	-0.1033	 4.0702	-2.0758	 1.9944	64.4771	99.8716	
   804	 1.7479	-2.3266	-0.5787	 2.5009	-2.6341	-0.1331	 4.0733	-2.1167	 1.9566	64.5479	99.8723	
   805	 1.8246	-2.4070	-0.5824	 2.5340	-2.7238	-0.1897	 4.0242	-2.1905	 1.8337	64.3646	99.8732	
   806	 1.8781	-2.5017	-0.6236	 2.4973	-2.7955	-0.2981	 3.9905	-2.2867	 1.7038	64.2886	99.8714	
   807	 1.9819	-2.6221	-0.6401	 2.5524	-2.9451	-0.3926	 3.9895	-2.3946	 1.5950	64.1762	99.8655	
   808	 2.0227	-2.6820	-0.6593	 2.5315	-2.9702	-0.4386	 3.9363	-2.3530	 1.5833	63.7073	99.8600	
   809	 2.0654	-2.7124	-0.6470	 2.5493	-2.9960	-0.4467	 3.9485	-2.3345	 1.6140	63.5282	99.8544	
   810	 2.1208	-2.7776	-0.6568	 2.5883	-3.0944	-0.5060	 3.9271	-2.4124	 1.5147	63.4857	99.8527	
   811	 2.1549	-2.9409	-0.7861	 2.5416	-3.2211	-0.6794	 3.8729	-2.4786	 1.3942	63.1215	99.8442	
   812	 2.1666	-2.9904	-0.8239	 2.5081	-3.2418	-0.7336	 3.8606	-2.4971	 1.3635	63.0124	99.8416	
   813	 2.1569	-3.0247	-0.8679	 2.4879	-3.2542	-0.7661	 3.7623	-2.4623	 1.2999	62.6099	99.8442	
   814	 2.1482	-3.0443	-0.8961	 2.4425	-3.2577	-0.8150	 3.7558	-2.4771	 1.2787	62.6099	99.8411	
   815	 2.1104	-3.0534	-0.9430	 2.3837	-3.2694	-0.8856	 3.6657	-2.4908	 1.1749	62.4938	99.8421	
   816	 2.0930	-3.0925	-0.9995	 2.3047	-3.2936	-0.9887	 3.5500	-2.4670	 1.0829	62.0867	99.8367	
   817	 2.0774	-3.1020	-1.0246	 2.2207	-3.2964	-1.0756	 3.4862	-2.5071	 0.9791	62.0769	99.8347	
   818	 2.0464	-3.1211	-1.0747	 2.1626	-3.2954	-1.1327	 3.4083	-2.5024	 0.9059	61.8892	99.8359	
   819	 2.0299	-3.0321	-1.0022	 2.1943	-3.2025	-1.0081	 3.4936	-2.3845	 1.1091	61.9437	99.8327	
   820	 2.1122	-2.9105	-0.7983	 2.3586	-3.0523	-0.6936	 3.6072	-2.2595	 1.3477	61.9538	99.8488	
   821	 2.1489	-2.8028	-0.6539	 2.4146	-2.9810	-0.5663	 3.6208	-2.2187	 1.4020	62.0569	99.8536	
   822	 2.1606	-2.8523	-0.6917	 2.3838	-3.0612	-0.6773	 3.5652	-2.3073	 1.2579	62.0802	99.8505	
   823	 2.0299	-3.0321	-1.0022	 2.1607	-3.2232	-1.0624	 3.3660	-2.4646	 0.9013	61.9188	99.8428	
   824	 2.1475	-3.2858	-1.1383	 2.0923	-3.3877	-1.2953	 3.2602	-2.5526	 0.7077	61.1316	99.8318	
   825	 2.1920	-3.1733	-0.9813	 2.1271	-3.2438	-1.1166	 3.2973	-2.4005	 0.8968	60.9203	99.8333	
   826	 2.2053	-2.9666	-0.7612	 2.2259	-3.1095	-0.8835	 3.3826	-2.2826	 1.1000	61.2211	99.8359	
   827	 2.2275	-2.8537	-0.6261	 2.2599	-2.9784	-0.7184	 3.4678	-2.1647	 1.3031	61.2723	99.8359	
   828	 2.3253	-2.7226	-0.3972	 2.4108	-2.8365	-0.4256	 3.5571	-1.9799	 1.5772	61.0301	99.8415	
   829	 2.3475	-2.6096	-0.2621	 2.4045	-2.7302	-0.3255	 3.4925	-1.8489	 1.6436	60.6944	99.8411	
   830	 2.2573	-2.5093	-0.2520	 2.3394	-2.6356	-0.2960	 3.4105	-1.7288	 1.6817	60.5157	99.8411	
   831	 2.2513	-2.3712	-0.1199	 2.3253	-2.4484	-0.1230	 3.4360	-1.5841	 1.8519	60.4540	99.8469	
   832	 2.2357	-2.2674	-0.0317	 2.3427	-2.3765	-0.0336	 3.4278	-1.5356	 1.8922	60.5597	99.8511	
   833	 2.2153	-2.2374	-0.0221	 2.2997	-2.3417	-0.0419	 3.3417	-1.4824	 1.8593	60.2961	99.8515	
   834	 2.1202	-2.2108	-0.0906	 2.1987	-2.3060	-0.1073	 3.2434	-1.4477	 1.7957	60.1838	99.8518	
   835	 2.0707	-2.1704	-0.0997	 2.1936	-2.2847	-0.0911	 3.2229	-1.4177	 1.8052	60.2234	99.8535	
   836	 2.0804	-2.1361	-0.0557	 2.1715	-2.2249	-0.0533	 3.2546	-1.3549	 1.8997	60.1607	99.8491	
   837	 2.1007	-2.0527	 0.0479	 2.2142	-2.1618	 0.0524	 3.2914	-1.2995	 1.9919	60.2365	99.8502	
   838	 2.0676	-1.9880	 0.0796	 2.2039	-2.1192	 0.0848	 3.2504	-1.2395	 2.0109	60.1623	99.8504	
   839	 2.0463	-1.9728	 0.0735	 2.1668	-2.0931	 0.0739	 3.2176	-1.2279	 1.9897	60.1228	99.8516	
   840	 1.9754	-1.9172	 0.0583	 2.1238	-2.0583	 0.0656	 3.1643	-1.1863	 1.9780	60.1228	99.8517	
   841	 1.9405	-1.8820	 0.0585	 2.0631	-1.9978	 0.0653	 3.1766	-1.1679	 2.0087	60.2381	99.8510	
   842	 1.9201	-1.8520	 0.0681	 2.0706	-1.9810	 0.0897	 3.1233	-1.1263	 1.9971	60.0882	99.8540	
   843	 1.9307	-1.8029	 0.1278	 2.0805	-1.9259	 0.1547	 3.1345	-1.0334	 2.1011	59.9155	99.8504	
   844	 1.9510	-1.7196	 0.2314	 2.0876	-1.8113	 0.2764	 3.1785	-0.9522	 2.2263	59.9241	99.8532	
   845	 1.9238	-1.6796	 0.2442	 2.0497	-1.7979	 0.2519	 3.1386	-0.9665	 2.1720	60.0224	99.8531	
   846	 1.8219	-1.6431	 0.1789	 1.9740	-1.7711	 0.2029	 3.0403	-0.9318	 2.1084	59.9465	99.8551	
   847	 1.8151	-1.6331	 0.1821	 1.9385	-1.7196	 0.2190	 3.0269	-0.8758	 2.1511	59.7707	99.8547	
   848	 1.8006	-1.6278	 0.1727	 1.9436	-1.7409	 0.2028	 2.9747	-0.9086	 2.0661	59.7928	99.8594	
   849	 1.7395	-1.6513	 0.0882	 1.8681	-1.8118	 0.0564	 2.9051	-0.9524	 1.9527	59.8203	99.8506	
   850	 1.6930	-1.6799	 0.0131	 1.7975	-1.8064	-0.0088	 2.8396	-0.9292	 1.9103	59.6023	99.8497	
   851	 1.7482	-1.6317	 0.1165	 1.8729	-1.7354	 0.1376	 2.9286	-0.8411	 2.0875	59.5480	99.8504	
   852	 1.7675	-1.5631	 0.2044	 1.8903	-1.6635	 0.2269	 2.9736	-0.8342	 2.1394	59.7654	99.8554	
   853	 1.7288	-1.5870	 0.1418	 1.8477	-1.7265	 0.1212	 2.8507	-0.8364	 2.0144	59.4933	99.8514	
   854	 1.6017	-1.5943	 0.0074	 1.7316	-1.7246	 0.0071	 2.7535	-0.8760	 1.8775	59.5968	99.8560	
   855	 1.5649	-1.5886	-0.0237	 1.6736	-1.7236	-0.0499	 2.7207	-0.8645	 1.8563	59.5604	99.8509	
   856	 1.5435	-1.5734	-0.0299	 1.6432	-1.6933	-0.0500	 2.6674	-0.8229	 1.8446	59.3748	99.8523	
   857	 1.5241	-1.5287	-0.0046	 1.6077	-1.6417	-0.0339	 2.6541	-0.7669	 1.8872	59.3059	99.8497	
   858	 1.4765	-1.4587	 0.0178	 1.5998	-1.5609	 0.0391	 2.6581	-0.7000	 1.9581	59.3537	99.8541	
   859	 1.5472	-1.4010	 0.1462	 1.6702	-1.4686	 0.2017	 2.7420	-0.6044	 2.1377	59.2602	99.8559	
   860	 1.6015	-1.3676	 0.2339	 1.7408	-1.4740	 0.2669	 2.7871	-0.5975	 2.1896	59.3307	99.8543	
   861	 1.5870	-1.3624	 0.2246	 1.6726	-1.4304	 0.2423	 2.7543	-0.5859	 2.1684	59.2544	99.8546	
   862	 1.5966	-1.3281	 0.2686	 1.6951	-1.3798	 0.3154	 2.7532	-0.5115	 2.2417	59.0792	99.8565	
   863	 1.5772	-1.2833	 0.2939	 1.7152	-1.3674	 0.3479	 2.7532	-0.5115	 2.2417	59.2220	99.8592	
   864	 1.5248	-1.2872	 0.2376	 1.6193	-1.3530	 0.2664	 2.7010	-0.5443	 2.1567	59.2868	99.8593	
   865	 1.4521	-1.2611	 0.1910	 1.5309	-1.3218	 0.2092	 2.5771	-0.4721	 2.1050	58.9525	99.8573	
   866	 1.4239	-1.2359	 0.1880	 1.5309	-1.3218	 0.2092	 2.5771	-0.4721	 2.1050	59.0634	99.8570	
   867	 1.4627	-1.2120	 0.2506	 1.5913	-1.2846	 0.3069	 2.6538	-0.4024	 2.2514	59.0108	99.8550	
   868	 1.5024	-1.1734	 0.3290	 1.6265	-1.2384	 0.3882	 2.7060	-0.3696	 2.3364	59.0529	99.8555	
   869	 1.4879	-1.1682	 0.3197	 1.6012	-1.2295	 0.3718	 2.6661	-0.3840	 2.2821	59.0430	99.8587	
   870	 1.4432	-1.1673	 0.2760	 1.5483	-1.2498	 0.2986	 2.5883	-0.3792	 2.2090	58.9243	99.8555	
   871	 1.4141	-1.1569	 0.2573	 1.4927	-1.2107	 0.2821	 2.5555	-0.3677	 2.1878	58.8860	99.8574	
   872	 1.4015	-1.1221	 0.2794	 1.5002	-1.1938	 0.3065	 2.5678	-0.3492	 2.2185	58.9626	99.8567	
   873	 1.3724	-1.1117	 0.2607	 1.4749	-1.1849	 0.2901	 2.5094	-0.3001	 2.2092	58.7431	99.8553	
   874	 1.3297	-1.0812	 0.2485	 1.4260	-1.1416	 0.2845	 2.4889	-0.2701	 2.2188	58.7473	99.8552	
   875	 1.3821	-1.0774	 0.3047	 1.4789	-1.1212	 0.3578	 2.5995	-0.2864	 2.3131	58.9786	99.8560	
   876	 1.3694	-1.0426	 0.3268	 1.4864	-1.1043	 0.3822	 2.5738	-0.2489	 2.3250	58.9043	99.8563	
   877	 1.3258	-1.0270	 0.2988	 1.4233	-1.0820	 0.3413	 2.5083	-0.2257	 2.2826	58.7897	99.8557	
   878	 1.3063	-0.9822	 0.3241	 1.4256	-1.0438	 0.3819	 2.4949	-0.1698	 2.3252	58.7214	99.8560	
   879	 1.2791	-0.9422	 0.3369	 1.4079	-1.0180	 0.3900	 2.4622	-0.1582	 2.3040	58.7514	99.8581	
   880	 1.2481	-0.9613	 0.2868	 1.3550	-1.0384	 0.3167	 2.4100	-0.1910	 2.2190	58.7410	99.8577	
   881	 1.1754	-0.9352	 0.2401	 1.2918	-1.0161	 0.2759	 2.3772	-0.1794	 2.1978	58.8176	99.8568	
   882	 1.2054	-0.9309	 0.2745	 1.3195	-0.9868	 0.3328	 2.3966	-0.1350	 2.2616	58.6790	99.8580	
   883	 1.2491	-0.9466	 0.3025	 1.3625	-1.0215	 0.3411	 2.4294	-0.1466	 2.2828	58.6790	99.8546	
   884	 1.2073	-0.9014	 0.3059	 1.2942	-0.9779	 0.3165	 2.3966	-0.1350	 2.2616	58.7473	99.8532	
   885	 1.2015	-0.8766	 0.3249	 1.2781	-0.9266	 0.3516	 2.3833	-0.0791	 2.3042	58.6066	99.8542	
   886	 1.1888	-0.8419	 0.3470	 1.3033	-0.9355	 0.3679	 2.3505	-0.0675	 2.2830	58.5982	99.8554	
   887	 1.1482	-0.8953	 0.2529	 1.2236	-0.9724	 0.2512	 2.2911	-0.1262	 2.1649	58.5876	99.8548	
   888	 1.1035	-0.8944	 0.2092	 1.1604	-0.9501	 0.2104	 2.2327	-0.0771	 2.1556	58.3721	99.8522	
   889	 1.0754	-0.8692	 0.2062	 1.1352	-0.9412	 0.1941	 2.2000	-0.0655	 2.1344	58.3677	99.8513	
   890	 1.0909	-0.8596	 0.2313	 1.1754	-0.9164	 0.2592	 2.2450	-0.0587	 2.1863	58.4489	99.8560	
   891	 1.1151	-0.8305	 0.2846	 1.1719	-0.8696	 0.3024	 2.2644	-0.0143	 2.2501	58.3808	99.8541	
   892	 1.0957	-0.7858	 0.3099	 1.1794	-0.8527	 0.3268	 2.2511	 0.0417	 2.2927	58.3128	99.8510	
   893	 1.0084	-0.7545	 0.2539	 1.1364	-0.8180	 0.3185	 2.2183	 0.0532	 2.2715	58.4279	99.8561	
   894	 0.9240	-0.7922	 0.1318	 1.1013	-0.8641	 0.2372	 2.2450	-0.0587	 2.1863	58.9063	99.8606	
   895	 0.9309	-0.9156	 0.0154	 1.0874	-0.9829	 0.1046	 2.1515	-0.1281	 2.0234	58.5961	99.8606	
   896	 0.8321	-0.9481	-0.1160	 0.9496	-1.0188	-0.0691	 2.0092	-0.1747	 1.8346	58.5021	99.8591	
   897	 0.7787	-0.9667	-0.1880	 0.8789	-1.0133	-0.1343	 1.9218	-0.1438	 1.7780	58.2433	99.8587	
   898	 0.8436	-0.8843	-0.0406	 0.9812	-0.9258	 0.0555	 2.0931	-0.0790	 2.0141	58.5300	99.8588	
   899	 0.9629	-0.8817	 0.0812	 1.0696	-0.9571	 0.1126	 2.1478	-0.0983	 2.0494	58.5172	99.8550	
   900	 0.9398	-1.0094	-0.0696	 0.9421	-1.0357	-0.0935	 2.0092	-0.1747	 1.8346	58.1615	99.8526	
   901	 0.8564	-1.0324	-0.1760	 0.8615	-1.0853	-0.2237	 1.9229	-0.2182	 1.7047	58.1867	99.8502	
   902	 0.8254	-1.0515	-0.2261	 0.7909	-1.0798	-0.2889	 1.8707	-0.2510	 1.6197	58.1754	99.8522	
   903	 0.7439	-1.0449	-0.3010	 0.7431	-1.1215	-0.3783	 1.7915	-0.2686	 1.5230	58.2029	99.8501	
   904	 0.6780	-1.1422	-0.4641	 0.5717	-1.1781	-0.6063	 1.6312	-0.3372	 1.2940	57.9166	99.8465	
   905	 0.5607	-1.1152	-0.5545	 0.5338	-1.1647	-0.6308	 1.5850	-0.2696	 1.3154	57.8645	99.8459	
   906	 0.5984	-0.9927	-0.3943	 0.6014	-1.0129	-0.4114	 1.6839	-0.1110	 1.5729	57.8245	99.8477	
   907	 0.5178	-0.8580	-0.3403	 0.5379	-0.8929	-0.3548	 1.6583	-0.0734	 1.5848	58.1138	99.8534	
   908	 0.4440	-0.8467	-0.4027	 0.4724	-0.9088	-0.4363	 1.5176	-0.0010	 1.5166	57.7009	99.8482	
   909	 0.3673	-0.7663	-0.3990	 0.4318	-0.8358	-0.4040	 1.5261	 0.0473	 1.5734	57.8997	99.8488	
   910	 0.5817	-0.7903	-0.2086	 0.6252	-0.8391	-0.2138	 1.7435	 0.0445	 1.7880	57.9911	99.8472	
   911	 0.7291	-0.8130	-0.0838	 0.7211	-0.8535	-0.1323	 1.8213	 0.0398	 1.8611	57.8751	99.8447	
   912	 0.6865	-0.8959	-0.2094	 0.6086	-0.8983	-0.2896	 1.6828	-0.0366	 1.6463	57.6596	99.8487	
   913	 0.6517	-0.9741	-0.3224	 0.5659	-0.9613	-0.3953	 1.7033	-0.0666	 1.6367	57.6788	99.8406	
   914	 0.7186	-0.9754	-0.2568	 0.6745	-0.9801	-0.3056	 1.7774	-0.0415	 1.7359	57.6545	99.8400	
   915	 0.6739	-0.8612	-0.1873	 0.6757	-0.8570	-0.1811	 1.7886	 0.0513	 1.8399	57.7415	99.8469	
   916	 0.7040	-0.8568	-0.1529	 0.6252	-0.8391	-0.2138	 1.7107	 0.0561	 1.7668	57.4943	99.8460	
   917	 0.6487	-0.9050	-0.2563	 0.5379	-0.8929	-0.3548	 1.6173	-0.0134	 1.6039	57.4721	99.8453	
   918	 0.5876	-0.9284	-0.3408	 0.5178	-0.9053	-0.3874	 1.5916	 0.0241	 1.6158	57.3436	99.8444	
   919	 0.5905	-0.8841	-0.2936	 0.5277	-0.8502	-0.3224	 1.6162	 0.0610	 1.6772	57.3875	99.8467	
   920	 0.6244	-0.8207	-0.1963	 0.5972	-0.7706	-0.1733	 1.7168	 0.1564	 1.8732	57.4198	99.8466	
   921	 0.6855	-0.7973	-0.1118	 0.6679	-0.7761	-0.1081	 1.7509	 0.1671	 1.9181	57.4148	99.8459	
   922	 0.6855	-0.7973	-0.1118	 0.6679	-0.7761	-0.1081	 1.7496	 0.1448	 1.8944	57.4825	99.8484	
   923	 0.6961	-0.7482	-0.0522	 0.7350	-0.7347	 0.0004	 1.8103	 0.2259	 2.0362	57.4708	99.8481	
   924	 0.7338	-0.6258	 0.1080	 0.7816	-0.6081	 0.1737	 1.8576	 0.3629	 2.2205	57.3771	99.8481	
   925	 0.7308	-0.5567	 0.1741	 0.7588	-0.5609	 0.1979	 1.8576	 0.3629	 2.2205	57.5481	99.8479	
   926	 0.6775	-0.5754	 0.1021	 0.7185	-0.5857	 0.1328	 1.8164	 0.3262	 2.1426	57.6156	99.8496	
   927	 0.5872	-0.4750	 0.1122	 0.6996	-0.4750	 0.2247	 1.8186	 0.4564	 2.2750	57.6108	99.8520	
   928	 0.7540	-0.4291	 0.3249	 0.8070	-0.4088	 0.3983	 1.9558	 0.5104	 2.4662	57.5819	99.8486	
   929	 0.7113	-0.3986	 0.3126	 0.7600	-0.4377	 0.3224	 1.8637	 0.4632	 2.3269	57.6590	99.8484	
   930	 0.7113	-0.3986	 0.3126	 0.7616	-0.4123	 0.3494	 1.8575	 0.5451	 2.4026	57.3845	99.8455	
   931	 0.6384	-0.2592	 0.3792	 0.7199	-0.2544	 0.4656	 1.8257	 0.6646	 2.4902	57.3944	99.8530	
   932	 0.5763	-0.1840	 0.3922	 0.6279	-0.1763	 0.4517	 1.7017	 0.7368	 2.4385	57.1577	99.8544	
   933	 0.4763	-0.1180	 0.3583	 0.5470	-0.1282	 0.4189	 1.6362	 0.7600	 2.3961	57.2636	99.8556	
   934	 0.4210	-0.0528	 0.3682	 0.5309	-0.0770	 0.4540	 1.6228	 0.8159	 2.4387	57.3098	99.8564	
   935	 0.4355	-0.0580	 0.3775	 0.5435	-0.0814	 0.4622	 1.6812	 0.7668	 2.4480	57.5675	99.8574	
   936	 0.3580	-0.1057	 0.2522	 0.4546	-0.1607	 0.2941	 1.5478	 0.6830	 2.2308	57.5359	99.8577	
   937	 0.2009	-0.1174	 0.0835	 0.2790	-0.1832	 0.0959	 1.3754	 0.6927	 2.0681	57.3423	99.8517	
   938	 0.1446	-0.0670	 0.0776	 0.2375	-0.1230	 0.1146	 1.3221	 0.7343	 2.0564	57.3035	99.8567	
   939	 0.1164	-0.0418	 0.0747	 0.1870	-0.1051	 0.0820	 1.2894	 0.7459	 2.0352	57.2984	99.8537	
   940	 0.1446	-0.0670	 0.0776	 0.1795	-0.1220	 0.0576	 1.2894	 0.7459	 2.0352	57.1869	99.8495	
   941	 0.1979	-0.0483	 0.1496	 0.2399	-0.0848	 0.1552	 1.3911	 0.7669	 2.1579	57.3160	99.8501	
   942	 0.2590	-0.0249	 0.2341	 0.2794	-0.0727	 0.2068	 1.3777	 0.8228	 2.2005	57.0520	99.8472	
   943	 0.2909	 0.0090	 0.2999	 0.3323	-0.0524	 0.2801	 1.4176	 0.8372	 2.2548	57.1271	99.8492	
   944	 0.2609	 0.0046	 0.2655	 0.2995	-0.0603	 0.2393	 1.3777	 0.8228	 2.2005	57.1194	99.8499	
   945	 0.2318	 0.0151	 0.2468	 0.2439	-0.0211	 0.2229	 1.3316	 0.8904	 2.2220	56.8706	99.8469	
   946	 0.2133	 0.0746	 0.2879	 0.2656	 0.0167	 0.2825	 1.3644	 0.8788	 2.2431	57.1634	99.8522	
   947	 0.1706	 0.1050	 0.2756	 0.2100	 0.0559	 0.2660	 1.3060	 0.9279	 2.2338	57.0157	99.8513	
   948	 0.2171	 0.1336	 0.3508	 0.2696	 0.0804	 0.3501	 1.3858	 0.9566	 2.3424	57.1037	99.8498	
   949	 0.2355	 0.1875	 0.4230	 0.2973	 0.1097	 0.4071	 1.4148	 0.9748	 2.3896	57.2123	99.8494	
   950	 0.1899	 0.1736	 0.3635	 0.2392	 0.1107	 0.3500	 1.3530	 0.9682	 2.3212	57.1322	99.8510	
   951	 0.0871	 0.1954	 0.2825	 0.1433	 0.1250	 0.2685	 1.2404	 0.9510	 2.1915	57.1506	99.8555	
   952	 0.0279	 0.2015	 0.2294	 0.0786	 0.1219	 0.2006	 1.1858	 0.9703	 2.1561	57.0780	99.8510	
   953	-0.0021	 0.1972	 0.1950	 0.0332	 0.1184	 0.1517	 1.1131	 0.9676	 2.0806	56.9533	99.8522	
   954	-0.0157	 0.2171	 0.2014	 0.0660	 0.1263	 0.1924	 1.1602	 1.0079	 2.1680	57.0131	99.8498	
   955	 0.0705	 0.2844	 0.3549	 0.1801	 0.1966	 0.3768	 1.2813	 1.0733	 2.3545	57.1062	99.8521	
   956	 0.1190	 0.3426	 0.4615	 0.1967	 0.2558	 0.4526	 1.3212	 1.0876	 2.4088	57.2098	99.8529	
   957	 0.1190	 0.3426	 0.4615	 0.1841	 0.2603	 0.4445	 1.2884	 1.0992	 2.3876	57.0934	99.8533	
   958	 0.0763	 0.3730	 0.4493	 0.1099	 0.3125	 0.4225	 1.2229	 1.1224	 2.3452	57.0105	99.8555	
   959	 0.0200	 0.4234	 0.4434	 0.1174	 0.3294	 0.4469	 1.1973	 1.1599	 2.3571	57.0520	99.8574	
   960	-0.0091	 0.4339	 0.4247	 0.0720	 0.3259	 0.3980	 1.1573	 1.1455	 2.3028	57.0780	99.8557	
   961	-0.0247	 0.4243	 0.3997	 0.0720	 0.3259	 0.3980	 1.1573	 1.1455	 2.3028	57.0831	99.8577	
   962	 0.0345	 0.4182	 0.4527	 0.0972	 0.3170	 0.4143	 1.1901	 1.1339	 2.3240	57.0780	99.8547	
   963	 0.0209	 0.4382	 0.4591	 0.0795	 0.3428	 0.4224	 1.1645	 1.1715	 2.3359	56.9690	99.8544	
   964	 0.0141	 0.4482	 0.4623	 0.0542	 0.3517	 0.4061	 1.1317	 1.1830	 2.3147	56.8885	99.8533	
   965	-0.0237	 0.4391	 0.4154	 0.0088	 0.3482	 0.3572	 1.0846	 1.1427	 2.2274	56.9481	99.8573	
   966	-0.0683	 0.4400	 0.3717	-0.0306	 0.3362	 0.3056	 1.0044	 1.1996	 2.2039	56.6542	99.8525	
   967	-0.1101	 0.4852	 0.3751	-0.0796	 0.3795	 0.3000	 1.0044	 1.1996	 2.2039	56.8389	99.8525	
   968	-0.1023	 0.4899	 0.3876	-0.0898	 0.4221	 0.3324	 1.0334	 1.2178	 2.2512	56.8495	99.8541	
   969	-0.0267	 0.5081	 0.4815	-0.0049	 0.4377	 0.4329	 1.0804	 1.2581	 2.3385	56.7431	99.8550	
   970	 0.0053	 0.5420	 0.5473	 0.0093	 0.4587	 0.4681	 1.0876	 1.2840	 2.3716	56.7014	99.8527	
   971	-0.0393	 0.5429	 0.5036	-0.0302	 0.4466	 0.4165	 1.0477	 1.2697	 2.3173	56.7324	99.8521	
   972	-0.0703	 0.5238	 0.4535	-0.1008	 0.4521	 0.3513	 0.9859	 1.2630	 2.2489	56.6123	99.8521	
   973	-0.1149	 0.5247	 0.4097	-0.1387	 0.4655	 0.3268	 0.9531	 1.2746	 2.2277	56.5786	99.8535	
   974	-0.0975	 0.5638	 0.4662	-0.1095	 0.5202	 0.4108	 0.9893	 1.3188	 2.3080	56.5896	99.8564	
   975	-0.1238	 0.6185	 0.4947	-0.0894	 0.5326	 0.4433	 0.9688	 1.3488	 2.3176	56.6232	99.8573	
   976	-0.0791	 0.6176	 0.5385	-0.0625	 0.5491	 0.4867	 1.0087	 1.3632	 2.3718	56.5923	99.8568	
   977	-0.0627	 0.6419	 0.5792	-0.0660	 0.5959	 0.5300	 1.0486	 1.3775	 2.4261	56.6731	99.8574	
   978	-0.0725	 0.7210	 0.6485	-0.0190	 0.6249	 0.6059	 1.0629	 1.4294	 2.4923	56.7511	99.8571	
   979	-0.0570	 0.7305	 0.6736	-0.0368	 0.6507	 0.6140	 1.0629	 1.4294	 2.4923	56.7458	99.8576	
   980	-0.1307	 0.7418	 0.6112	-0.0822	 0.6472	 0.5651	 0.9831	 1.4007	 2.3837	56.8025	99.8635	
   981	-0.1481	 0.7028	 0.5547	-0.1544	 0.6272	 0.4728	 0.9104	 1.3979	 2.3083	56.5704	99.8597	
   982	-0.2082	 0.6941	 0.4859	-0.1762	 0.5893	 0.4132	 0.8885	 1.4056	 2.2941	56.5814	99.8550	
   983	-0.1607	 0.7375	 0.5768	-0.1327	 0.6650	 0.5324	 1.0230	 1.4150	 2.4380	56.8990	99.8573	
   984	-0.0696	 0.7653	 0.6957	-0.0352	 0.6761	 0.6410	 1.0701	 1.4553	 2.5254	56.7874	99.8573	
   985	-0.0764	 0.7753	 0.6989	-0.0605	 0.6851	 0.6247	 1.0373	 1.4669	 2.5042	56.7068	99.8562	
   986	-0.1055	 0.7857	 0.6802	-0.1287	 0.7287	 0.6001	 0.9717	 1.4901	 2.4618	56.5505	99.8584	
   987	-0.1492	 0.8014	 0.6522	-0.1236	 0.7074	 0.5839	 0.9646	 1.4641	 2.4287	56.7324	99.8600	
   988	-0.1579	 0.7818	 0.6240	-0.1453	 0.6695	 0.5243	 0.9574	 1.4382	 2.3956	56.7661	99.8550	
   989	-0.2034	 0.7679	 0.5645	-0.2101	 0.6664	 0.4564	 0.8629	 1.4431	 2.3060	56.5677	99.8561	
   990	-0.2335	 0.7636	 0.5301	-0.2353	 0.6753	 0.4400	 0.8591	 1.4729	 2.3320	56.5086	99.8538	
   991	-0.1724	 0.7870	 0.6146	-0.1505	 0.6908	 0.5405	 0.9390	 1.5017	 2.4406	56.5587	99.8538	
   992	-0.1200	 0.7909	 0.6709	-0.1666	 0.7421	 0.5756	 0.9461	 1.5276	 2.4737	56.4078	99.8541	
   993	-0.1482	 0.8161	 0.6679	-0.1666	 0.7421	 0.5756	 0.9461	 1.5276	 2.4737	56.5196	99.8538	
   994	-0.1628	 0.8213	 0.6586	-0.2045	 0.7555	 0.5511	 0.9133	 1.5392	 2.4525	56.4414	99.8527	
   995	-0.1919	 0.8318	 0.6399	-0.2045	 0.7555	 0.5511	 0.8806	 1.5508	 2.4313	56.4022	99.8552	
   996	-0.2200	 0.8570	 0.6370	-0.2282	 0.7899	 0.5618	 0.8549	 1.5883	 2.4432	56.3323	99.8562	
   997	-0.2210	 0.8422	 0.6213	-0.2550	 0.7733	 0.5184	 0.8150	 1.5739	 2.3889	56.2454	99.8551	
   998	-0.2501	 0.8527	 0.6026	-0.2550	 0.7733	 0.5184	 0.8806	 1.5508	 2.4313	56.5587	99.8533	
   999	-0.1899	 0.8613	 0.6714	-0.1903	 0.7765	 0.5863	 0.9276	 1.5911	 2.5187	56.4580	99.8507	
  1000	-0.2026	 0.8961	 0.6935	-0.2005	 0.8192	 0.6187	 0.9276	 1.5911	 2.5187	56.5642	99.8552	
  1001	-0.1880	 0.8908	 0.7028	-0.2005	 0.8192	 0.6187	 0.9276	 1.5911	 2.5187	56.5251	99.8547	
  1002	-0.2462	 0.9117	 0.6655	-0.2510	 0.8370	 0.5861	 0.8621	 1.6142	 2.4763	56.4469	99.8556	
  1003	-0.2472	 0.8969	 0.6498	-0.2534	 0.7988	 0.5455	 0.8549	 1.5883	 2.4432	56.4777	99.8525	
  1004	-0.2782	 0.8779	 0.5996	-0.3040	 0.8166	 0.5128	 0.8221	 1.5999	 2.4220	56.3714	99.8537	
  1005	-0.3083	 0.8735	 0.5653	-0.3182	 0.7956	 0.4776	 0.8150	 1.5739	 2.3889	56.4805	99.8532	
  1006	-0.2510	 0.8379	 0.5869	-0.2803	 0.7823	 0.5021	 0.8293	 1.6258	 2.4551	56.1619	99.8489	
  1007	-0.2171	 0.9013	 0.6841	-0.2116	 0.8491	 0.6376	 0.9163	 1.6805	 2.5968	56.2933	99.8516	
  1008	-0.1842	 0.9499	 0.7657	-0.1772	 0.8825	 0.7054	 0.9453	 1.6987	 2.6440	56.3630	99.8524	
  1009	-0.1978	 0.9699	 0.7721	-0.2009	 0.9169	 0.7161	 0.9125	 1.7103	 2.6228	56.3184	99.8561	
  1010	-0.2104	 1.0046	 0.7942	-0.2060	 0.9382	 0.7323	 0.8869	 1.7478	 2.6347	56.2430	99.8554	
  1011	-0.2269	 0.9803	 0.7534	-0.2514	 0.9347	 0.6834	 0.8579	 1.7296	 2.5875	56.2010	99.8555	
  1012	-0.2532	 1.0351	 0.7819	-0.2474	 0.9984	 0.7511	 0.8869	 1.7478	 2.6347	56.3937	99.8611	
  1013	-0.2493	 1.0941	 0.8448	-0.2004	 1.0273	 0.8270	 0.9217	 1.7697	 2.6914	56.5443	99.8632	
  1014	-0.1892	 1.1028	 0.9136	-0.1609	 1.0394	 0.8786	 0.9616	 1.7840	 2.7457	56.5080	99.8618	
  1015	-0.2009	 1.1523	 0.9514	-0.1518	 1.0818	 0.9300	 0.9032	 1.8332	 2.7364	56.3491	99.8672	
  1016	-0.2455	 1.1532	 0.9077	-0.1988	 1.0528	 0.8541	 0.8889	 1.7813	 2.6702	56.5614	99.8642	
  1017	-0.2756	 1.1489	 0.8733	-0.2493	 1.0707	 0.8214	 0.8561	 1.7928	 2.6490	56.4888	99.8640	
  1018	-0.2901	 1.1541	 0.8640	-0.2797	 1.1009	 0.8213	 0.8087	 1.8381	 2.6467	56.2680	99.8650	
  1019	-0.2776	 1.2327	 0.9551	-0.2674	 1.1942	 0.9268	 0.7936	 1.9573	 2.7509	56.0195	99.8659	
  1020	-0.2563	 1.3308	 1.0745	-0.2350	 1.2999	 1.0649	 0.8427	 2.0311	 2.8737	56.1036	99.8693	
  1021	-0.2408	 1.3404	 1.0995	-0.1450	 1.2941	 1.1492	 0.9011	 1.9820	 2.8830	56.3965	99.8794	
  1022	-0.3076	 1.2284	 0.9207	-0.2655	 1.1219	 0.8565	 0.7687	 1.8237	 2.5925	56.4247	99.8703	
  1023	-0.4075	 1.1811	 0.7736	-0.3504	 1.1064	 0.7561	 0.7360	 1.8353	 2.5713	56.3770	99.8673	
  1024	-0.3513	 1.2440	 0.8927	-0.2564	 1.1643	 0.9080	 0.8448	 1.8823	 2.7271	56.5443	99.8694	
  1025	-0.4531	 1.1672	 0.7141	-0.3015	 1.0630	 0.7617	 0.7524	 1.7384	 2.4908	56.7741	99.8787	
  1026	-0.7438	 0.9315	 0.1877	-0.6182	 0.7455	 0.1274	 0.4400	 1.3705	 1.8105	57.1413	99.8745	
  1027	-1.1361	 0.5057	-0.6305	-1.0128	 0.3188	-0.6939	 0.1376	 0.8909	 1.0285	57.6207	99.8719	
  1028	-1.4749	-0.1283	-1.6032	-1.4163	-0.4562	-1.8724	-0.2854	 0.0781	-0.2073	58.2868	99.8596	
  1029	-1.9931	-0.7734	-2.7665	-1.9846	-0.9777	-2.9622	-0.7575	-0.3473	-1.1048	57.8631	99.8484	
  1030	-2.1210	-0.9088	-3.0298	-2.1011	-1.0862	-3.1872	-0.8130	-0.4358	-1.2489	57.9150	99.8443	
  1031	-2.1289	-0.8002	-2.9291	-2.0450	-1.0149	-3.0598	-0.7657	-0.2988	-1.0645	57.8668	99.8391	
  1032	-2.0757	-0.6682	-2.7439	-2.0698	-0.8955	-2.9652	-0.8040	-0.1942	-0.9982	57.6582	99.8350	
  1033	-2.1494	-0.6569	-2.8063	-2.1716	-0.8726	-3.0441	-0.8805	-0.1672	-1.0477	57.5436	99.8313	
  1034	-2.0524	-0.6539	-2.7063	-2.0572	-0.9000	-2.9571	-0.7357	-0.1728	-0.9085	57.7501	99.8244	
  1035	-1.8655	-0.4112	-2.2767	-1.7364	-0.5188	-2.2551	-0.3165	 0.2086	-0.1079	57.7970	99.8403	
  1036	-1.4731	 0.0146	-1.4585	-1.1393	-0.0530	-1.1922	 0.3293	 0.6466	 0.9759	58.2810	99.8583	
  1037	-0.9888	 0.5964	-0.3924	-0.4837	 0.5223	 0.0386	 0.8989	 1.2084	 2.1073	58.3933	99.8777	
  1038	-0.7002	 1.0292	 0.3290	-0.2186	 0.9427	 0.7242	 1.0037	 1.6496	 2.6533	57.7755	99.8853	
  1039	-0.9147	 1.1666	 0.2519	-0.5828	 1.2080	 0.6253	 0.5083	 1.8531	 2.3614	56.6519	99.9011	
  1040	-1.5451	 1.2038	-0.3413	-1.2744	 1.2962	 0.0219	-0.1717	 1.8656	 1.6939	56.1811	99.9070	
  1041	-2.0221	 1.0803	-0.9419	-1.6681	 1.0904	-0.5776	-0.4834	 1.5088	 1.0255	57.1228	99.9129	
  1042	-2.2684	 1.0704	-1.1980	-1.9630	 1.0189	-0.9440	-0.9004	 1.4398	 0.5394	56.7409	99.9138	
  1043	-2.2347	 1.2471	-0.9875	-2.0091	 1.2109	-0.7981	-0.9470	 1.5929	 0.6460	56.4997	99.9138	
  1044	-2.0845	 1.3821	-0.7023	-1.9135	 1.2942	-0.6192	-0.8985	 1.6555	 0.7570	56.4687	99.9121	
  1045	-2.0060	 1.4446	-0.5613	-1.8827	 1.3744	-0.5081	-0.8972	 1.6778	 0.7806	56.4059	99.9172	
  1046	-1.9508	 1.4928	-0.4579	-1.8321	 1.3566	-0.4755	-0.9190	 1.6855	 0.7665	56.3400	99.9152	
  1047	-1.8878	 1.5458	-0.3420	-1.7994	 1.3645	-0.4347	-0.8972	 1.6778	 0.7806	56.4320	99.9125	
  1048	-1.7539	 1.5431	-0.2108	-1.7145	 1.3801	-0.3343	-0.7808	 1.6652	 0.8844	56.5098	99.9112	
  1049	-1.6929	 1.5665	-0.1263	-1.6750	 1.3922	-0.2827	-0.7736	 1.6911	 0.9175	56.3860	99.9102	
  1050	-1.7065	 1.5865	-0.1200	-1.7003	 1.4011	-0.2991	-0.8392	 1.7143	 0.8751	56.2185	99.9103	
  1051	-1.7356	 1.5969	-0.1386	-1.7382	 1.4145	-0.3236	-0.8682	 1.6960	 0.8279	56.2849	99.9121	
  1052	-1.7492	 1.6169	-0.1322	-1.7634	 1.4234	-0.3399	-0.8682	 1.6960	 0.8279	56.3600	99.9097	
  1053	-1.7472	 1.6465	-0.1008	-1.7634	 1.4234	-0.3399	-0.9228	 1.7153	 0.7925	56.2268	99.9096	
  1054	-1.7162	 1.6655	-0.0507	-1.7417	 1.4613	-0.2803	-0.8648	 1.7518	 0.8870	56.2444	99.9081	
  1055	-1.6406	 1.6838	 0.0431	-1.6821	 1.4858	-0.1962	-0.8249	 1.7661	 0.9413	56.2009	99.9098	
  1056	-1.6464	 1.7085	 0.0621	-1.6821	 1.4858	-0.1962	-0.8577	 1.7777	 0.9201	56.1515	99.9097	
  1057	-1.6755	 1.7189	 0.0434	-1.7200	 1.4991	-0.2207	-0.8648	 1.7518	 0.8870	56.2991	99.9106	
  1058	-1.6891	 1.7389	 0.0498	-1.7200	 1.4991	-0.2207	-0.8867	 1.7595	 0.8728	56.2933	99.9108	
  1059	-1.7027	 1.7589	 0.0562	-1.7377	 1.5249	-0.2127	-0.9194	 1.7711	 0.8517	56.2468	99.9132	
  1060	-1.7163	 1.7789	 0.0626	-1.7630	 1.5339	-0.2290	-0.9194	 1.7711	 0.8517	56.3223	99.9108	
  1061	-1.6553	 1.8023	 0.1471	-1.6982	 1.5370	-0.1611	-0.8782	 1.8077	 0.9296	56.2497	99.9084	
  1062	-1.5961	 1.7962	 0.2001	-1.6781	 1.5494	-0.1286	-0.8782	 1.8077	 0.9296	56.1217	99.9099	
  1063	-1.6407	 1.7971	 0.1564	-1.7235	 1.5459	-0.1774	-0.9123	 1.7970	 0.8847	56.1565	99.9094	
  1064	-1.6553	 1.8023	 0.1471	-1.7614	 1.5593	-0.2019	-0.9451	 1.8086	 0.8635	56.0750	99.9084	
  1065	-1.6844	 1.8128	 0.1284	-1.7756	 1.5383	-0.2372	-0.9959	 1.7981	 0.8022	56.0600	99.9087	
  1066	-1.7135	 1.8232	 0.1097	-1.8135	 1.5517	-0.2617	-1.0287	 1.8097	 0.7810	56.0191	99.9082	
  1067	-1.6524	 1.8466	 0.1942	-1.7412	 1.5717	-0.1694	-0.9328	 1.8270	 0.8943	56.1506	99.9072	
  1068	-1.5787	 1.8353	 0.2566	-1.7195	 1.6096	-0.1098	-0.9038	 1.8453	 0.9415	55.9964	99.9088	
  1069	-1.5641	 1.8301	 0.2659	-1.7396	 1.5972	-0.1423	-0.9328	 1.8270	 0.8943	55.9403	99.9074	
  1070	-1.5923	 1.8553	 0.2630	-1.7574	 1.6230	-0.1343	-0.9584	 1.8646	 0.9062	55.8676	99.9076	
  1071	-1.5932	 1.8405	 0.2473	-1.7649	 1.6061	-0.1587	-1.0130	 1.8839	 0.8708	55.6280	99.9073	
  1072	-1.6505	 1.8762	 0.2257	-1.8028	 1.6195	-0.1832	-1.0202	 1.8579	 0.8377	55.8933	99.9081	
  1073	-1.6359	 1.8709	 0.2350	-1.7827	 1.6319	-0.1506	-0.9840	 1.9021	 0.9181	55.8012	99.9059	
  1074	-1.5603	 1.8891	 0.3288	-1.7289	 1.6650	-0.0638	-0.9223	 1.9087	 0.9865	55.8390	99.9073	
  1075	-1.5448	 1.8987	 0.3539	-1.7037	 1.6561	-0.0475	-0.9479	 1.9463	 0.9984	55.6437	99.9061	
  1076	-1.5739	 1.9091	 0.3352	-1.7416	 1.6695	-0.0720	-0.9550	 1.9203	 0.9653	55.7919	99.9071	
  1077	-1.6040	 1.9048	 0.3008	-1.7811	 1.6574	-0.1236	-0.9840	 1.9021	 0.9181	55.8236	99.9058	
  1078	-1.6195	 1.8952	 0.2758	-1.8063	 1.6663	-0.1399	-1.0387	 1.9214	 0.8827	55.6248	99.9077	
  1079	-1.6631	 1.9109	 0.2478	-1.8189	 1.6708	-0.1481	-1.0387	 1.9214	 0.8827	55.7479	99.9082	
  1080	-1.6321	 1.9300	 0.2979	-1.7846	 1.7042	-0.0803	-0.9479	 1.9463	 0.9984	55.8891	99.9063	
  1081	-1.5730	 1.9239	 0.3509	-1.7214	 1.6819	-0.0395	-0.9260	 1.9385	 1.0125	55.8421	99.9069	
  1082	-1.5720	 1.9387	 0.3667	-1.7214	 1.6819	-0.0395	-0.9260	 1.9385	 1.0125	55.8768	99.9058	
  1083	-1.6176	 1.9248	 0.3072	-1.7451	 1.7163	-0.0287	-0.9517	 1.9761	 1.0244	55.7411	99.9104	
  1084	-1.6041	 2.0181	 0.4141	-1.7344	 1.7841	 0.0498	-0.9445	 2.0020	 1.0575	55.8799	99.9122	
  1085	-1.6167	 2.0529	 0.4362	-1.7344	 1.7841	 0.0498	-0.9735	 1.9838	 1.0103	55.9752	99.9139	
  1086	-1.6060	 1.9886	 0.3826	-1.7613	 1.7675	 0.0064	-1.0391	 2.0069	 0.9679	55.5490	99.9144	
  1087	-1.7485	 1.9718	 0.2232	-1.7865	 1.7764	-0.0100	-0.9907	 2.0696	 1.0789	55.7029	99.9135	
  1088	-1.5041	 1.9521	 0.4480	-1.4873	 1.8139	 0.3267	-0.6671	 2.0691	 1.4020	56.0203	99.9215	
  1089	-0.9346	 1.6647	 0.7301	-0.8863	 1.4128	 0.5266	-0.0264	 1.5922	 1.5658	57.4162	99.9188	
  1090	-0.8331	 1.0466	 0.2135	-0.8974	 0.5123	-0.3851	-0.1420	 0.5114	 0.3694	58.9860	99.9144	
  1091	-1.2197	 0.7094	-0.5103	-1.3275	 0.1371	-1.1903	-0.5585	 0.1746	-0.3839	58.9389	99.9048	
  1092	-1.4117	 0.6196	-0.7921	-1.5636	 0.0774	-1.4861	-0.6705	 0.1686	-0.5019	58.8041	99.8906	
  1093	-1.3274	 0.7707	-0.5568	-1.4411	 0.3855	-1.0555	-0.3810	 0.6186	 0.2376	58.2413	99.8799	
  1094	-0.8312	 1.0762	 0.2450	-0.9107	 0.7122	-0.1985	 0.0027	 0.9670	 0.9697	57.8898	99.8929	
  1095	-0.7970	 0.7995	 0.0025	-1.0357	 0.3659	-0.6697	-0.0909	 0.6186	 0.5277	58.0542	99.8745	
  1096	-1.1848	-0.2474	-1.4322	-1.3374	-0.6402	-1.9775	 0.0969	-0.3360	-0.2391	59.7721	99.8368	
  1097	-1.2317	-0.9709	-2.2026	-1.0602	-1.2653	-2.3254	 0.5226	-0.8622	-0.3396	60.7983	99.8461	
  1098	-1.3661	-1.3231	-2.6892	-1.1247	-1.5743	-2.6990	 0.4511	-1.1216	-0.6705	60.8412	99.8501	
  1099	-1.4815	-1.3799	-2.8614	-1.0995	-1.5833	-2.6826	 0.5189	-1.0146	-0.4957	60.7038	99.8488	
  1100	-1.0273	-0.6892	-1.7165	-0.6110	-0.5845	-1.1955	 1.1986	 0.2598	 1.4584	59.0821	99.8358	
  1101	 0.0616	 0.4916	 0.5532	 0.4174	 0.3796	 0.7971	 1.9411	 1.0052	 2.9464	59.3977	99.8595	
  1102	 0.2669	 0.7881	 1.0550	 0.5064	 0.6670	 1.1735	 1.8672	 1.2591	 3.1263	58.7770	99.8673	
  1103	 0.2125	 0.8681	 1.0806	 0.3659	 0.6906	 1.0566	 1.5764	 1.2480	 2.8244	58.4127	99.8718	
  1104	-0.0008	 0.7935	 0.7927	 0.1148	 0.5971	 0.7120	 1.3389	 1.1953	 2.5341	58.2114	99.8625	
  1105	-0.1462	 0.7323	 0.5861	-0.0424	 0.5615	 0.5193	 1.2044	 1.1858	 2.3902	58.0297	99.8594	
  1106	-0.1734	 0.7723	 0.5989	-0.0443	 0.6338	 0.5896	 1.1654	 1.2793	 2.4447	57.7826	99.8648	
  1107	-0.1860	 0.8070	 0.6210	-0.0621	 0.6596	 0.5976	 1.1070	 1.3284	 2.4354	57.5915	99.8645	
  1108	-0.1754	 0.8561	 0.6807	-0.1019	 0.7453	 0.6435	 1.0629	 1.4294	 2.4923	57.2621	99.8632	
  1109	-0.1513	 0.9985	 0.8472	-0.0453	 0.9270	 0.8818	 1.1205	 1.5514	 2.6719	57.3135	99.8747	
  1110	-0.2842	 1.0160	 0.7318	-0.0781	 0.9191	 0.8411	 1.0444	 1.4929	 2.5373	57.5963	99.8870	
  1111	-0.4674	 0.9457	 0.4783	-0.2116	 0.8491	 0.6376	 0.9759	 1.3747	 2.3506	57.9663	99.8897	
  1112	-0.3965	 0.8901	 0.4935	-0.1524	 0.7631	 0.6108	 0.9759	 1.3747	 2.3506	57.7052	99.8829	
  1113	-0.2928	 0.8831	 0.5903	-0.0565	 0.7487	 0.6924	 1.1204	 1.2725	 2.3928	58.1773	99.8864	
  1114	-0.2335	 0.7636	 0.5301	-0.0206	 0.5994	 0.5789	 1.0548	 1.2956	 2.3504	57.5503	99.8734	
  1115	-0.2461	 0.7984	 0.5522	-0.0045	 0.5482	 0.5438	 1.1531	 1.2609	 2.4140	58.0049	99.8598	
  1116	-0.1665	 0.6489	 0.4825	-0.1008	 0.4521	 0.3513	 1.0876	 1.2840	 2.3716	57.2697	99.8367	
  1117	-0.0298	 0.6905	 0.6608	 0.0264	 0.6284	 0.6548	 1.2016	 1.3235	 2.5250	57.2747	99.8641	
  1118	 0.0186	 0.8621	 0.8806	 0.1729	 0.8043	 0.9773	 1.2822	 1.6423	 2.9245	56.7868	99.8621	
  1119	 0.1445	 0.9680	 1.1125	 0.3569	 0.8565	 1.2135	 1.4882	 1.4500	 2.9382	57.9193	99.8836	
  1120	 0.1775	 1.0166	 1.1941	 0.2575	 1.1258	 1.3835	 1.6457	 1.6562	 3.3019	57.7015	99.8796	
  1121	 0.2181	 1.0700	 1.2881	 0.3444	 1.0691	 1.4136	 1.5403	 1.6650	 3.2053	57.4763	99.8822	
  1122	 0.2356	 1.1091	 1.3446	 0.3605	 1.0179	 1.3785	 1.5474	 1.6910	 3.2384	57.4738	99.8680	
  1123	 0.1793	 1.1595	 1.3387	 0.3854	 1.1067	 1.4922	 1.5238	 1.7619	 3.2857	57.4140	99.8818	
  1124	 0.1008	 1.0970	 1.1978	 0.3696	 1.0602	 1.4299	 1.5730	 1.6534	 3.2265	57.8645	99.8879	
  1125	 0.1920	 1.0114	 1.2034	 0.4272	 0.9488	 1.3761	 1.6171	 1.5524	 3.1696	57.9225	99.8837	
  1126	 0.2765	 0.9358	 1.2122	 0.4777	 0.9309	 1.4087	 1.6970	 1.5812	 3.2782	57.6920	99.8797	
  1127	 0.3502	 0.9244	 1.2746	 0.5412	 0.8109	 1.3522	 1.7155	 1.5177	 3.2332	57.7786	99.8679	
  1128	 0.3774	 0.8845	 1.2618	 0.5665	 0.8019	 1.3685	 1.7554	 1.5321	 3.2875	57.6849	99.8669	
  1129	 0.4695	 0.9270	 1.3964	 0.6545	 0.8684	 1.5231	 1.8352	 1.5608	 3.3960	57.7232	99.8730	
  1130	 0.4549	 0.9322	 1.3871	 0.7126	 0.8675	 1.5801	 1.8861	 1.5713	 3.4574	57.8494	99.8766	
  1131	 0.4782	 0.9465	 1.4247	 0.7520	 0.8795	 1.6317	 1.9260	 1.5857	 3.5117	57.8921	99.8772	
  1132	 0.6120	 0.9439	 1.5559	 0.9001	 0.8728	 1.7730	 2.0516	 1.6324	 3.6840	57.8011	99.8743	
  1133	 0.7022	 0.9568	 1.6590	 0.9917	 0.8925	 1.8842	 2.1263	 1.6686	 3.7949	57.7367	99.8746	
  1134	 0.7148	 0.9221	 1.6369	 1.0169	 0.8836	 1.9006	 2.1827	 1.5861	 3.7688	58.0244	99.8822	
  1135	 0.7003	 0.9273	 1.6276	 1.0169	 0.8836	 1.9006	 2.1827	 1.5861	 3.7688	58.0623	99.8827	
  1136	 0.7284	 0.9021	 1.6305	 1.0390	 0.8237	 1.8628	 2.1755	 1.5601	 3.7357	58.0176	99.8784	
  1137	 0.7275	 0.8873	 1.6148	 0.9885	 0.8415	 1.8301	 2.1684	 1.5342	 3.7026	58.0488	99.8789	
  1138	 0.8167	 0.8855	 1.7022	 1.1306	 0.8434	 1.9741	 2.3319	 1.5618	 3.8937	58.1869	99.8785	
  1139	 0.9951	 0.8820	 1.8771	 1.3039	 0.8277	 2.1317	 2.4831	 1.5710	 4.0541	58.1935	99.8764	
  1140	 1.0388	 0.8663	 1.9051	 1.3291	 0.8188	 2.1480	 2.5268	 1.5556	 4.0824	58.2313	99.8750	
  1141	 1.0524	 0.8463	 1.8987	 1.3275	 0.7933	 2.1210	 2.5067	 1.5001	 4.0067	58.2872	99.8778	
  1142	 1.0660	 0.8264	 1.8923	 1.3200	 0.7765	 2.0966	 2.4995	 1.4741	 3.9737	58.2807	99.8775	
  1143	 1.0641	 0.7968	 1.8609	 1.3168	 0.7255	 2.0425	 2.4924	 1.4482	 3.9406	58.2785	99.8736	
  1144	 1.0641	 0.7968	 1.8609	 1.3168	 0.7255	 2.0425	 2.4487	 1.4636	 3.9123	58.1270	99.8753	
  1145	 1.0922	 0.7716	 1.8638	 1.3184	 0.7510	 2.0695	 2.5252	 1.4366	 3.9618	58.2828	99.8772	
  1146	 1.1970	 0.7794	 1.9763	 1.4590	 0.7274	 2.1864	 2.6416	 1.4239	 4.0655	58.4318	99.8777	
  1147	 1.2542	 0.7437	 1.9980	 1.4574	 0.7019	 2.1594	 2.6672	 1.3864	 4.0536	58.4254	99.8738	
  1148	 1.2668	 0.7090	 1.9758	 1.5063	 0.6586	 2.1650	 2.6344	 1.3980	 4.0324	58.2072	99.8762	
  1149	 1.2358	 0.6899	 1.9257	 1.4719	 0.6252	 2.0972	 2.6143	 1.3425	 3.9568	58.3433	99.8759	
  1150	 1.1912	 0.6908	 1.8820	 1.4755	 0.5784	 2.0539	 2.5744	 1.3281	 3.9025	58.3747	99.8751	
  1151	 1.1942	 0.6217	 1.8159	 1.3981	 0.5797	 1.9779	 2.5164	 1.2917	 3.8081	58.1829	99.8779	
  1152	 1.1932	 0.6070	 1.8002	 1.4158	 0.5539	 1.9698	 2.5492	 1.2801	 3.8292	58.2632	99.8757	
  1153	 1.2369	 0.5913	 1.8282	 1.4664	 0.5361	 2.0025	 2.5819	 1.2685	 3.8504	58.2632	99.8766	
  1154	 1.2815	 0.5904	 1.8719	 1.4664	 0.5361	 2.0025	 2.5748	 1.2426	 3.8174	58.2479	99.8769	
  1155	 1.2612	 0.5070	 1.7683	 1.4557	 0.4683	 1.9240	 2.5605	 1.1907	 3.7512	58.2143	99.8774	
  1156	 1.1846	 0.4741	 1.6587	 1.4071	 0.4138	 1.8210	 2.5076	 1.1467	 3.6543	58.2837	99.8767	
  1157	 1.1982	 0.4541	 1.6523	 1.3727	 0.3804	 1.7532	 2.4605	 1.1064	 3.5670	58.2281	99.8741	
  1158	 1.1381	 0.4454	 1.5836	 1.3526	 0.3680	 1.7207	 2.4534	 1.0805	 3.5339	58.3782	99.8767	
  1159	 1.1672	 0.4350	 1.6022	 1.3727	 0.3804	 1.7532	 2.5261	 1.0833	 3.6094	58.4649	99.8750	
  1160	 1.2128	 0.4489	 1.6617	 1.4323	 0.4049	 1.8374	 2.5660	 1.0976	 3.6636	58.4670	99.8792	
  1161	 1.2729	 0.4575	 1.7304	 1.4576	 0.3960	 1.8537	 2.5261	 1.0833	 3.6094	58.3336	99.8809	
  1162	 1.2245	 0.3994	 1.6238	 1.4015	 0.3247	 1.7263	 2.4790	 1.0429	 3.5220	58.2955	99.8756	
  1163	 1.1324	 0.3568	 1.4892	 1.3403	 0.2748	 1.6151	 2.4139	 0.9806	 3.3944	58.3990	99.8785	
  1164	 1.0791	 0.3382	 1.4173	 1.2874	 0.2544	 1.5419	 2.3996	 0.9287	 3.3283	58.5788	99.8785	
  1165	 1.0490	 0.3339	 1.3829	 1.2479	 0.2423	 1.4903	 2.3340	 0.9518	 3.2859	58.3925	99.8758	
  1166	 1.0946	 0.3477	 1.4423	 1.3202	 0.2624	 1.5826	 2.4139	 0.9806	 3.3944	58.4435	99.8766	
  1167	 1.1906	 0.3360	 1.5266	 1.3908	 0.2569	 1.6478	 2.4538	 0.9949	 3.4487	58.2955	99.8759	
  1168	 1.1780	 0.3707	 1.5487	 1.3403	 0.2748	 1.6151	 2.4139	 0.9806	 3.3944	58.3522	99.8744	
  1169	 1.1091	 0.3425	 1.4516	 1.2657	 0.2165	 1.4823	 2.3088	 0.9038	 3.2126	58.4004	99.8756	
  1170	 0.9211	 0.1984	 1.1196	 1.0145	 0.1231	 1.1377	 2.1154	 0.7501	 2.8655	58.4149	99.8771	
  1171	 0.7437	 0.1034	 0.8472	 0.8317	-0.0141	 0.8177	 1.8984	 0.6673	 2.5657	58.2455	99.8704	
  1172	 0.6236	-0.0273	 0.5964	 0.6556	-0.1471	 0.5086	 1.6813	 0.5846	 2.2659	57.8857	99.8644	
  1173	 0.5073	-0.0989	 0.4085	 0.5608	-0.2177	 0.3432	 1.6657	 0.5104	 2.1761	58.1206	99.8600	
  1174	 0.5326	-0.1684	 0.3642	 0.5458	-0.2514	 0.2945	 1.6913	 0.4729	 2.1642	58.0887	99.8575	
  1175	 0.5239	-0.1879	 0.3360	 0.5063	-0.2635	 0.2429	 1.6585	 0.4845	 2.1430	57.9408	99.8529	
  1176	 0.5937	-0.1449	 0.4487	 0.6204	-0.1932	 0.4273	 1.7919	 0.5683	 2.3602	57.9732	99.8556	
  1177	 0.7730	-0.0204	 0.7526	 0.8277	-0.0777	 0.7501	 1.9762	 0.6626	 2.6388	58.0956	99.8609	
  1178	 0.8447	 0.0521	 0.8968	 0.9055	 0.0314	 0.9371	 2.0960	 0.7057	 2.8017	58.2920	99.8680	
  1179	 0.9347	 0.1784	 1.1132	 0.9691	 0.1196	 1.0888	 2.1154	 0.7501	 2.8655	58.3424	99.8708	
  1180	 0.9057	 0.0755	 0.9813	 0.9217	-0.0198	 0.9020	 2.0817	 0.6538	 2.7355	58.3721	99.8609	
  1181	 0.9174	 0.0260	 0.9434	 0.9470	-0.0288	 0.9183	 2.0960	 0.7057	 2.8017	58.1001	99.8600	
  1182	 0.9475	 0.0303	 0.9778	 1.0192	-0.0087	 1.0106	 2.1359	 0.7201	 2.8560	58.1069	99.8674	
  1183	 0.9320	 0.0208	 0.9528	 1.0176	-0.0342	 0.9835	 2.1287	 0.6941	 2.8229	58.1770	99.8674	
  1184	 0.9494	 0.0599	 1.0093	 0.9584	 0.0518	 1.0103	 2.1154	 0.7501	 2.8655	58.0301	99.8658	
  1185	 0.9231	 0.1146	 1.0378	 0.9928	 0.0852	 1.0781	 2.1225	 0.7760	 2.8986	58.1431	99.8709	
  1186	 0.8912	 0.0807	 0.9719	 1.0342	 0.0250	 1.0593	 2.1154	 0.7501	 2.8655	58.1837	99.8738	
  1187	 0.8912	 0.0807	 0.9719	 1.0090	 0.0339	 1.0430	 2.1482	 0.7385	 2.8867	58.2986	99.8705	
  1188	 1.0037	 0.0933	 1.0969	 1.0576	 0.0883	 1.1460	 2.2608	 0.7557	 3.0164	58.3435	99.8685	
  1189	 1.0666	 0.1462	 1.2129	 1.1574	 0.1376	 1.2952	 2.2894	 0.8594	 3.1488	58.0979	99.8709	
  1190	 1.1141	 0.1896	 1.3038	 1.2550	 0.1487	 1.4038	 2.3986	 0.8208	 3.2195	58.5005	99.8754	
  1191	 1.0929	 0.0915	 1.1844	 1.2419	 0.0427	 1.2847	 2.3335	 0.7584	 3.0919	58.3456	99.8749	
  1192	 1.0291	-0.0896	 0.9395	 1.1743	-0.1091	 1.0653	 2.3111	 0.5728	 2.8839	58.5598	99.8767	
  1193	 0.9312	-0.2207	 0.7106	 1.0890	-0.2351	 0.8540	 2.2252	 0.4437	 2.6689	58.6235	99.8781	
  1194	 0.8412	-0.3470	 0.4941	 0.9736	-0.4286	 0.5451	 2.0543	 0.2934	 2.3477	58.5513	99.8707	
  1195	 0.7191	-0.5072	 0.2119	 0.8270	-0.6046	 0.2226	 1.9875	 0.1120	 2.0995	58.8012	99.8618	
  1196	 0.6834	-0.7135	-0.0300	 0.7235	-0.8153	-0.0917	 1.9218	-0.1438	 1.7780	59.0295	99.8581	
  1197	 0.5082	-1.0057	-0.4975	 0.5915	-1.0680	-0.4763	 1.7585	-0.3537	 1.4048	58.9140	99.8623	
  1198	 0.2621	-1.2423	-0.9802	 0.2669	-1.3047	-1.0377	 1.4149	-0.5910	 0.8239	58.7177	99.8582	
  1199	-0.0200	-1.3450	-1.3651	-0.0414	-1.3844	-1.4258	 1.1678	-0.6176	 0.5503	58.4605	99.8476	
  1200	-0.0434	-1.2460	-1.2894	-0.0157	-1.2829	-1.2985	 1.1855	-0.5099	 0.6756	58.4391	99.8516	
  1201	-0.0153	-1.1579	-1.1732	 0.0345	-1.2030	-1.1685	 1.1653	-0.3832	 0.7820	58.1458	99.8533	
  1202	 0.0486	-1.0901	-1.0416	 0.0669	-1.0973	-1.0304	 1.2048	-0.2833	 0.9215	57.9696	99.8547	
  1203	 0.1066	-0.8843	-0.7777	 0.1669	-0.8399	-0.6729	 1.3900	-0.0811	 1.3089	58.1638	99.8614	
  1204	 0.4352	-0.7529	-0.3177	 0.6087	-0.6901	-0.0813	 1.9754	-0.0887	 1.8867	59.3173	99.8750	
  1205	 0.4893	-1.5277	-1.0384	 0.2847	-2.0528	-1.7680	 1.2796	-1.8129	-0.5333	61.3556	99.8629	
  1206	-1.0953	-2.5458	-3.6411	-1.3536	-2.9641	-4.3176	-0.0147	-2.7335	-2.7482	61.5906	99.8390	
  1207	-1.7611	-3.0549	-4.8160	-2.2276	-3.6249	-5.8524	 0.4830	-3.7293	-3.2462	66.0235	99.7010	
  1208	-2.1537	-1.1841	-3.3379	-0.2853	-3.5302	-3.8155	-1.1887	-2.4952	-3.6839	63.4769	99.8480	
  1209	-1.0176	-0.6549	-1.6725	-1.0971	-0.8227	-1.9197	 0.4603	 0.3214	 0.7816	57.2047	99.7520	
  1210	-0.6171	 0.3573	-0.2598	-0.5179	 0.1829	-0.3348	 1.0780	 0.8490	 1.9270	58.7318	99.8244	
  1211	-0.8535	-0.8799	-1.7334	-0.8807	-1.3873	-2.2678	 0.7261	-1.0024	-0.2763	61.3165	99.8092	
  1212	-0.4410	-1.2923	-1.7332	-0.2931	-1.7966	-2.0896	 1.4371	-1.4244	 0.0126	62.6215	99.8134	
  1213	 0.3103	-0.9574	-0.6471	 0.5115	-1.5212	-1.0096	 2.1468	-1.1286	 1.0182	62.8243	99.8185	
  1214	 0.8017	-0.6124	 0.1893	 0.9953	-1.1130	-0.1176	 2.6008	-0.7253	 1.8755	62.5522	99.8282	
  1215	 1.2513	-0.2221	 1.0291	 1.3942	-0.7204	 0.6740	 2.9988	-0.3250	 2.6738	62.3499	99.8244	
  1216	 1.2822	-0.0897	 1.1925	 1.3375	-0.5962	 0.7414	 3.0110	-0.1243	 2.8867	61.9955	99.8015	
  1217	 1.0221	 0.0338	 1.0559	 1.1899	-0.4790	 0.7110	 2.9112	 0.0704	 2.9815	61.8737	99.7965	
  1218	 0.9320	 0.0208	 0.9528	 1.1279	-0.5417	 0.5863	 2.8860	 0.0223	 2.9083	62.0913	99.7881	
  1219	 0.9427	-0.0435	 0.8992	 1.2037	-0.5685	 0.6353	 3.0485	-0.0579	 2.9906	62.5372	99.7960	
  1220	 0.8992	-0.1412	 0.7580	 1.1768	-0.5850	 0.5919	 3.1638	 0.0039	 3.1677	62.4221	99.7831	
  1221	 1.0348	-0.0010	 1.0338	 1.6826	-0.4448	 1.2378	 3.7785	 0.1113	 3.8897	63.5248	99.8080	
  1222	 1.1067	-0.1552	 0.9515	 1.7520	-0.5735	 1.1786	 3.7385	 0.0969	 3.8354	62.9999	99.8066	
  1223	 0.5245	 0.1669	 0.6914	 0.8455	-0.1035	 0.7420	 2.7373	 0.7012	 3.4385	60.6116	99.7890	
  1224	 0.2303	 0.5671	 0.7973	 0.3704	 0.3506	 0.7212	 2.1689	 1.2664	 3.4353	58.9915	99.7754	
