OxySoft export of:	C:\Users\TO3 TechSupport\Documents\Train2Adapt\T2A_34
Export date:	2022/09/16 05:19:20
Start of measurement:	2022-09-16 04:13:39.849

Datafile sample rate:	10.00	Hz
Datafile duration:	3531.900	s
Datafile total number of samples:	35319

Description:	

Optode-template:	PortaMon TSI Fit Factor
Optode distance (mm):	 35.00
Optode gradients (mm):	 5.00
DPF:	6.56

Device id:	334
# Receivers:	1
# Light sources:	6
# ADC:	2

Light source wavelengths:
device	index	wavelength
1	1	849	nm
1	2	759	nm
1	3	846	nm
1	4	757	nm
1	5	848	nm
1	6	757	nm

Export sample rate:	10.00	Hz
Selected time span:	0	3531.900
Selected time span (sample numbers):	0	35319


Legend:
Column	Trace (Measurement)
1	(Sample number)
2	Rx1-Tx1 O2Hb (T2A_34)
3	Rx1-Tx1 HHb (T2A_34)
4	Rx1-Tx1 tHb (T2A_34)
5	Rx1-Tx2 O2Hb (T2A_34)
6	Rx1-Tx2 HHb (T2A_34)
7	Rx1-Tx2 tHb (T2A_34)
8	Rx1-Tx3 O2Hb (T2A_34)
9	Rx1-Tx3 HHb (T2A_34)
10	Rx1-Tx3 tHb (T2A_34)
11	Rx1-Tx1,Tx2,Tx3 TSI% (T2A_34)
12	Rx1-Tx1,Tx2,Tx3 TSI Fit Factor (T2A_34)
13	(Event)


1	2	3	4	5	6	7	8	9	10	11	12	13
     0	126.2036	68.1950	194.3986	101.9350	56.9924	158.9274	83.1490	51.6280	134.7770	11.5652	98.7634	
     1	 0.5360	 0.3441	 0.8801	 0.4975	 0.3187	 0.8163	 0.3714	 0.3299	 0.7014	64.5036	99.9957	
     2	 0.5360	 0.3441	 0.8801	 0.4975	 0.3187	 0.8163	 0.3714	 0.3299	 0.7014	64.5036	99.9957	
     3	 0.5282	 0.3393	 0.8676	 0.4782	 0.3190	 0.7973	 0.3656	 0.3263	 0.6919	64.5036	99.9955	
     4	 0.5205	 0.3345	 0.8550	 0.4656	 0.3235	 0.7892	 0.3598	 0.3227	 0.6825	64.5036	99.9954	
     5	 0.5127	 0.3298	 0.8425	 0.4589	 0.3194	 0.7783	 0.3540	 0.3190	 0.6731	64.5036	99.9954	
     6	 0.5205	 0.3345	 0.8550	 0.4723	 0.3276	 0.8000	 0.3708	 0.3188	 0.6896	64.5484	99.9955	
     7	 0.5360	 0.3441	 0.8801	 0.4857	 0.3359	 0.8217	 0.3933	 0.3222	 0.7155	64.5932	99.9954	
     8	 0.5360	 0.3441	 0.8801	 0.4916	 0.3273	 0.8190	 0.3984	 0.3147	 0.7131	64.6374	99.9954	
     9	 0.5214	 0.3493	 0.8707	 0.4790	 0.3318	 0.8109	 0.3875	 0.3186	 0.7061	64.6374	99.9954	
    10	 0.5137	 0.3445	 0.8582	 0.4723	 0.3276	 0.8000	 0.3817	 0.3149	 0.6966	64.6374	99.9954	
    11	 0.5059	 0.3398	 0.8457	 0.4656	 0.3235	 0.7892	 0.3650	 0.3151	 0.6801	64.5927	99.9955	
    12	 0.4827	 0.3254	 0.8081	 0.4186	 0.2946	 0.7132	 0.3230	 0.2673	 0.5904	64.6786	99.9952	
    13	 0.4284	 0.2920	 0.7204	 0.3925	 0.2907	 0.6834	 0.3411	 0.2894	 0.6305	64.6393	99.9949	
    14	 0.4584	 0.2964	 0.7548	 0.4715	 0.3149	 0.7865	 0.4377	 0.3179	 0.7556	64.7323	99.9953	
    15	 0.4633	 0.2568	 0.7202	 0.4809	 0.2595	 0.7405	 0.4336	 0.2510	 0.6847	64.8629	99.9955	
    16	 0.3364	 0.1362	 0.4726	 0.3249	 0.1389	 0.4640	 0.2692	 0.1155	 0.3847	64.8584	99.9954	
    17	 0.1590	 0.0411	 0.2002	 0.1504	 0.0314	 0.1819	 0.1068	 0.0135	 0.1203	64.9005	99.9952	
    18	 0.0514	-0.0109	 0.0405	 0.0312	-0.0176	 0.0137	 0.0147	-0.0337	-0.0190	64.8997	99.9947	
    19	 0.0059	-0.0248	-0.0189	-0.0083	-0.0296	-0.0379	-0.0297	-0.0294	-0.0591	64.8109	99.9947	
    20	 0.0000	-0.0000	-0.0000	-0.0000	-0.0000	 0.0000	-0.0000	-0.0000	-0.0000	64.8572	99.9946	
    21	 0.0475	 0.0434	 0.0909	 0.0545	 0.0458	 0.1004	 0.0638	 0.0401	 0.1039	64.9030	99.9946	
    22	 0.0940	 0.0720	 0.1660	 0.0956	 0.0833	 0.1790	 0.0993	 0.0731	 0.1723	64.8591	99.9947	
    23	 0.1182	 0.1011	 0.2193	 0.1485	 0.1037	 0.2522	 0.1399	 0.0986	 0.2385	64.9045	99.9951	
    24	 0.1570	 0.1250	 0.2820	 0.1820	 0.1243	 0.3065	 0.1798	 0.1130	 0.2927	64.9490	99.9950	
    25	 0.2026	 0.1388	 0.3414	 0.2097	 0.1536	 0.3634	 0.2255	 0.1310	 0.3565	64.9497	99.9947	
    26	 0.2423	 0.1775	 0.4198	 0.2567	 0.1826	 0.4393	 0.2500	 0.1679	 0.4179	64.9055	99.9950	
    27	 0.2820	 0.2161	 0.4981	 0.3104	 0.2157	 0.5261	 0.3029	 0.2118	 0.5147	64.9070	99.9950	
    28	 0.3053	 0.2304	 0.5357	 0.3305	 0.2281	 0.5587	 0.3196	 0.2116	 0.5312	64.9507	99.9951	
    29	 0.2975	 0.2257	 0.5232	 0.3112	 0.2284	 0.5397	 0.3080	 0.2043	 0.5124	64.9504	99.9950	
    30	 0.2743	 0.2113	 0.4856	 0.2827	 0.1864	 0.4692	 0.2429	 0.1419	 0.3848	65.0355	99.9954	
    31	 0.1560	 0.1102	 0.2662	 0.1200	 0.0617	 0.1818	 0.0392	 0.0032	 0.0424	64.9849	99.9955	
    32	-0.0756	-0.0182	-0.0938	-0.1386	-0.0487	-0.1872	-0.1604	-0.0686	-0.2290	64.8061	99.9942	
    33	-0.0136	 0.0200	 0.0064	-0.0766	 0.0140	-0.0625	-0.0997	 0.0124	-0.0873	64.6305	99.9942	
    34	 0.0882	 0.0968	 0.1849	 0.0300	 0.0674	 0.0976	-0.0198	 0.0412	 0.0213	64.7632	99.9947	
    35	 0.1201	 0.1306	 0.2508	 0.0727	 0.1304	 0.2032	 0.0562	 0.0997	 0.1559	64.7669	99.9945	
    36	 0.1667	 0.1593	 0.3259	 0.1323	 0.1549	 0.2873	 0.1135	 0.1250	 0.2385	64.8125	99.9947	
    37	 0.1831	 0.1836	 0.3667	 0.1465	 0.1759	 0.3226	 0.1316	 0.1471	 0.2787	64.8129	99.9946	
    38	 0.2073	 0.2127	 0.4200	 0.1801	 0.1966	 0.3768	 0.1548	 0.1616	 0.3165	64.8572	99.9948	
    39	 0.2229	 0.2222	 0.4451	 0.1994	 0.1963	 0.3958	 0.1606	 0.1653	 0.3259	64.8568	99.9950	
    40	 0.2539	 0.2413	 0.4952	 0.2263	 0.2128	 0.4392	 0.1896	 0.1835	 0.3731	64.8572	99.9949	
    41	 0.2849	 0.2604	 0.5453	 0.2531	 0.2294	 0.4826	 0.2173	 0.1794	 0.3967	64.9455	99.9949	
    42	 0.2839	 0.2456	 0.5296	 0.2456	 0.2125	 0.4582	 0.1941	 0.1649	 0.3589	64.9001	99.9950	
    43	 0.2762	 0.2409	 0.5170	 0.2204	 0.2214	 0.4419	 0.1780	 0.1762	 0.3542	64.8113	99.9948	
    44	 0.2771	 0.2556	 0.5328	 0.2212	 0.2342	 0.4554	 0.1896	 0.1835	 0.3731	64.8561	99.9946	
    45	 0.2849	 0.2604	 0.5453	 0.2279	 0.2383	 0.4663	 0.1896	 0.1835	 0.3731	64.8557	99.9947	
    46	 0.2849	 0.2604	 0.5453	 0.2279	 0.2383	 0.4663	 0.1845	 0.1910	 0.3755	64.8113	99.9948	
    47	 0.2965	 0.3242	 0.6207	 0.2378	 0.2934	 0.5312	 0.1865	 0.2245	 0.4110	64.8549	99.9949	
    48	 0.3905	 0.3963	 0.7867	 0.2998	 0.3560	 0.6559	 0.2401	 0.2796	 0.5196	64.8097	99.9947	
    49	 0.4137	 0.4106	 0.8243	 0.3318	 0.3513	 0.6831	 0.2510	 0.2757	 0.5267	64.8534	99.9950	
    50	 0.4109	 0.3663	 0.7772	 0.3100	 0.3134	 0.6235	 0.2264	 0.2388	 0.4653	64.8077	99.9949	
    51	 0.3265	 0.3286	 0.6551	 0.2571	 0.2930	 0.5503	 0.1814	 0.2320	 0.4134	64.7649	99.9951	
    52	 0.3188	 0.3238	 0.6426	 0.2638	 0.2972	 0.5611	 0.2155	 0.2427	 0.4582	64.8117	99.9949	
    53	 0.3033	 0.3142	 0.6175	 0.2697	 0.2886	 0.5584	 0.2148	 0.2315	 0.4464	64.8565	99.9952	
    54	 0.2946	 0.2947	 0.5893	 0.2429	 0.2720	 0.5150	 0.2026	 0.2131	 0.4157	64.8561	99.9949	
    55	 0.2713	 0.2804	 0.5517	 0.2101	 0.2641	 0.4743	 0.1794	 0.1985	 0.3779	64.8557	99.9947	
    56	 0.2344	 0.2861	 0.5205	 0.1908	 0.2644	 0.4553	 0.1575	 0.2062	 0.3638	64.8561	99.9949	
    57	 0.2664	 0.3199	 0.5863	 0.2512	 0.3016	 0.5529	 0.2329	 0.2536	 0.4865	64.9034	99.9949	
    58	 0.3566	 0.3329	 0.6895	 0.3361	 0.3172	 0.6534	 0.3012	 0.2751	 0.5762	64.8595	99.9950	
    59	 0.3857	 0.3225	 0.7081	 0.3361	 0.3172	 0.6534	 0.2998	 0.2528	 0.5526	64.8580	99.9949	
    60	 0.3324	 0.3038	 0.6362	 0.2891	 0.2882	 0.5774	 0.2483	 0.2311	 0.4794	64.8572	99.9950	
    61	 0.2946	 0.2947	 0.5893	 0.2690	 0.2758	 0.5449	 0.2258	 0.2277	 0.4534	64.8576	99.9951	
    62	 0.2868	 0.2899	 0.5767	 0.2496	 0.2762	 0.5259	 0.2142	 0.2204	 0.4346	64.8572	99.9950	
    63	 0.2635	 0.2756	 0.5392	 0.2228	 0.2596	 0.4825	 0.1858	 0.2133	 0.3992	64.8125	99.9949	
    64	 0.2316	 0.2418	 0.4733	 0.1675	 0.2011	 0.3686	 0.1238	 0.1100	 0.2338	65.0307	99.9949	
    65	 0.0087	 0.0195	 0.0282	-0.0715	-0.0073	-0.0787	-0.0870	-0.0547	-0.1417	64.8953	99.9941	
    66	-0.0989	-0.0326	-0.1314	-0.1603	-0.0866	-0.2468	-0.1832	-0.1687	-0.3519	65.1608	99.9945	
    67	-0.2250	-0.0251	-0.2501	-0.2200	-0.1110	-0.3309	-0.2856	-0.2009	-0.4865	65.2941	99.9958	
    68	-0.0563	 0.0504	-0.0059	-0.1054	 0.0697	-0.0356	-0.0506	 0.0862	 0.0356	64.6370	99.9930	
    69	 0.4088	 0.4501	 0.8590	 0.3570	 0.3423	 0.6994	 0.2324	 0.0602	 0.2926	65.8316	99.9953	
    70	 0.5109	 0.1869	 0.6978	-0.0356	-0.1566	-0.1922	-0.5638	-0.5581	-1.1219	65.2585	99.9957	
    71	-0.1415	-0.1155	-0.2569	-0.8320	-0.4024	-1.2342	-1.2867	-0.7013	-1.9879	64.2054	99.9938	
    72	-0.3955	-0.1301	-0.5257	-1.0499	-0.3774	-1.4272	-1.4209	-0.6140	-2.0349	63.9316	99.9927	
    73	-0.3160	-0.1662	-0.4822	-0.9520	-0.4641	-1.4160	-1.3304	-0.6858	-2.0162	64.2155	99.9924	
    74	-0.4205	-0.4007	-0.8212	-1.0292	-0.7687	-1.7977	-1.3383	-1.0019	-2.3402	65.0191	99.9907	
    75	-0.2246	-0.3652	-0.5898	-0.7619	-0.7265	-1.4882	-1.0254	-0.9018	-1.9272	65.1692	99.9898	
    76	-0.0202	-0.1968	-0.2169	-0.5573	-0.5515	-1.1087	-0.7804	-0.7264	-1.5068	65.2203	99.9888	
    77	-0.0095	-0.1477	-0.1572	-0.4760	-0.4891	-0.9650	-0.6528	-0.6462	-1.2991	65.3643	99.9888	
    78	-0.1326	-0.2093	-0.3419	-0.5415	-0.5050	-1.0464	-0.6914	-0.6383	-1.3297	65.2744	99.9896	
    79	-0.3323	-0.3039	-0.6362	-0.6793	-0.5409	-1.2201	-0.8034	-0.6443	-1.4476	65.0929	99.9906	
    80	-0.4303	-0.3216	-0.7519	-0.6820	-0.4814	-1.1633	-0.6912	-0.5416	-1.2327	65.1029	99.9900	
    81	-0.2529	-0.2266	-0.4795	-0.4996	-0.4547	-0.9542	-0.5986	-0.5800	-1.1786	65.4641	99.9923	
    82	-0.6676	-0.5387	-1.2063	-0.9980	-0.7862	-1.7841	-1.1520	-0.8741	-2.0261	65.0415	99.9913	
    83	-1.0506	-0.7035	-1.7541	-1.2641	-0.9134	-2.1774	-1.3428	-0.9832	-2.3260	65.2301	99.9920	
    84	-1.1311	-0.6822	-1.8133	-1.2921	-0.8450	-2.1370	-1.2974	-0.8797	-2.1771	65.1440	99.9913	
    85	-0.9731	-0.5424	-1.5156	-1.1176	-0.7375	-1.8549	-1.1562	-0.7587	-1.9150	65.1451	99.9916	
    86	-0.8578	-0.4856	-1.3434	-1.0236	-0.6796	-1.7030	-1.0423	-0.7193	-1.7615	65.2372	99.9910	
    87	-0.8888	-0.5047	-1.3935	-1.0899	-0.7082	-1.7980	-1.0880	-0.7373	-1.8253	65.1908	99.9894	
    88	-0.8443	-0.3922	-1.2365	-0.9785	-0.5783	-1.5568	-0.9280	-0.5832	-1.5112	65.2418	99.9893	
    89	-0.4207	-0.1740	-0.5947	-0.5722	-0.3770	-0.9491	-0.5404	-0.4468	-0.9872	65.5597	99.9904	
    90	-0.3673	-0.2687	-0.6360	-0.6137	-0.5250	-1.1387	-0.7133	-0.6305	-1.3438	65.4632	99.9917	
    91	-1.0061	-0.5910	-1.5971	-1.2072	-0.8294	-2.0365	-1.2711	-0.9060	-2.1772	65.3691	99.9915	
    92	-1.4287	-0.7945	-2.2232	-1.5784	-0.9846	-2.5629	-1.5803	-1.0359	-2.6162	65.2779	99.9914	
    93	-1.5363	-0.8466	-2.3829	-1.6380	-1.0091	-2.6470	-1.6021	-1.0282	-2.6304	65.2348	99.9912	
    94	-1.2640	-0.6647	-1.9287	-1.3174	-0.8360	-2.1533	-1.2794	-0.8576	-2.1369	65.4211	99.9919	
    95	-1.1225	-0.5493	-1.6718	-1.1799	-0.7024	-1.8822	-1.0839	-0.6704	-1.7543	65.2441	99.9895	
    96	-0.5332	-0.1865	-0.7197	-0.6310	-0.3888	-1.0197	-0.5796	-0.4500	-1.0296	65.6507	99.9908	
    97	-0.0397	-0.0387	-0.0784	-0.2923	-0.3393	-0.6315	-0.3809	-0.4861	-0.8670	65.8298	99.9913	
    98	-0.4768	-0.3503	-0.8271	-0.7816	-0.6284	-1.4099	-0.9136	-0.7135	-1.6271	65.2301	99.9906	
    99	-0.9557	-0.5033	-1.4591	-1.1294	-0.7203	-1.8495	-1.1562	-0.7587	-1.9150	65.2354	99.9907	
   100	-1.1070	-0.5397	-1.6467	-1.2538	-0.7479	-2.0016	-1.2303	-0.7838	-2.0141	65.3279	99.9901	
   101	-1.2223	-0.5966	-1.8189	-1.3746	-0.8223	-2.1968	-1.3746	-0.8638	-2.2384	65.3257	99.9905	
   102	-1.4307	-0.7107	-2.1414	-1.5937	-0.9206	-2.5142	-1.5640	-0.9506	-2.5146	65.2330	99.9896	
   103	-1.5935	-0.8109	-2.4045	-1.7481	-1.0157	-2.7637	-1.6987	-1.0567	-2.7555	65.3238	99.9896	
   104	-1.8029	-0.9398	-2.7427	-1.9420	-1.1229	-3.0648	-1.8488	-1.1403	-2.9892	65.2784	99.9887	
   105	-1.8029	-0.9398	-2.7427	-1.8757	-1.0943	-2.9699	-1.7625	-1.0968	-2.8593	65.3275	99.9897	
   106	-1.6953	-0.8878	-2.5831	-1.7505	-1.0539	-2.8043	-1.6717	-1.0720	-2.7437	65.4188	99.9910	
   107	-1.7767	-0.9946	-2.7712	-1.9132	-1.1786	-3.0918	-1.8812	-1.2143	-3.0955	65.2761	99.9907	
   108	-1.8940	-0.9676	-2.8616	-1.9412	-1.1102	-3.0513	-1.8243	-1.1035	-2.9278	65.2823	99.9902	
   109	-1.7796	-0.9255	-2.7051	-1.8958	-1.1067	-3.0024	-1.8243	-1.1035	-2.9278	65.1874	99.9893	
   110	-1.7390	-0.8721	-2.6111	-1.7876	-1.0278	-2.8153	-1.6793	-1.0124	-2.6916	65.2835	99.9899	
   111	-1.6605	-0.8096	-2.4701	-1.7130	-0.9696	-2.6824	-1.5936	-0.9800	-2.5736	65.4205	99.9900	
   112	-1.6285	-0.7757	-2.4042	-1.6585	-0.9238	-2.5821	-1.5503	-0.9099	-2.4602	65.2854	99.9904	
   113	-1.5665	-0.7376	-2.3040	-1.6099	-0.8693	-2.4791	-1.4640	-0.8664	-2.3304	65.3322	99.9897	
   114	-1.5035	-0.6846	-2.1881	-1.5554	-0.8235	-2.3788	-1.4054	-0.8188	-2.2241	65.3326	99.9892	
   115	-1.4889	-0.6898	-2.1787	-1.5637	-0.8531	-2.4167	-1.4370	-0.8816	-2.3186	65.4667	99.9897	
   116	-1.5733	-0.7276	-2.3008	-1.6375	-0.8986	-2.5361	-1.5227	-0.9139	-2.4366	65.4207	99.9898	
   117	-1.4171	-0.7307	-2.1478	-1.4575	-0.9102	-2.3676	-1.3561	-0.9273	-2.2834	65.6033	99.9904	
   118	-1.1437	-0.6474	-1.7912	-1.2309	-0.7950	-2.0258	-1.1415	-0.7924	-1.9339	65.3324	99.9898	
   119	-0.9083	-0.3466	-1.2549	-1.0337	-0.4287	-1.4623	-0.9449	-0.4007	-1.3456	64.7055	99.9896	
   120	-0.7757	-0.1373	-0.9130	-0.8370	-0.1728	-1.0097	-0.6972	-0.1807	-0.8779	64.8496	99.9909	
   121	-0.6420	-0.0266	-0.6686	-0.7154	-0.0857	-0.8009	-0.5857	-0.0892	-0.6748	64.8503	99.9905	
   122	-0.5402	 0.0502	-0.4900	-0.6474	-0.0316	-0.6789	-0.5246	-0.0937	-0.6183	65.0713	99.9907	
   123	-0.5198	 0.0202	-0.4996	-0.6656	-0.1163	-0.7818	-0.6149	-0.2041	-0.8190	65.1552	99.9914	
   124	-0.6399	-0.1105	-0.7504	-0.9097	-0.3033	-1.2129	-0.9418	-0.4416	-1.3834	65.0979	99.9912	
   125	-0.9578	-0.3062	-1.2640	-1.2974	-0.5177	-1.8151	-1.3649	-0.6110	-1.9759	64.6752	99.9897	
   126	-1.1566	-0.3860	-1.5426	-1.5107	-0.6246	-2.1352	-1.5911	-0.7531	-2.3442	64.8068	99.9901	
   127	-1.3881	-0.6278	-2.0159	-1.8183	-0.8998	-2.7180	-1.8858	-1.0134	-2.8992	64.7977	99.9873	
   128	-1.5955	-0.8405	-2.4359	-1.9522	-1.0803	-3.0324	-1.8816	-1.1288	-3.0104	65.0395	99.9837	
   129	-1.6178	-0.8400	-2.4578	-1.8583	-1.0224	-2.8805	-1.7179	-1.0044	-2.7223	65.0044	99.9837	
   130	-1.5606	-0.7623	-2.3229	-1.7374	-0.9479	-2.6852	-1.5909	-0.9354	-2.5263	65.1908	99.9853	
   131	-1.4899	-0.7046	-2.1945	-1.6636	-0.9024	-2.5659	-1.4879	-0.8921	-2.3800	65.3290	99.9841	
   132	-1.4356	-0.6712	-2.1068	-1.5937	-0.9206	-2.5142	-1.4732	-0.9257	-2.3989	65.5100	99.9855	
   133	-1.6420	-0.8691	-2.5111	-1.8907	-1.1280	-3.0186	-1.8051	-1.1558	-2.9609	65.3670	99.9849	
   134	-1.9765	-0.9758	-2.9522	-2.1102	-1.1286	-3.2386	-1.9137	-1.1060	-3.0198	65.1902	99.9854	
   135	-1.9114	-1.0066	-2.9181	-2.0696	-1.2015	-3.2709	-1.9372	-1.2173	-3.1545	65.3695	99.9869	
   136	-1.9765	-0.9758	-2.9522	-2.0127	-1.1175	-3.1300	-1.8383	-1.0587	-2.8970	65.1938	99.9876	
   137	-1.5094	-0.5465	-2.0559	-1.6173	-0.6780	-2.2952	-1.4608	-0.6284	-2.0891	64.8350	99.9868	
   138	-1.1421	-0.2778	-1.4200	-1.2543	-0.3442	-1.5985	-1.0893	-0.2984	-1.3877	64.5744	99.9878	
   139	-0.9541	-0.1337	-1.0879	-1.0581	-0.1989	-1.2568	-0.8767	-0.1970	-1.0737	64.8021	99.9885	
   140	-0.8844	-0.0908	-0.9751	-1.0075	-0.2167	-1.2241	-0.8821	-0.2862	-1.1683	65.1555	99.9900	
   141	-1.0442	-0.2601	-1.3043	-1.2868	-0.4499	-1.7366	-1.2469	-0.5047	-1.7515	64.8709	99.9885	
   142	-1.2042	-0.3160	-1.5202	-1.4917	-0.5272	-2.0188	-1.4833	-0.6318	-2.1151	64.9086	99.9892	
   143	-1.5482	-0.5704	-2.1186	-1.9699	-0.8463	-2.8161	-2.0299	-0.9967	-3.0265	64.8424	99.9881	
   144	-1.8312	-0.8013	-2.6324	-2.2835	-1.1129	-3.3963	-2.3123	-1.2385	-3.5508	64.9306	99.9852	
   145	-1.8776	-0.9433	-2.8208	-2.2511	-1.2154	-3.4665	-2.1515	-1.2555	-3.4070	65.0823	99.9811	
   146	-1.7574	-0.8126	-2.5700	-2.0114	-0.9943	-3.0056	-1.8619	-0.9877	-2.8496	64.9109	99.9835	
   147	-1.5065	-0.6155	-2.1220	-1.7646	-0.8667	-2.6313	-1.6436	-0.8826	-2.5262	65.1863	99.9832	
   148	-1.6285	-0.7757	-2.4042	-1.9767	-1.0586	-3.0352	-1.9155	-1.0428	-2.9583	64.8548	99.9808	
   149	-1.8408	-0.8356	-2.6764	-2.0355	-1.0703	-3.1058	-1.9465	-1.0945	-3.0410	65.2296	99.9866	
   150	-2.1015	-1.0669	-3.1684	-2.3183	-1.2568	-3.5749	-2.1819	-1.2960	-3.4779	65.2277	99.9862	
   151	-2.1918	-0.9665	-3.1583	-2.4113	-1.0937	-3.5050	-2.2391	-1.0423	-3.2814	64.4972	99.9838	
   152	-1.7907	-0.5212	-2.3119	-1.9354	-0.6047	-2.5400	-1.6889	-0.5250	-2.2139	64.4305	99.9834	
   153	-1.3022	-0.2204	-1.5226	-1.4596	-0.3238	-1.7833	-1.2914	-0.3181	-1.6095	64.6121	99.9870	
   154	-1.2595	-0.2509	-1.5104	-1.5070	-0.4632	-1.9701	-1.4605	-0.5317	-1.9922	64.8673	99.9882	
   155	-1.5173	-0.4379	-1.9552	-1.8569	-0.6910	-2.5478	-1.8337	-0.7984	-2.6321	64.9008	99.9870	
   156	-1.7083	-0.5129	-2.2212	-2.0788	-0.7297	-2.8084	-2.0505	-0.7844	-2.8349	64.3892	99.9855	
   157	-1.8023	-0.5850	-2.3873	-2.2028	-0.8551	-3.0578	-2.2002	-0.9536	-3.1538	64.6584	99.9856	
   158	-1.9417	-0.7843	-2.7260	-2.3047	-1.0403	-3.3449	-2.2018	-1.0726	-3.2744	64.8051	99.9815	
   159	-1.9495	-0.7890	-2.7385	-2.2360	-0.9735	-3.2094	-2.0780	-0.9626	-3.0406	64.6776	99.9822	
   160	-2.0009	-0.7782	-2.7791	-2.2613	-0.9646	-3.2257	-2.0876	-0.9364	-3.0240	64.6799	99.9818	
   161	-2.1938	-0.8827	-3.0765	-2.4508	-1.1058	-3.5565	-2.2964	-1.0676	-3.3640	64.7204	99.9812	
   162	-2.2297	-0.8623	-3.0920	-2.3880	-1.0304	-3.4183	-2.1900	-0.9686	-3.1585	64.7308	99.9831	
   163	-2.2258	-0.9166	-3.1423	-2.3727	-1.0944	-3.4670	-2.2257	-1.0983	-3.3240	65.0013	99.9869	
   164	-2.3528	-0.9239	-3.2767	-2.4200	-1.0256	-3.4455	-2.2169	-0.9534	-3.1703	64.6455	99.9867	
   165	-2.0215	-0.5215	-2.5430	-2.1576	-0.5457	-2.7032	-1.8907	-0.4480	-2.3387	64.0262	99.9839	
   166	-1.5331	-0.1074	-1.6405	-1.6107	-0.1598	-1.7704	-1.3912	-0.1234	-1.5146	64.3517	99.9877	
   167	-1.2714	 0.0254	-1.2460	-1.4496	-0.0605	-1.5100	-1.2881	-0.0801	-1.3683	64.3425	99.9877	
   168	-1.2035	 0.0388	-1.1647	-1.4453	-0.0946	-1.5397	-1.3437	-0.1687	-1.5124	64.4666	99.9883	
   169	-1.4458	-0.1387	-1.5845	-1.8042	-0.3647	-2.1688	-1.8200	-0.4787	-2.2987	64.3927	99.9884	
   170	-1.7628	-0.3197	-2.0824	-2.2097	-0.5533	-2.7629	-2.2496	-0.6628	-2.9124	64.0495	99.9869	
   171	-2.0274	-0.4967	-2.5241	-2.5320	-0.7518	-3.2837	-2.5447	-0.8376	-3.3822	63.9447	99.9835	
   172	-2.1707	-0.6417	-2.8124	-2.5502	-0.8365	-3.3865	-2.4153	-0.8206	-3.2360	64.0666	99.9800	
   173	-2.1514	-0.5731	-2.7245	-2.4135	-0.7156	-3.1290	-2.2451	-0.6815	-2.9266	64.1306	99.9830	
   174	-2.2406	-0.5713	-2.8119	-2.4656	-0.7232	-3.1887	-2.2792	-0.6922	-2.9714	64.2701	99.9832	
   175	-2.5837	-0.8109	-3.3946	-2.8826	-0.9923	-3.8748	-2.7378	-0.8946	-3.6324	63.7911	99.9795	
   176	-2.5431	-0.6441	-3.1873	-2.6717	-0.7154	-3.3870	-2.3930	-0.6349	-3.0279	64.1024	99.9833	
   177	-2.4722	-0.8131	-3.2853	-2.7172	-0.9271	-3.6442	-2.5802	-0.8706	-3.4507	63.8921	99.9846	
   178	-2.6654	-0.5776	-3.2430	-2.7648	-0.5524	-3.3171	-2.5075	-0.4066	-2.9141	63.2961	99.9851	
   179	-2.1897	-0.1288	-2.3184	-2.2652	-0.0977	-2.3628	-2.0187	 0.0186	-2.0001	63.3180	99.9868	
   180	-1.7206	 0.2167	-1.5039	-1.8299	 0.2561	-1.5738	-1.5663	 0.3028	-1.2634	63.5097	99.9873	
   181	-1.4871	 0.3747	-1.1124	-1.6696	 0.3426	-1.3270	-1.4902	 0.3614	-1.1288	63.4948	99.9873	
   182	-1.4706	 0.3990	-1.0716	-1.7158	 0.3264	-1.3894	-1.6249	 0.2552	-1.3697	63.6060	99.9895	
   183	-1.6983	 0.2162	-1.4821	-2.1320	 0.0700	-2.0620	-2.1726	-0.0353	-2.2078	63.1845	99.9887	
   184	-2.0153	 0.0353	-1.9800	-2.5131	-0.1403	-2.6533	-2.5738	-0.2123	-2.7862	62.8800	99.9867	
   185	-2.2759	-0.1960	-2.4720	-2.7730	-0.3738	-3.1467	-2.7256	-0.4149	-3.1405	63.1169	99.9823	
   186	-2.4571	-0.3501	-2.8073	-2.8358	-0.4492	-3.2849	-2.6908	-0.3931	-3.0838	63.0123	99.9811	
   187	-2.5813	-0.3132	-2.8944	-2.8965	-0.3887	-3.2851	-2.7168	-0.2700	-2.9868	62.8004	99.9802	
   188	-2.4699	-0.2020	-2.6719	-2.7512	-0.3360	-3.0871	-2.6158	-0.2601	-2.8759	63.1631	99.9826	
   189	-2.7413	-0.3691	-3.1104	-3.1149	-0.4743	-3.5890	-2.9898	-0.3557	-3.3455	62.5434	99.9797	
   190	-2.8858	-0.3021	-3.1880	-3.1278	-0.3721	-3.4998	-2.9447	-0.3489	-3.2936	63.1600	99.9854	
   191	-3.0079	-0.4623	-3.4702	-3.2637	-0.4803	-3.7438	-3.0618	-0.3474	-3.4092	62.5711	99.9823	
   192	-2.8501	-0.0959	-2.9460	-3.0827	-0.0627	-3.1452	-2.8874	 0.1376	-2.7498	61.8739	99.9823	
   193	-2.4869	 0.3404	-2.1465	-2.6817	 0.4659	-2.2157	-2.4171	 0.6262	-1.7909	61.7938	99.9844	
   194	-2.1148	 0.6829	-1.4319	-2.3168	 0.7274	-1.5893	-2.1233	 0.7786	-1.3447	62.2775	99.9874	
   195	-2.0112	 0.7893	-1.2219	-2.3196	 0.7869	-1.5325	-2.2025	 0.7611	-1.4414	62.2413	99.9880	
   196	-2.2070	 0.7537	-1.4533	-2.5774	 0.6893	-1.8879	-2.5451	 0.6316	-1.9135	62.1057	99.9886	
   197	-2.4309	 0.6301	-1.8008	-2.9217	 0.5507	-2.3709	-2.9379	 0.5028	-2.4351	61.5982	99.9870	
   198	-2.6276	 0.4664	-2.1612	-3.2305	 0.3605	-2.8699	-3.3077	 0.2918	-3.0159	61.3070	99.9862	
   199	-2.8582	 0.2394	-2.6188	-3.4844	 0.1183	-3.3660	-3.4748	 0.1117	-3.3631	61.3540	99.9806	
   200	-2.9987	 0.1387	-2.8600	-3.5172	 0.1104	-3.4067	-3.4012	 0.2223	-3.1789	61.0932	99.9783	
   201	-2.9882	 0.3012	-2.6871	-3.4464	 0.3131	-3.1332	-3.3221	 0.4222	-2.9000	60.9820	99.9811	
   202	-3.0338	 0.2873	-2.7465	-3.5092	 0.2377	-3.2714	-3.4323	 0.3529	-3.0794	61.0024	99.9804	
   203	-3.4642	 0.0790	-3.3852	-3.9274	 0.0536	-3.8737	-3.7879	 0.1938	-3.5940	60.9022	99.9783	
   204	-3.6126	 0.0869	-3.5257	-3.9277	 0.1513	-3.7763	-3.6999	 0.3564	-3.3436	60.8338	99.9798	
   205	-3.4091	 0.2406	-3.1685	-3.7516	 0.2843	-3.4672	-3.6136	 0.3999	-3.2137	60.9453	99.9845	
   206	-3.5235	 0.1985	-3.3250	-3.9031	 0.3378	-3.5652	-3.6950	 0.5311	-3.1639	60.2849	99.9811	
   207	-3.4008	 0.7135	-2.6873	-3.7252	 0.9127	-2.8124	-3.4694	 1.1233	-2.3461	59.8560	99.9819	
   208	-2.9358	 1.2266	-1.7092	-3.2358	 1.4100	-1.8257	-3.0281	 1.5937	-1.4344	59.8059	99.9844	
   209	-2.7712	 1.4698	-1.3014	-3.1406	 1.5911	-1.5494	-3.0401	 1.6719	-1.3682	59.8405	99.9872	
   210	-3.0204	 1.4156	-1.6048	-3.5102	 1.4614	-2.0487	-3.5096	 1.4734	-2.0362	59.6416	99.9876	
   211	-3.2976	 1.2733	-2.0243	-3.9283	 1.2773	-2.6509	-3.9812	 1.2415	-2.7397	59.3543	99.9864	
   212	-3.4671	 1.0697	-2.3974	-4.2185	 1.0740	-3.1445	-4.2763	 1.0667	-3.2096	58.9215	99.9829	
   213	-3.5222	 0.9082	-2.6141	-4.2265	 0.9466	-3.2798	-4.1612	 1.0318	-3.1295	59.0372	99.9778	
   214	-3.5804	 0.9290	-2.6514	-4.1353	 1.0641	-3.0711	-4.0378	 1.2273	-2.8105	58.8047	99.9810	
   215	-3.6038	 1.0281	-2.5757	-4.1439	 1.1322	-3.0116	-4.0737	 1.2798	-2.7938	58.8402	99.9821	
   216	-3.8916	 0.8367	-3.0550	-4.4669	 0.9210	-3.5459	-4.3958	 1.1203	-3.2754	58.5709	99.9789	
   217	-4.0691	 0.8550	-3.2141	-4.5159	 0.9643	-3.5515	-4.3757	 1.1759	-3.1998	58.8614	99.9805	
   218	-4.1535	 0.8173	-3.3362	-4.6106	 0.8936	-3.7169	-4.5200	 1.0959	-3.4241	58.8243	99.9814	
   219	-4.3144	 0.7466	-3.5678	-4.7180	 0.8275	-3.8905	-4.5954	 1.0485	-3.5469	58.9325	99.9813	
   220	-4.4152	 0.6845	-3.7307	-4.8002	 0.7524	-4.0477	-4.6554	 0.9786	-3.6768	59.0710	99.9805	
   221	-4.4695	 0.6511	-3.8184	-4.8665	 0.7238	-4.1427	-4.7353	 0.9499	-3.7854	58.9657	99.9808	
   222	-4.6120	 0.6342	-3.9778	-5.0221	 0.7136	-4.3083	-4.8967	 0.9557	-3.9410	58.7210	99.9803	
   223	-4.7362	 0.6712	-4.0650	-5.1357	 0.7538	-4.3818	-5.0111	 1.0018	-4.0093	58.5792	99.9806	
   224	-4.8157	 0.7073	-4.1084	-5.2293	 0.8064	-4.4228	-5.0972	 1.0550	-4.0422	58.3911	99.9804	
   225	-4.8875	 0.7482	-4.1394	-5.3026	 0.8713	-4.4312	-5.1491	 1.1189	-4.0302	58.2607	99.9803	
   226	-4.9138	 0.8029	-4.1109	-5.3062	 0.9181	-4.3879	-5.1625	 1.1749	-3.9876	58.2202	99.9808	
   227	-4.9933	 0.8390	-4.1544	-5.3938	 0.9621	-4.4316	-5.2434	 1.2205	-4.0229	58.0785	99.9805	
   228	-5.0962	 0.8607	-4.2354	-5.4948	 0.9978	-4.4969	-5.3520	 1.2703	-4.0817	57.8442	99.9808	
   229	-5.1971	 0.9120	-4.2850	-5.5749	 1.0586	-4.5162	-5.4315	 1.3383	-4.0933	57.7116	99.9814	
   230	-5.2970	 0.9781	-4.3189	-5.6854	 1.1497	-4.5356	-5.5214	 1.4212	-4.1001	57.5298	99.9814	
   231	-5.4125	 1.0346	-4.3779	-5.7908	 1.2195	-4.5712	-5.6119	 1.4931	-4.1188	57.3976	99.9815	
   232	-5.4329	 1.0646	-4.3683	-5.8069	 1.2708	-4.5361	-5.6085	 1.5488	-4.0597	57.3214	99.9814	
   233	-5.3476	 1.1171	-4.2305	-5.6853	 1.3579	-4.3273	-5.4680	 1.6586	-3.8094	57.2777	99.9819	
   234	-5.2158	 1.1983	-4.0175	-5.5502	 1.4534	-4.0968	-5.3609	 1.7688	-3.5921	57.1108	99.9828	
   235	-5.1741	 1.2664	-3.9077	-5.5068	 1.5291	-3.9776	-5.3278	 1.8539	-3.4739	56.9836	99.9831	
   236	-5.1529	 1.3646	-3.7883	-5.4668	 1.6517	-3.8151	-5.2811	 1.9798	-3.3014	56.8734	99.9838	
   237	-5.0396	 1.5052	-3.5343	-5.3539	 1.8069	-3.5468	-5.1772	 2.1309	-3.0462	56.7572	99.9846	
   238	-5.0725	 1.4566	-3.6159	-5.4403	 1.7659	-3.6743	-5.2700	 2.0726	-3.1974	56.6322	99.9841	
   239	-5.1356	 1.5170	-3.6186	-5.5094	 1.7968	-3.7125	-5.4000	 2.0445	-3.3555	56.6686	99.9868	
   240	-5.5108	 1.3569	-4.1538	-5.9283	 1.6000	-4.3283	-5.8418	 1.8419	-3.9999	56.4857	99.9860	
   241	-5.8346	 1.2993	-4.5353	-6.1956	 1.5577	-4.6378	-6.0780	 1.8115	-4.2665	56.4465	99.9865	
   242	-5.9510	 1.3411	-4.6099	-6.3093	 1.5979	-4.7113	-6.1467	 1.8756	-4.2711	56.3719	99.9845	
   243	-5.9424	 1.4740	-4.4684	-6.2693	 1.7204	-4.5488	-6.0826	 2.0124	-4.0702	56.4075	99.9839	
   244	-5.7971	 1.6485	-4.1486	-6.1532	 1.9267	-4.2264	-5.9725	 2.2639	-3.7086	55.9390	99.9827	
   245	-5.4958	 1.9333	-3.5626	-5.8522	 2.1978	-3.6544	-5.6843	 2.5094	-3.1749	56.0216	99.9834	
   246	-5.2777	 2.0817	-3.1961	-5.7013	 2.3397	-3.3616	-5.5527	 2.6565	-2.8962	55.7897	99.9819	
   247	-5.3224	 2.0826	-3.2398	-5.7400	 2.3403	-3.3996	-5.5926	 2.6421	-2.9505	55.8279	99.9826	
   248	-5.4746	 2.0314	-3.4432	-5.8778	 2.3044	-3.5733	-5.7277	 2.6215	-3.1062	55.6871	99.9828	
   249	-5.5667	 1.9889	-3.5778	-5.9896	 2.2723	-3.7171	-5.8346	 2.6080	-3.2265	55.4928	99.9818	
   250	-5.6481	 1.9954	-3.6527	-6.0535	 2.2819	-3.7715	-5.9059	 2.6275	-3.2784	55.4013	99.9824	
   251	-5.7286	 2.0168	-3.7119	-6.1486	 2.3090	-3.8395	-5.9882	 2.6509	-3.3373	55.3020	99.9818	
   252	-5.7859	 2.0524	-3.7335	-6.2043	 2.3482	-3.8560	-6.0575	 2.7039	-3.3536	55.1151	99.9820	
   253	-5.8431	 2.0880	-3.7551	-6.2792	 2.3877	-3.8915	-6.1231	 2.7270	-3.3960	55.0572	99.9818	
   254	-5.9246	 2.0946	-3.8300	-6.3499	 2.3931	-3.9567	-6.1893	 2.7390	-3.4503	55.0114	99.9818	
   255	-5.9615	 2.1003	-3.8612	-6.3752	 2.4020	-3.9730	-6.2111	 2.7468	-3.4644	55.0155	99.9821	
   256	-5.9983	 2.1059	-3.8924	-6.4257	 2.4199	-4.0057	-6.2876	 2.7738	-3.5138	54.7700	99.9827	
   257	-6.0711	 2.1320	-3.9391	-6.5208	 2.4470	-4.0737	-6.3918	 2.8049	-3.5869	54.5656	99.9823	
   258	-6.1953	 2.1690	-4.0263	-6.6420	 2.4703	-4.1716	-6.5256	 2.8066	-3.7190	54.5359	99.9832	
   259	-6.3999	 2.2273	-4.1726	-6.7884	 2.5025	-4.2858	-6.6426	 2.8081	-3.8345	54.8162	99.9842	
   260	-6.5297	 2.0623	-4.4674	-6.9610	 2.3227	-4.6382	-6.8227	 2.5984	-4.2243	54.8842	99.9839	
   261	-6.7226	 1.9578	-4.7649	-7.1391	 2.2620	-4.8770	-7.0152	 2.5526	-4.4626	54.5935	99.9853	
   262	-6.8778	 1.9756	-4.9022	-7.2603	 2.2853	-4.9749	-7.1193	 2.5837	-4.5356	54.5600	99.9856	
   263	-6.8439	 2.0390	-4.8049	-7.2235	 2.3569	-4.8665	-7.1088	 2.6653	-4.4434	54.3791	99.9864	
   264	-6.8895	 2.0252	-4.8643	-7.3151	 2.3372	-4.9778	-7.2176	 2.6184	-4.5992	54.2804	99.9864	
   265	-6.9370	 1.9818	-4.9552	-7.3151	 2.3372	-4.9778	-7.1866	 2.6701	-4.5165	54.1610	99.9862	
   266	-6.6462	 2.1041	-4.5421	-6.9499	 2.5010	-4.4488	-6.7447	 2.8727	-3.8721	54.4546	99.9853	
   267	-6.1071	 2.2658	-3.8413	-6.4524	 2.6115	-3.8408	-6.2550	 2.9445	-3.3105	54.9353	99.9843	
   268	-5.9840	 2.3274	-3.6566	-6.4654	 2.7137	-3.7515	-6.3343	 3.1091	-3.2252	53.9308	99.9820	
   269	-6.0075	 2.5398	-3.4677	-6.4432	 2.8621	-3.5810	-6.2999	 3.2165	-3.0834	54.3048	99.9825	
   270	-6.0328	 2.6093	-3.4235	-6.4451	 2.9343	-3.5107	-6.3074	 3.2761	-3.0313	54.3134	99.9838	
   271	-6.1190	 2.5420	-3.5770	-6.5971	 2.8774	-3.7196	-6.4883	 3.2376	-3.2508	53.8906	99.9827	
   272	-6.2684	 2.5352	-3.7332	-6.7191	 2.8880	-3.8310	-6.5873	 3.2612	-3.3262	53.8170	99.9828	
   273	-6.3343	 2.5513	-3.7831	-6.7764	 2.9017	-3.8746	-6.6529	 3.2843	-3.3686	53.7210	99.9830	
   274	-6.3916	 2.5869	-3.8047	-6.8387	 2.9367	-3.9019	-6.7178	 3.3186	-3.3991	53.6203	99.9829	
   275	-6.4779	 2.6330	-3.8449	-6.9196	 2.9848	-3.9347	-6.7768	 3.3566	-3.4203	53.6249	99.9828	
   276	-6.5051	 2.6730	-3.8322	-6.9306	 3.0148	-3.9158	-6.7922	 3.3791	-3.4131	53.6707	99.9833	
   277	-6.5410	 2.6934	-3.8476	-6.9938	 3.0371	-3.9566	-6.8417	 3.3909	-3.4508	53.6112	99.9825	
   278	-6.6594	 2.7056	-3.9537	-7.0913	 3.0260	-4.0652	-6.9158	 3.3658	-3.5500	53.7900	99.9822	
   279	-6.7709	 2.7078	-4.0630	-7.1904	 2.9894	-4.2009	-6.9809	 3.3034	-3.6775	54.0978	99.9812	
   280	-6.8252	 2.6744	-4.1507	-7.2054	 2.9557	-4.2496	-6.9713	 3.2773	-3.6941	54.2616	99.9812	
   281	-6.8232	 2.7040	-4.1193	-7.2089	 3.0025	-4.2064	-6.9970	 3.3148	-3.6822	54.1154	99.9826	
   282	-6.9096	 2.7500	-4.1596	-7.3167	 3.0340	-4.2826	-7.1024	 3.3236	-3.7789	54.0845	99.9823	
   283	-7.0501	 2.6493	-4.4008	-7.4593	 2.9217	-4.5374	-7.2996	 3.1997	-4.1000	53.9717	99.9842	
   284	-7.2644	 2.5600	-4.7044	-7.6575	 2.8486	-4.8088	-7.5095	 3.1429	-4.3666	53.7640	99.9850	
   285	-7.2343	 2.5643	-4.6700	-7.5777	 2.8855	-4.6921	-7.4160	 3.2123	-4.2037	53.7355	99.9856	
   286	-6.9733	 2.4556	-4.5177	-7.3729	 2.7546	-4.6182	-7.2531	 3.0466	-4.2065	53.9627	99.9858	
   287	-6.8170	 2.2258	-4.5912	-7.1890	 2.5985	-4.5904	-7.0868	 2.9366	-4.1502	53.8737	99.9873	
   288	-6.4757	 2.3225	-4.1532	-6.8262	 2.7241	-4.1020	-6.6862	 3.1025	-3.5837	53.9853	99.9861	
   289	-6.2905	 2.4222	-3.8683	-6.7424	 2.8246	-3.9177	-6.6596	 3.1728	-3.4868	53.6479	99.9861	
   290	-6.3643	 2.4336	-3.9307	-6.7997	 2.8384	-3.9612	-6.6880	 3.1658	-3.5222	53.7945	99.9863	
   291	-6.3157	 2.3784	-3.9373	-6.7768	 2.7912	-3.9855	-6.7138	 3.1066	-3.6073	53.6618	99.9875	
   292	-6.3312	 2.3689	-3.9624	-6.7642	 2.7868	-3.9773	-6.6732	 3.1321	-3.5412	53.7028	99.9867	
   293	-6.2440	 2.4509	-3.7931	-6.7022	 2.8495	-3.8526	-6.6255	 3.1835	-3.4420	53.6892	99.9864	
   294	-6.2692	 2.4070	-3.8622	-6.7247	 2.7988	-3.9257	-6.6739	 3.1209	-3.5530	53.7078	99.9874	
   295	-6.2925	 2.3927	-3.8997	-6.7239	 2.8116	-3.9122	-6.6442	 3.1503	-3.4939	53.7028	99.9873	
   296	-6.2198	 2.4800	-3.7398	-6.6678	 2.8829	-3.7848	-6.5907	 3.2054	-3.3853	53.7441	99.9870	
   297	-6.2353	 2.4704	-3.7649	-6.7014	 2.8622	-3.8391	-6.6416	 3.1949	-3.4466	53.6296	99.9867	
   298	-6.2809	 2.4566	-3.8243	-6.7333	 2.8670	-3.8663	-6.6685	 3.2101	-3.4584	53.5516	99.9869	
   299	-6.2722	 2.4761	-3.7961	-6.7199	 2.8752	-3.8446	-6.6460	 3.2136	-3.4324	53.6479	99.9867	
   300	-6.2644	 2.4809	-3.7836	-6.7065	 2.8835	-3.8229	-6.6235	 3.2170	-3.4065	53.7028	99.9867	
   301	-6.2712	 2.4909	-3.7804	-6.6931	 2.8918	-3.8012	-6.6119	 3.2243	-3.3876	53.7577	99.9872	
   302	-6.2703	 2.5056	-3.7646	-6.6796	 2.9001	-3.7795	-6.5945	 3.2352	-3.3593	53.8125	99.9872	
   303	-6.2625	 2.5104	-3.7521	-6.6788	 2.9128	-3.7660	-6.5989	 3.2539	-3.3451	53.7210	99.9872	
   304	-6.2693	 2.5204	-3.7489	-6.6848	 2.9214	-3.7633	-6.5931	 3.2575	-3.3356	53.7713	99.9870	
   305	-6.2848	 2.5108	-3.7740	-6.6848	 2.9214	-3.7633	-6.5925	 3.2687	-3.3238	53.7391	99.9873	
   306	-6.2606	 2.5399	-3.7207	-6.6378	 2.9503	-3.6873	-6.5300	 3.2865	-3.2435	53.8985	99.9876	
   307	-6.2383	 2.5395	-3.6988	-6.6058	 2.9455	-3.6601	-6.5017	 3.2935	-3.2081	53.9074	99.9875	
   308	-6.2383	 2.5395	-3.6988	-6.6184	 2.9500	-3.6683	-6.4908	 3.2897	-3.2011	53.9574	99.9868	
   309	-6.2771	 2.5156	-3.7614	-6.6520	 2.9293	-3.7226	-6.5474	 3.2755	-3.2719	53.8529	99.9875	
   310	-6.3489	 2.5565	-3.7924	-6.7084	 2.9558	-3.7525	-6.5795	 3.2983	-3.2813	53.9530	99.9870	
   311	-6.3362	 2.5217	-3.8145	-6.7132	 2.8794	-3.8337	-6.6112	 3.2354	-3.3758	53.9632	99.9862	
   312	-6.4234	 2.4397	-3.9837	-6.7894	 2.7957	-3.9936	-6.6764	 3.1730	-3.5033	53.9632	99.9856	
   313	-6.3981	 2.3702	-4.0280	-6.7539	 2.7441	-4.0097	-6.6070	 3.1201	-3.4869	54.1266	99.9852	
   314	-6.3099	 2.3536	-3.9562	-6.6497	 2.7593	-3.8903	-6.4603	 3.1479	-3.3123	54.2285	99.9846	
   315	-6.1412	 2.4291	-3.7121	-6.4961	 2.8417	-3.6543	-6.3282	 3.2095	-3.1188	54.2328	99.9855	
   316	-5.9706	 2.5341	-3.4365	-6.3626	 2.9117	-3.4508	-6.2515	 3.2791	-2.9723	54.1116	99.9856	
   317	-5.8913	 2.7248	-3.1665	-6.3523	 3.0772	-3.2750	-6.2055	 3.3939	-2.8116	54.1853	99.9836	
   318	-5.9058	 2.7300	-3.1759	-6.3918	 3.0651	-3.3265	-6.2505	 3.3870	-2.8635	54.1179	99.9825	
   319	-5.8748	 2.7491	-3.1258	-6.2986	 3.1103	-3.1882	-6.1243	 3.4449	-2.6794	54.2782	99.9833	
   320	-5.8011	 2.7377	-3.0634	-6.2346	 3.1007	-3.1338	-6.0864	 3.4258	-2.6606	54.2654	99.9842	
   321	-5.8486	 2.6943	-3.1543	-6.3085	 3.0552	-3.2531	-6.1676	 3.3748	-2.7928	54.1896	99.9839	
   322	-5.9494	 2.6323	-3.3171	-6.4009	 3.0228	-3.3780	-6.2403	 3.3720	-2.8683	54.0250	99.9833	
   323	-5.9524	 2.7013	-3.2510	-6.3633	 3.1072	-3.2561	-6.2072	 3.4571	-2.7501	54.0103	99.9848	
   324	-5.9020	 2.7890	-3.1130	-6.3242	 3.2170	-3.1071	-6.1452	 3.5604	-2.5847	53.9460	99.9844	
   325	-5.8439	 2.8815	-2.9624	-6.2598	 3.3178	-2.9418	-6.0394	 3.6483	-2.3911	54.0757	99.9838	
   326	-5.7703	 2.9835	-2.7868	-6.1701	 3.4098	-2.7602	-5.9665	 3.7478	-2.2186	54.0480	99.9843	
   327	-5.8208	 3.0092	-2.8116	-6.2811	 3.3904	-2.8905	-6.1378	 3.6831	-2.4547	53.9473	99.9850	
   328	-6.2482	 2.7319	-3.5163	-6.7652	 3.0800	-3.6851	-6.6758	 3.3664	-3.3094	53.6526	99.9848	
   329	-6.8502	 2.5172	-4.3330	-7.2406	 2.9095	-4.3309	-7.0519	 3.2374	-3.8145	53.7532	99.9849	
   330	-6.8055	 2.4030	-4.4025	-7.1139	 2.7672	-4.3467	-6.9326	 3.0871	-3.8455	54.2790	99.9867	
   331	-6.6628	 2.3065	-4.3564	-6.9884	 2.7098	-4.2785	-6.8633	 3.0341	-3.8292	54.0828	99.9885	
   332	-6.7102	 2.1497	-4.5605	-7.0829	 2.5415	-4.5413	-7.0560	 2.8915	-4.1645	53.6666	99.9894	
   333	-6.5920	 2.2509	-4.3411	-6.9059	 2.6872	-4.2187	-6.7681	 3.0403	-3.7277	54.0310	99.9883	
   334	-6.4224	 2.3411	-4.0813	-6.7456	 2.7737	-3.9718	-6.5947	 3.1385	-3.4562	54.0661	99.9873	
   335	-6.4852	 2.1748	-4.3104	-6.8591	 2.5079	-4.3510	-6.8427	 2.8218	-4.0208	54.1654	99.9893	
   336	-6.4406	 2.1739	-4.2667	-6.8349	 2.5840	-4.2508	-6.8127	 2.9479	-3.8648	53.6572	99.9890	
   337	-6.2624	 2.3970	-3.8654	-6.6742	 2.7810	-3.8931	-6.6101	 3.1610	-3.4491	53.7119	99.9864	
   338	-6.0647	 2.5754	-3.4893	-6.4921	 2.9054	-3.5866	-6.3989	 3.2401	-3.1588	54.1373	99.9852	
   339	-6.0909	 2.5168	-3.5740	-6.5533	 2.8554	-3.6978	-6.4350	 3.1960	-3.2391	54.0828	99.9835	
   340	-6.0084	 2.5250	-3.4834	-6.3978	 2.8656	-3.5321	-6.2337	 3.2045	-3.0291	54.5213	99.9840	
   341	-5.8736	 2.5371	-3.3365	-6.2675	 2.8846	-3.3828	-6.1050	 3.2103	-2.8947	54.6249	99.9844	
   342	-5.9153	 2.4690	-3.4463	-6.3370	 2.8050	-3.5319	-6.2486	 3.1415	-3.1071	54.3333	99.9855	
   343	-6.0714	 2.4721	-3.5993	-6.4961	 2.8417	-3.6543	-6.4241	 3.1921	-3.2320	53.9543	99.9863	
   344	-6.1015	 2.4678	-3.6337	-6.5281	 2.8465	-3.6815	-6.4808	 3.1780	-3.3028	53.8862	99.9876	
   345	-6.2401	 2.3966	-3.8435	-6.6556	 2.7679	-3.8876	-6.6309	 3.0943	-3.5365	53.8502	99.9885	
   346	-6.3952	 2.3011	-4.0940	-6.7622	 2.7145	-4.0476	-6.6701	 3.0911	-3.5790	53.8260	99.9874	
   347	-6.2857	 2.3827	-3.9029	-6.6564	 2.7552	-3.9011	-6.6612	 3.0538	-3.6074	53.9792	99.9908	
   348	-6.4881	 2.1305	-4.3576	-6.9053	 2.4917	-4.4134	-6.9618	 2.7899	-4.1719	53.7783	99.9910	
   349	-6.6441	 2.0203	-4.6239	-6.9949	 2.3998	-4.5950	-6.9696	 2.7528	-4.2168	53.9479	99.9895	
   350	-6.6558	 2.0698	-4.5860	-7.0052	 2.4424	-4.5626	-6.9297	 2.7672	-4.1625	54.1962	99.9887	
   351	-6.8594	 2.0295	-4.8299	-7.2740	 2.3747	-4.8992	-7.2265	 2.6557	-4.5708	54.0435	99.9887	
   352	-6.9515	 1.9870	-4.9646	-7.3479	 2.3293	-5.0185	-7.2852	 2.6081	-4.6771	54.1365	99.9887	
   353	-6.8729	 1.9361	-4.9368	-7.2014	 2.2970	-4.9043	-7.0620	 2.6090	-4.4530	54.5146	99.9876	
   354	-6.5249	 2.0228	-4.5020	-6.8157	 2.3755	-4.4401	-6.6835	 2.6859	-3.9976	54.8535	99.9884	
   355	-6.3134	 1.9545	-4.3589	-6.6606	 2.2752	-4.3854	-6.5810	 2.5358	-4.0452	55.0681	99.9890	
   356	-6.4248	 1.8434	-4.5814	-6.7317	 2.1701	-4.5615	-6.6243	 2.4657	-4.1586	55.1385	99.9885	
   357	-6.3743	 1.8177	-4.5566	-6.6879	 2.1482	-4.5397	-6.5574	 2.4648	-4.0926	55.1586	99.9873	
   358	-6.2308	 1.8494	-4.3815	-6.5308	 2.1837	-4.3470	-6.3694	 2.5294	-3.8400	55.2563	99.9860	
   359	-6.0690	 1.9348	-4.1341	-6.3823	 2.2875	-4.0948	-6.2288	 2.6391	-3.5897	55.1431	99.9861	
   360	-5.9653	 2.0412	-3.9241	-6.2784	 2.4004	-3.8779	-6.1436	 2.7571	-3.3865	55.0223	99.9866	
   361	-5.7221	 2.2335	-3.4886	-6.0865	 2.5799	-3.5065	-5.9225	 2.9067	-3.0158	55.1334	99.9849	
   362	-5.5515	 2.3385	-3.2130	-5.9337	 2.6495	-3.2841	-5.8174	 2.9834	-2.8340	55.0759	99.9850	
   363	-5.4885	 2.3914	-3.0971	-5.8733	 2.6867	-3.1864	-5.7659	 3.0051	-2.7608	55.1630	99.9852	
   364	-5.5428	 2.3580	-3.1847	-5.9514	 2.6753	-3.2760	-5.8444	 2.9987	-2.8457	54.9687	99.9850	
   365	-5.6659	 2.2964	-3.3695	-6.0790	 2.5967	-3.4821	-5.9945	 2.9151	-3.0795	54.9280	99.9854	
   366	-5.8656	 2.2018	-3.6637	-6.2973	 2.5112	-3.7860	-6.2109	 2.8435	-3.3674	54.7117	99.9848	
   367	-6.0788	 2.1272	-3.9516	-6.5090	 2.4298	-4.0791	-6.4382	 2.7757	-3.6624	54.5359	99.9848	
   368	-6.2233	 2.0809	-4.1424	-6.6527	 2.4025	-4.2501	-6.5559	 2.7661	-3.7898	54.4021	99.9840	
   369	-6.2621	 2.0570	-4.2051	-6.6803	 2.3732	-4.3070	-6.5689	 2.7365	-3.8324	54.4984	99.9837	
   370	-6.2931	 2.0379	-4.2552	-6.7012	 2.3481	-4.3531	-6.5979	 2.7183	-3.8796	54.4941	99.9839	
   371	-6.3241	 2.0188	-4.3053	-6.7340	 2.3401	-4.3938	-6.6429	 2.7114	-3.9315	54.3935	99.9845	
   372	-6.3629	 1.9949	-4.3679	-6.7684	 2.3067	-4.4616	-6.6784	 2.6784	-4.0000	54.4309	99.9844	
   373	-6.4171	 1.9615	-4.4556	-6.8355	 2.2654	-4.5700	-6.7538	 2.6310	-4.1228	54.4051	99.9843	
   374	-6.4773	 1.9529	-4.5244	-6.8659	 2.2956	-4.5702	-6.7569	 2.6720	-4.0849	54.3518	99.9848	
   375	-6.3280	 2.0731	-4.2549	-6.6621	 2.4579	-4.2041	-6.5198	 2.8102	-3.7095	54.5704	99.9867	
   376	-6.2717	 2.0227	-4.2491	-6.6239	 2.3468	-4.2770	-6.5408	 2.6469	-3.8939	54.8623	99.9880	
   377	-6.6255	 1.8474	-4.7781	-7.0337	 2.1922	-4.8414	-7.0346	 2.5082	-4.5264	54.1409	99.9893	
   378	-6.9165	 1.8384	-5.0780	-7.2658	 2.1962	-5.0696	-7.1626	 2.5135	-4.6491	54.3791	99.9880	
   379	-6.8234	 1.8957	-4.9277	-7.1407	 2.2365	-4.9040	-7.0384	 2.5380	-4.5004	54.6318	99.9887	
   380	-6.6973	 1.8883	-4.8091	-6.9800	 2.2253	-4.7546	-6.8247	 2.5650	-4.2597	54.8870	99.9870	
   381	-6.3319	 2.0140	-4.3178	-6.6021	 2.3846	-4.2174	-6.4498	 2.7684	-3.6813	54.7904	99.9867	
   382	-6.1447	 2.0300	-4.1147	-6.4600	 2.3865	-4.0734	-6.3597	 2.7822	-3.5775	54.6287	99.9865	
   383	-6.0778	 2.0287	-4.0491	-6.3969	 2.3642	-4.0326	-6.3070	 2.7294	-3.5776	54.8406	99.9871	
   384	-6.0797	 1.9991	-4.0806	-6.4245	 2.3349	-4.0895	-6.3425	 2.6964	-3.6461	54.7742	99.9869	
   385	-5.9963	 2.0221	-3.9742	-6.3716	 2.3553	-4.0163	-6.2794	 2.7253	-3.5541	54.7325	99.9855	
   386	-5.8781	 2.1232	-3.7549	-6.2508	 2.4297	-3.8210	-6.1583	 2.7907	-3.3676	54.8822	99.9852	
   387	-5.7996	 2.1857	-3.6139	-6.1888	 2.4924	-3.6963	-6.0938	 2.8420	-3.2518	54.8863	99.9850	
   388	-5.7667	 2.2344	-3.5323	-6.1655	 2.5557	-3.6096	-6.0891	 2.9200	-3.1691	54.6618	99.9852	
   389	-5.7008	 2.3316	-3.3692	-6.0675	 2.6773	-3.3901	-5.9762	 3.0338	-2.9423	54.7076	99.9863	
   390	-5.5681	 2.4275	-3.1405	-5.9451	 2.7772	-3.1678	-5.8551	 3.0992	-2.7558	54.8069	99.9870	
   391	-5.5070	 2.4509	-3.0560	-5.8981	 2.8061	-3.0919	-5.8254	 3.1286	-2.6968	54.7117	99.9873	
   392	-5.4857	 2.5491	-2.9366	-5.8558	 2.9669	-2.8888	-5.7637	 3.3175	-2.4462	54.4115	99.9877	
   393	-5.3366	 2.7827	-2.5539	-5.6993	 3.1979	-2.5013	-5.6069	 3.5126	-2.0943	54.4861	99.9885	
   394	-5.2862	 2.7570	-2.5291	-5.6832	 3.1466	-2.5364	-5.6406	 3.4163	-2.2243	54.5591	99.9896	
   395	-5.4770	 2.5686	-2.9084	-5.8834	 2.9376	-2.9457	-5.8425	 3.2144	-2.6281	54.5998	99.9891	
   396	-5.6524	 2.3898	-3.2626	-6.0165	 2.7699	-3.2465	-5.9445	 3.0967	-2.8478	54.6207	99.9883	
   397	-5.6630	 2.3407	-3.3223	-5.9751	 2.7097	-3.2653	-5.9079	 3.0553	-2.8527	54.7778	99.9889	
   398	-5.6349	 2.3155	-3.3193	-5.9566	 2.6966	-3.2598	-5.8861	 3.0476	-2.8385	54.7365	99.9887	
   399	-5.6290	 2.2908	-3.3383	-5.9724	 2.6502	-3.3221	-5.9062	 2.9920	-2.9141	54.8028	99.9882	
   400	-5.6561	 2.2174	-3.4387	-6.0218	 2.5830	-3.4386	-5.9430	 2.9367	-3.0063	54.7490	99.9872	
   401	-5.6309	 2.2612	-3.3697	-5.9673	 2.6288	-3.3383	-5.8714	 3.0139	-2.8575	54.7447	99.9865	
   402	-5.4526	 2.3710	-3.0816	-5.8188	 2.7326	-3.0861	-5.7110	 3.0825	-2.6285	54.8890	99.9862	
   403	-5.3556	 2.3740	-2.9816	-5.7146	 2.7478	-2.9667	-5.6100	 3.0924	-2.5176	54.9505	99.9868	
   404	-5.3517	 2.3197	-3.0320	-5.7193	 2.6714	-3.0478	-5.6314	 3.0145	-2.6169	55.0171	99.9867	
   405	-5.4166	 2.2372	-3.1794	-5.7754	 2.6001	-3.1752	-5.6952	 2.9744	-2.7208	54.8809	99.9866	
   406	-5.4360	 2.2820	-3.1540	-5.7817	 2.7064	-3.0751	-5.6653	 3.1005	-2.5648	54.6625	99.9866	
   407	-5.3780	 2.4878	-2.8902	-5.7235	 2.9136	-2.8098	-5.6527	 3.2156	-2.4371	54.7241	99.9898	
   408	-5.3131	 2.5703	-2.7428	-5.6927	 2.9939	-2.6988	-5.6763	 3.2866	-2.3897	54.4641	99.9906	
   409	-5.4148	 2.3801	-3.0347	-5.8389	 2.7201	-3.1187	-5.8816	 3.0289	-2.8527	54.4950	99.9897	
   410	-5.6067	 2.2903	-3.3164	-5.9052	 2.6915	-3.2136	-5.8352	 3.0581	-2.7772	54.7159	99.9892	
   411	-5.3236	 2.4079	-2.9158	-5.5752	 2.8092	-2.7659	-5.5192	 3.1172	-2.4020	55.1633	99.9914	
   412	-5.4378	 2.1391	-3.2987	-5.7976	 2.4518	-3.3457	-5.8555	 2.7236	-3.1319	55.1167	99.9916	
   413	-5.7915	 1.8505	-3.9411	-6.0843	 2.2017	-3.8825	-6.0645	 2.4957	-3.5689	55.3242	99.9912	
   414	-5.8865	 1.7636	-4.1228	-6.1404	 2.1304	-4.0099	-6.0846	 2.4401	-3.6445	55.4432	99.9911	
   415	-5.8273	 1.7575	-4.0698	-6.0520	 2.0992	-3.9527	-5.9587	 2.4013	-3.5573	55.8353	99.9905	
   416	-5.9289	 1.5674	-4.3616	-6.1749	 1.8888	-4.2860	-6.0885	 2.1910	-3.8975	55.9279	99.9899	
   417	-5.9755	 1.5387	-4.4368	-6.1891	 1.8678	-4.3212	-6.0912	 2.1464	-3.9448	56.1186	99.9909	
   418	-6.0500	 1.4219	-4.6281	-6.3080	 1.7211	-4.5868	-6.2345	 1.9920	-4.2424	56.1060	99.9903	
   419	-6.1770	 1.3013	-4.8757	-6.4135	 1.5827	-4.8307	-6.3371	 1.8632	-4.4739	56.2298	99.9902	
   420	-6.1207	 1.2508	-4.8698	-6.3638	 1.5521	-4.8116	-6.2798	 1.8885	-4.3913	56.0249	99.9890	
   421	-5.8096	 1.4565	-4.3530	-6.0577	 1.8018	-4.2558	-5.9864	 2.1265	-3.8600	55.8932	99.9902	
   422	-5.3666	 1.7434	-3.6232	-5.6281	 2.0665	-3.5615	-5.5849	 2.4002	-3.1847	55.8958	99.9899	
   423	-4.9809	 1.9525	-3.0283	-5.2529	 2.2854	-2.9675	-5.1867	 2.6183	-2.5685	56.0073	99.9892	
   424	-4.7725	 2.0666	-2.7058	-5.0725	 2.3843	-2.6881	-5.0424	 2.6982	-2.3442	56.0001	99.9896	
   425	-4.7259	 2.0953	-2.6306	-5.0591	 2.3926	-2.6664	-5.0759	 2.6987	-2.3772	55.8725	99.9900	
   426	-4.7104	 2.1048	-2.6056	-5.0508	 2.4222	-2.6285	-5.0533	 2.7021	-2.3512	55.9217	99.9903	
   427	-4.6862	 2.1339	-2.5523	-5.0022	 2.4766	-2.5255	-4.9773	 2.7606	-2.2166	55.9584	99.9904	
   428	-4.5525	 2.2446	-2.3079	-4.8521	 2.6058	-2.2462	-4.8258	 2.8665	-1.9593	56.0327	99.9913	
   429	-4.1871	 2.4837	-1.7034	-4.4584	 2.8115	-1.6468	-4.4767	 3.0108	-1.4659	56.4150	99.9930	
   430	-3.9602	 2.5383	-1.4219	-4.2938	 2.8640	-1.4297	-4.3460	 3.0500	-1.2960	56.3073	99.9928	
   431	-3.9118	 2.5965	-1.3153	-4.2728	 2.8891	-1.3836	-4.4225	 3.0771	-1.3454	56.0272	99.9939	
   432	-3.8983	 2.6899	-1.2084	-4.2917	 2.9999	-1.2917	-4.4113	 3.1699	-1.2414	55.9438	99.9932	
   433	-3.8935	 2.7637	-1.1298	-4.3146	 3.0470	-1.2675	-4.4434	 3.1926	-1.2508	55.9635	99.9930	
   434	-3.9362	 2.7941	-1.1421	-4.3710	 3.0735	-1.2974	-4.4878	 3.1969	-1.2909	55.9980	99.9928	
   435	-3.9508	 2.7993	-1.1514	-4.3837	 3.0780	-1.3056	-4.4922	 3.2156	-1.2766	55.9598	99.9925	
   436	-3.9517	 2.7846	-1.1672	-4.3912	 3.0611	-1.3300	-4.5058	 3.1748	-1.3310	56.0362	99.9928	
   437	-3.9828	 2.7655	-1.2173	-4.4263	 3.0149	-1.4113	-4.6133	 3.1502	-1.4632	55.8129	99.9936	
   438	-3.9992	 2.7412	-1.2581	-4.4784	 3.0073	-1.4710	-4.6539	 3.1247	-1.5293	55.7521	99.9932	
   439	-4.0612	 2.7030	-1.3583	-4.5523	 2.9618	-1.5904	-4.7519	 3.0739	-1.6780	55.6758	99.9935	
   440	-4.1465	 2.6505	-1.4961	-4.6210	 2.8950	-1.7259	-4.8402	 2.9969	-1.8433	55.7449	99.9940	
   441	-4.2037	 2.5728	-1.6309	-4.6763	 2.8365	-1.8397	-4.9054	 2.9345	-1.9709	55.6874	99.9943	
   442	-4.2608	 2.4950	-1.7658	-4.7265	 2.7566	-1.9698	-4.9487	 2.8644	-2.0843	55.7297	99.9942	
   443	-4.2792	 2.4412	-1.8380	-4.7297	 2.7057	-2.0239	-4.9418	 2.7936	-2.1481	55.9142	99.9944	
   444	-4.2510	 2.4160	-1.8350	-4.6792	 2.6878	-1.9912	-4.8749	 2.7928	-2.0821	55.9863	99.9943	
   445	-4.1900	 2.4394	-1.7506	-4.6085	 2.6824	-1.9260	-4.8421	 2.7812	-2.0609	56.0636	99.9949	
   446	-4.2055	 2.4299	-1.7756	-4.6413	 2.6744	-1.9667	-4.8769	 2.7593	-2.1176	56.0488	99.9948	
   447	-4.2132	 2.4251	-1.7881	-4.6480	 2.6703	-1.9776	-4.8827	 2.7557	-2.1270	56.0488	99.9948	
   448	-4.2210	 2.4203	-1.8007	-4.6681	 2.6579	-2.0101	-4.8943	 2.7484	-2.1459	56.0451	99.9945	
   449	-4.2365	 2.4108	-1.8257	-4.6875	 2.6582	-2.0292	-4.9162	 2.7561	-2.1600	55.9528	99.9945	
   450	-4.2287	 2.4156	-1.8132	-4.6496	 2.6448	-2.0047	-4.8834	 2.7445	-2.1388	56.0987	99.9948	
   451	-4.1705	 2.3947	-1.7759	-4.5797	 2.6266	-1.9530	-4.8127	 2.7139	-2.0988	56.2443	99.9950	
   452	-4.1424	 2.3695	-1.7729	-4.5620	 2.6008	-1.9610	-4.7966	 2.7025	-2.0941	56.1982	99.9948	
   453	-4.1346	 2.3742	-1.7604	-4.5300	 2.5961	-1.9338	-4.7748	 2.6948	-2.0800	56.2940	99.9952	
   454	-4.1346	 2.3742	-1.7604	-4.5560	 2.5923	-1.9637	-4.8147	 2.6804	-2.1343	56.2262	99.9952	
   455	-4.1724	 2.3651	-1.8073	-4.6283	 2.5722	-2.0560	-4.9120	 2.6408	-2.2712	56.1397	99.9952	
   456	-4.2161	 2.3808	-1.8353	-4.7116	 2.5821	-2.1293	-5.0072	 2.6346	-2.3726	56.0133	99.9950	
   457	-4.2336	 2.4551	-1.7786	-4.7471	 2.6337	-2.1133	-5.0444	 2.6648	-2.3796	56.0412	99.9948	
   458	-4.1862	 2.4985	-1.6877	-4.7068	 2.6585	-2.0482	-5.0103	 2.6755	-2.3348	56.1270	99.9948	
   459	-4.1502	 2.4781	-1.6722	-4.6563	 2.6407	-2.0155	-4.9601	 2.6749	-2.2853	56.1419	99.9949	
   460	-4.1211	 2.4676	-1.6535	-4.6437	 2.6362	-2.0073	-4.9441	 2.6635	-2.2806	56.1382	99.9947	
   461	-4.1686	 2.4242	-1.7444	-4.6721	 2.5942	-2.0778	-4.9795	 2.6305	-2.3491	56.1382	99.9950	
   462	-4.1773	 2.4047	-1.7727	-4.6855	 2.5859	-2.0995	-4.9737	 2.6341	-2.3396	56.1027	99.9947	
   463	-4.1783	 2.3899	-1.7884	-4.6670	 2.5729	-2.0940	-4.9519	 2.6264	-2.3255	56.1603	99.9948	
   464	-4.2044	 2.3313	-1.8731	-4.7148	 2.5312	-2.1835	-4.9996	 2.5749	-2.4247	56.0990	99.9947	
   465	-4.2277	 2.3170	-1.9107	-4.7029	 2.5140	-2.1888	-4.9771	 2.5784	-2.3987	56.1677	99.9948	
   466	-4.1821	 2.3308	-1.8513	-4.6441	 2.5258	-2.1182	-4.9037	 2.5923	-2.3114	56.2788	99.9947	
   467	-4.1365	 2.3447	-1.7918	-4.5853	 2.5375	-2.0477	-4.8522	 2.6140	-2.2383	56.2897	99.9949	
   468	-4.1297	 2.3347	-1.7950	-4.5667	 2.5245	-2.0422	-4.8143	 2.5949	-2.2194	56.4394	99.9948	
   469	-4.1385	 2.3152	-1.8233	-4.5742	 2.5076	-2.0666	-4.8259	 2.5876	-2.2383	56.3931	99.9948	
   470	-4.1462	 2.3104	-1.8358	-4.5675	 2.5117	-2.0557	-4.8136	 2.6060	-2.2076	56.3612	99.9949	
   471	-4.1462	 2.3104	-1.8358	-4.5608	 2.5159	-2.0449	-4.7693	 2.6017	-2.1675	56.5174	99.9945	
   472	-4.1462	 2.3104	-1.8358	-4.5667	 2.5245	-2.0422	-4.7621	 2.6277	-2.1344	56.4358	99.9941	
   473	-4.1326	 2.2904	-1.8422	-4.5162	 2.5066	-2.0095	-4.6952	 2.6268	-2.0684	56.5560	99.9942	
   474	-4.0822	 2.2648	-1.8174	-4.4077	 2.4878	-1.9198	-4.5505	 2.6212	-1.9293	56.8332	99.9943	
   475	-4.0016	 2.2435	-1.7582	-4.3110	 2.4861	-1.8247	-4.4167	 2.6195	-1.7972	57.0034	99.9940	
   476	-3.9657	 2.2230	-1.7427	-4.2478	 2.4638	-1.7839	-4.3440	 2.6223	-1.7217	57.0719	99.9939	
   477	-3.9270	 2.2469	-1.6801	-4.1732	 2.5220	-1.6510	-4.1887	 2.6984	-1.4903	57.2268	99.9930	
   478	-3.8116	 2.3037	-1.5079	-4.0085	 2.5745	-1.4339	-4.0065	 2.7593	-1.2472	57.4476	99.9933	
   479	-3.7602	 2.2928	-1.4674	-3.9505	 2.5735	-1.3769	-3.9267	 2.7880	-1.1387	57.4274	99.9927	
   480	-3.7534	 2.2828	-1.4706	-3.9320	 2.5605	-1.3714	-3.8888	 2.7689	-1.1198	57.5708	99.9925	
   481	-3.7854	 2.2490	-1.5364	-3.9343	 2.5223	-1.4120	-3.8689	 2.7277	-1.1412	57.7616	99.9925	
   482	-3.7436	 2.2038	-1.5398	-3.8913	 2.4875	-1.4037	-3.8099	 2.6898	-1.1201	57.8598	99.9923	
   483	-3.6690	 2.2072	-1.4617	-3.7946	 2.4859	-1.3086	-3.7372	 2.6926	-1.0446	57.9102	99.9930	
   484	-3.6263	 2.1768	-1.4494	-3.7785	 2.4347	-1.3437	-3.7528	 2.6184	-1.1344	57.9707	99.9933	
   485	-3.7048	 2.1143	-1.5904	-3.8859	 2.3685	-1.5173	-3.8753	 2.5307	-1.3446	57.9389	99.9934	
   486	-3.7445	 2.0757	-1.6688	-3.9471	 2.3185	-1.6285	-3.9674	 2.4835	-1.4839	57.8224	99.9935	
   487	-3.7590	 2.0809	-1.6781	-3.9404	 2.3227	-1.6176	-3.9616	 2.4872	-1.4744	57.8734	99.9939	
   488	-3.7445	 2.0757	-1.6688	-3.9471	 2.3185	-1.6285	-3.9520	 2.4610	-1.4910	57.9577	99.9935	
   489	-3.7609	 2.0514	-1.7096	-3.9293	 2.2927	-1.6365	-3.9244	 2.4570	-1.4674	58.0202	99.9936	
   490	-3.6795	 2.0448	-1.6347	-3.8453	 2.2956	-1.5496	-3.8298	 2.4520	-1.3778	58.1216	99.9936	
   491	-3.6048	 2.0482	-1.5566	-3.7620	 2.2857	-1.4762	-3.7578	 2.4436	-1.3141	58.2143	99.9937	
   492	-3.6058	 2.0335	-1.5723	-3.7568	 2.2643	-1.4924	-3.7424	 2.4211	-1.3213	58.3069	99.9936	
   493	-3.5767	 2.0230	-1.5536	-3.7257	 2.2468	-1.4788	-3.7212	 2.4023	-1.3190	58.3491	99.9937	
   494	-3.5931	 1.9987	-1.5944	-3.7466	 2.2217	-1.5248	-3.7444	 2.3877	-1.3568	58.3014	99.9936	
   495	-3.6164	 1.9844	-1.6320	-3.7861	 2.2096	-1.5764	-3.7908	 2.3585	-1.4323	58.2875	99.9937	
   496	-3.6396	 1.9701	-1.6695	-3.8524	 2.1810	-1.6713	-3.8785	 2.2927	-1.5858	58.2963	99.9937	
   497	-3.6697	 1.9658	-1.7039	-3.8339	 2.1679	-1.6659	-3.8567	 2.2850	-1.5717	58.4458	99.9942	
   498	-3.5495	 1.9831	-1.5664	-3.7431	 2.1749	-1.5681	-3.7898	 2.2841	-1.5056	58.4349	99.9942	
   499	-3.4816	 1.9965	-1.4851	-3.6783	 2.1780	-1.5002	-3.7679	 2.2764	-1.4915	58.4211	99.9949	
   500	-3.4428	 2.0204	-1.4224	-3.6835	 2.1994	-1.4840	-3.7730	 2.2839	-1.4891	58.3619	99.9944	
   501	-3.4496	 2.0304	-1.4193	-3.7170	 2.1787	-1.5382	-3.8304	 2.2586	-1.5717	58.3368	99.9943	
   502	-3.4884	 2.0065	-1.4819	-3.7573	 2.1539	-1.6033	-3.8819	 2.2370	-1.6449	58.2828	99.9944	
   503	-3.5029	 2.0117	-1.4912	-3.7766	 2.1542	-1.6223	-3.8935	 2.2297	-1.6638	58.3256	99.9943	
   504	-3.5107	 2.0069	-1.5037	-3.7818	 2.1755	-1.6061	-3.8457	 2.2811	-1.5646	58.2655	99.9933	
   505	-3.4128	 2.0247	-1.3881	-3.6515	 2.1946	-1.4568	-3.7113	 2.2906	-1.4207	58.4664	99.9938	
   506	-3.3555	 1.9891	-1.3664	-3.5958	 2.1554	-1.4404	-3.6580	 2.2490	-1.4090	58.5571	99.9938	
   507	-3.3264	 1.9786	-1.3478	-3.5765	 2.1551	-1.4213	-3.6413	 2.2487	-1.3925	58.5118	99.9938	
   508	-3.3196	 1.9686	-1.3510	-3.5781	 2.1296	-1.4484	-3.6593	 2.2267	-1.4327	58.5009	99.9938	
   509	-3.3342	 1.9738	-1.3603	-3.5974	 2.1299	-1.4674	-3.6819	 2.2232	-1.4586	58.4954	99.9938	
   510	-3.3497	 1.9643	-1.3854	-3.6302	 2.1220	-1.5081	-3.7211	 2.2200	-1.5011	58.3962	99.9936	
   511	-3.3720	 1.9647	-1.4072	-3.6630	 2.1140	-1.5488	-3.7668	 2.2020	-1.5648	58.3824	99.9937	
   512	-3.4408	 1.9365	-1.5042	-3.7368	 2.0685	-1.6682	-3.8480	 2.1510	-1.6971	58.4113	99.9937	
   513	-3.4582	 1.8975	-1.5607	-3.7258	 2.0386	-1.6871	-3.8101	 2.1319	-1.6782	58.5218	99.9936	
   514	-3.4155	 1.8670	-1.5485	-3.6634	 2.0036	-1.6598	-3.7343	 2.0937	-1.6406	58.7146	99.9936	
   515	-3.4252	 1.8327	-1.5924	-3.6532	 1.9609	-1.6922	-3.7364	 2.0603	-1.6761	58.7601	99.9940	
   516	-3.4503	 1.7889	-1.6615	-3.6749	 1.9230	-1.7518	-3.7384	 2.0268	-1.7115	58.8108	99.9937	
   517	-3.4833	 1.7403	-1.7430	-3.7034	 1.8810	-1.8222	-3.7629	 1.9900	-1.7730	58.8108	99.9937	
   518	-3.5220	 1.7164	-1.8056	-3.7117	 1.8514	-1.8601	-3.7636	 1.9788	-1.7848	58.8667	99.9937	
   519	-3.5249	 1.6721	-1.8528	-3.7200	 1.8218	-1.8980	-3.7475	 1.9674	-1.7801	58.8317	99.9931	
   520	-3.5113	 1.6521	-1.8592	-3.6762	 1.7998	-1.8762	-3.6929	 1.9481	-1.7448	58.9804	99.9932	
   521	-3.4764	 1.6169	-1.8594	-3.6205	 1.7607	-1.8598	-3.6280	 1.9138	-1.7142	59.1261	99.9933	
   522	-3.4269	 1.5765	-1.8504	-3.5641	 1.7342	-1.8298	-3.5574	 1.8832	-1.6742	59.2263	99.9933	
   523	-3.4210	 1.5517	-1.8693	-3.5404	 1.6998	-1.8405	-3.5362	 1.8643	-1.6719	59.2763	99.9933	
   524	-3.4229	 1.5222	-1.9007	-3.5495	 1.6575	-1.8919	-3.5447	 1.8161	-1.7286	59.3593	99.9931	
   525	-3.4171	 1.4975	-1.9196	-3.5570	 1.6406	-1.9163	-3.5628	 1.7940	-1.7688	59.3069	99.9933	
   526	-3.4336	 1.4731	-1.9604	-3.5906	 1.6200	-1.9706	-3.5860	 1.7794	-1.8066	59.2593	99.9927	
   527	-3.4423	 1.4536	-1.9887	-3.5914	 1.6072	-1.9841	-3.5802	 1.7830	-1.7971	59.2214	99.9926	
   528	-3.4209	 1.4384	-1.9825	-3.5401	 1.6021	-1.9379	-3.5023	 1.7783	-1.7240	59.3760	99.9926	
   529	-3.3705	 1.4127	-1.9577	-3.4836	 1.5757	-1.9079	-3.4368	 1.7552	-1.6816	59.4732	99.9924	
   530	-3.3433	 1.3728	-1.9705	-3.4474	 1.5368	-1.9104	-3.4054	 1.7213	-1.6841	59.5205	99.9926	
   531	-3.3520	 1.3532	-1.9987	-3.4489	 1.5113	-1.9375	-3.3893	 1.7099	-1.6794	59.5724	99.9920	
   532	-3.2909	 1.3767	-1.9142	-3.3826	 1.5400	-1.8426	-3.3101	 1.7275	-1.5826	59.6713	99.9921	
   533	-3.2977	 1.3866	-1.9111	-3.3751	 1.5568	-1.8182	-3.2624	 1.7789	-1.4834	59.6492	99.9909	
   534	-3.3306	 1.3380	-1.9926	-3.4774	 1.4693	-2.0080	-3.4036	 1.6580	-1.7456	59.6463	99.9906	
   535	-3.6012	 1.2991	-2.3021	-3.6993	 1.4306	-2.2686	-3.5562	 1.6265	-1.9296	59.7948	99.9897	
   536	-3.6293	 1.3243	-2.3050	-3.7186	 1.4309	-2.2876	-3.5555	 1.6377	-1.9178	59.8891	99.9887	
   537	-3.4800	 1.3311	-2.1488	-3.5942	 1.4586	-2.1356	-3.3907	 1.6876	-1.7030	59.8662	99.9868	
   538	-3.1909	 1.3106	-1.8804	-3.3503	 1.4374	-1.9128	-3.2016	 1.6777	-1.5238	59.7700	99.9869	
   539	-3.2539	 1.2576	-1.9963	-3.4510	 1.3754	-2.0755	-3.3445	 1.6201	-1.7245	59.5608	99.9870	
   540	-3.4362	 1.2021	-2.2341	-3.6409	 1.3319	-2.3089	-3.5196	 1.5851	-1.9345	59.4163	99.9865	
   541	-3.5952	 1.1610	-2.4342	-3.7921	 1.2877	-2.5043	-3.6626	 1.5275	-2.1351	59.4496	99.9868	
   542	-3.7193	 1.0846	-2.6347	-3.9003	 1.2088	-2.6914	-3.7574	 1.4357	-2.3217	59.5781	99.9871	
   543	-3.6900	 0.9608	-2.7293	-3.9201	 1.0987	-2.8213	-3.8085	 1.3285	-2.4800	59.4187	99.9871	
   544	-3.7907	 0.7854	-3.0054	-4.0288	 0.9093	-3.1194	-3.9415	 1.1591	-2.7824	59.3947	99.9868	
   545	-3.7879	 0.8297	-2.9582	-3.9083	 1.0815	-2.8267	-3.6867	 1.4050	-2.2817	59.2845	99.9863	
   546	-3.5804	 0.9290	-2.6514	-3.7670	 1.0706	-2.6963	-3.6614	 1.2708	-2.3905	59.7476	99.9890	
   547	-3.8886	 0.6543	-3.2343	-4.1015	 0.7788	-3.3225	-4.0185	 0.9927	-3.0258	59.6541	99.9884	
   548	-4.2629	 0.6223	-3.6405	-4.4193	 0.7544	-3.6647	-4.2295	 1.0103	-3.2191	59.6817	99.9858	
   549	-4.3211	 0.6432	-3.6779	-4.4856	 0.7258	-3.7597	-4.3383	 0.9634	-3.3749	59.7431	99.9863	
   550	-4.3958	 0.6398	-3.7560	-4.5823	 0.7275	-3.8547	-4.4117	 0.9495	-3.4622	59.7362	99.9856	
   551	-4.4336	 0.6307	-3.8029	-4.5973	 0.6937	-3.9035	-4.4369	 0.9014	-3.5355	59.9124	99.9864	
   552	-4.5062	 0.5434	-3.9628	-4.6475	 0.6138	-4.0336	-4.4628	 0.8423	-3.6206	59.9670	99.9857	
   553	-4.5100	 0.4843	-4.0257	-4.6037	 0.5919	-4.0117	-4.3669	 0.8596	-3.5073	60.0042	99.9850	
   554	-4.3675	 0.5012	-3.8663	-4.4525	 0.6360	-3.8163	-4.2124	 0.9246	-3.2878	59.9354	99.9851	
   555	-4.2075	 0.5572	-3.6504	-4.3064	 0.7015	-3.6047	-4.0854	 0.9936	-3.0918	59.8516	99.9854	
   556	-4.1930	 0.5519	-3.6410	-4.3391	 0.6936	-3.6454	-4.1434	 0.9572	-3.1863	59.7817	99.9858	
   557	-4.3325	 0.4660	-3.8665	-4.5086	 0.5648	-3.9437	-4.3529	 0.8148	-3.5381	59.7842	99.9857	
   558	-4.5079	 0.2872	-4.2207	-4.6693	 0.3678	-4.3015	-4.4692	 0.6452	-3.8240	59.9648	99.9834	
   559	-4.4583	 0.1334	-4.3249	-4.6201	 0.2267	-4.3932	-4.3923	 0.5326	-3.8596	60.0671	99.9817	
   560	-4.3515	 0.0573	-4.2942	-4.5155	 0.1442	-4.3712	-4.2953	 0.4756	-3.8197	60.1170	99.9807	
   561	-4.2788	 0.0312	-4.2475	-4.4338	 0.1089	-4.3248	-4.2195	 0.4374	-3.7821	60.2560	99.9810	
   562	-4.2729	 0.0065	-4.2665	-4.4607	 0.0923	-4.3682	-4.2325	 0.4078	-3.8246	60.2497	99.9803	
   563	-4.3175	 0.0074	-4.3102	-4.4867	 0.0885	-4.3981	-4.2826	 0.4085	-3.8741	60.1998	99.9814	
   564	-4.3544	 0.0130	-4.3414	-4.5187	 0.0933	-4.4253	-4.2994	 0.4087	-3.8906	60.2476	99.9811	
   565	-4.3690	 0.0183	-4.3507	-4.5372	 0.1064	-4.4308	-4.3103	 0.4126	-3.8977	60.2476	99.9813	
   566	-4.3370	 0.0521	-4.2849	-4.4811	 0.1776	-4.3034	-4.2155	 0.5043	-3.7111	60.1859	99.9810	
   567	-4.0889	 0.2049	-3.8840	-4.1688	 0.3211	-3.8476	-3.9275	 0.6531	-3.2744	60.3530	99.9831	
   568	-3.7982	 0.4405	-3.3576	-3.8939	 0.5884	-3.3055	-3.6624	 0.8840	-2.7784	60.2832	99.9849	
   569	-3.6141	 0.6389	-2.9752	-3.7643	 0.8029	-2.9614	-3.5885	 1.0913	-2.4972	59.8715	99.9859	
   570	-3.5882	 0.9243	-2.6639	-3.7393	 1.0999	-2.6394	-3.5641	 1.3105	-2.2536	59.8737	99.9882	
   571	-3.5941	 1.0624	-2.5318	-3.7211	 1.1845	-2.5365	-3.5802	 1.3218	-2.2583	60.2153	99.9903	
   572	-3.5476	 1.0910	-2.4566	-3.6958	 1.1756	-2.5201	-3.6299	 1.2369	-2.3930	60.4030	99.9923	
   573	-3.4701	 1.1387	-2.3313	-3.5320	 1.2153	-2.3166	-3.4446	 1.2569	-2.1877	60.8389	99.9934	
   574	-3.3382	 1.1065	-2.2316	-3.5174	 1.1386	-2.3787	-3.5568	 1.1542	-2.4027	60.5494	99.9939	
   575	-3.1424	 1.2554	-1.8870	-3.2691	 1.2916	-1.9773	-3.2818	 1.2734	-2.0084	60.9001	99.9944	
   576	-3.0764	 1.2393	-1.8371	-3.2805	 1.2111	-2.0694	-3.3329	 1.1662	-2.1668	61.0004	99.9938	
   577	-3.2217	 1.0648	-2.1570	-3.4658	 1.0358	-2.4299	-3.5393	 0.9829	-2.5564	60.9247	99.9938	
   578	-3.3148	 1.0075	-2.3073	-3.5337	 0.9817	-2.5519	-3.5935	 0.9166	-2.6769	61.0633	99.9940	
   579	-3.4272	 0.8816	-2.5455	-3.6905	 0.8483	-2.8420	-3.7863	 0.7740	-3.0122	60.9392	99.9941	
   580	-3.5958	 0.8061	-2.7897	-3.8038	 0.7908	-3.0129	-3.8494	 0.7451	-3.1043	61.0042	99.9939	
   581	-3.6511	 0.7580	-2.8931	-3.8567	 0.7704	-3.0862	-3.8719	 0.7417	-3.1303	60.9210	99.9934	
   582	-3.6860	 0.7931	-2.8929	-3.8444	 0.8637	-2.9806	-3.7717	 0.9226	-2.8491	60.6528	99.9919	
   583	-3.5146	 1.0263	-2.4883	-3.5680	 1.1564	-2.4114	-3.4002	 1.2526	-2.1477	60.7335	99.9917	
   584	-3.2529	 1.1590	-2.0938	-3.3891	 1.2299	-2.1591	-3.3217	 1.2590	-2.0627	60.7823	99.9927	
   585	-3.2712	 1.1052	-2.1660	-3.4637	 1.1717	-2.2920	-3.4190	 1.2193	-2.1996	60.5355	99.9920	
   586	-3.3129	 1.0370	-2.2758	-3.5198	 1.1004	-2.4193	-3.4944	 1.1720	-2.3224	60.3887	99.9918	
   587	-3.3390	 0.9784	-2.3606	-3.5222	 1.0622	-2.4599	-3.4951	 1.1608	-2.3342	60.3078	99.9920	
   588	-3.2963	 0.9480	-2.3483	-3.4784	 1.0402	-2.4381	-3.4462	 1.1379	-2.3084	60.3574	99.9920	
   589	-3.2973	 0.9332	-2.3640	-3.4792	 1.0275	-2.4516	-3.4500	 1.1677	-2.2823	60.1817	99.9913	
   590	-3.3011	 0.8742	-2.4269	-3.5009	 0.9896	-2.5112	-3.4295	 1.1377	-2.2919	60.1902	99.9902	
   591	-3.3495	 0.8160	-2.5335	-3.5420	 0.9521	-2.5898	-3.4309	 1.1154	-2.3155	60.2028	99.9893	
   592	-3.3902	 0.7626	-2.6276	-3.5780	 0.8932	-2.6847	-3.4663	 1.0823	-2.3840	60.1575	99.9887	
   593	-3.4600	 0.7196	-2.7403	-3.6333	 0.8346	-2.7985	-3.4915	 1.0343	-2.4572	60.2975	99.9877	
   594	-3.4502	 0.6406	-2.8096	-3.6001	 0.7449	-2.8552	-3.4352	 0.9518	-2.4834	60.5317	99.9871	
   595	-3.3327	 0.5002	-2.8325	-3.4617	 0.5853	-2.8763	-3.2606	 0.7933	-2.4673	60.9947	99.9860	
   596	-3.2181	 0.3156	-2.9025	-3.3154	 0.3449	-2.9704	-3.1243	 0.5572	-2.5670	61.5331	99.9856	
   597	-3.2519	 0.1389	-3.1130	-3.3214	 0.1453	-3.1760	-3.1074	 0.3748	-2.7327	61.8509	99.9845	
   598	-3.3497	 0.0078	-3.3419	-3.4091	-0.0189	-3.4279	-3.1793	 0.2009	-2.9784	62.1589	99.9837	
   599	-3.5978	-0.1450	-3.7428	-3.6456	-0.1891	-3.8347	-3.3587	 0.0023	-3.3564	62.5137	99.9826	
   600	-3.7820	-0.2300	-4.0120	-3.8127	-0.2798	-4.0924	-3.4876	-0.1001	-3.5878	62.6929	99.9821	
   601	-3.9884	-0.4280	-4.4163	-4.1120	-0.5254	-4.6373	-3.8120	-0.3898	-4.2018	62.7922	99.9806	
   602	-4.5564	-0.6926	-5.2490	-4.6924	-0.7238	-5.4161	-4.4499	-0.5117	-4.9616	61.8442	99.9817	
   603	-5.1113	-0.5238	-5.6351	-5.1139	-0.4447	-5.5585	-4.8389	-0.2092	-5.0481	61.1823	99.9865	
   604	-5.0930	-0.3566	-5.4496	-4.9748	-0.2856	-5.2604	-4.6745	-0.0737	-4.7482	61.5806	99.9890	
   605	-4.6868	-0.2908	-4.9776	-4.5066	-0.2298	-4.7363	-4.1789	 0.0018	-4.1772	62.0273	99.9887	
   606	-4.2058	-0.2216	-4.4274	-4.1134	-0.1345	-4.2478	-3.7984	 0.1121	-3.6863	61.8569	99.9871	
   607	-3.9295	-0.0940	-4.0235	-3.8580	-0.0751	-3.9329	-3.5981	 0.1951	-3.4030	61.8990	99.9858	
   608	-3.6174	 0.0131	-3.6043	-3.5528	-0.0462	-3.5989	-3.2793	 0.1166	-3.1626	62.7987	99.9865	
   609	-3.6057	-0.0364	-3.6421	-3.6981	-0.0990	-3.7970	-3.4615	 0.0557	-3.4057	62.3591	99.9839	
   610	-3.7764	-0.0281	-3.8044	-3.8252	-0.0671	-3.8922	-3.5417	 0.1126	-3.4292	62.2814	99.9833	
   611	-3.7542	 0.0848	-3.6693	-3.7904	 0.0767	-3.7135	-3.5214	 0.2648	-3.2566	62.0173	99.9847	
   612	-3.7543	 0.1982	-3.5561	-3.7520	 0.1738	-3.5781	-3.5115	 0.3353	-3.1762	62.1080	99.9870	
   613	-3.9723	 0.0498	-3.9226	-4.0399	 0.0087	-4.0311	-3.8691	 0.1428	-3.7263	61.8821	99.9879	
   614	-4.6714	-0.1679	-4.8393	-4.7987	-0.1526	-4.9512	-4.5943	 0.0517	-4.5426	60.9783	99.9849	
   615	-4.8517	-0.1939	-5.0456	-4.7845	-0.1316	-4.9160	-4.4496	 0.0462	-4.4035	61.7253	99.9875	
   616	-4.6450	-0.3360	-4.9810	-4.5904	-0.3304	-4.9206	-4.3273	-0.1451	-4.4724	61.9826	99.9878	
   617	-4.3406	-0.2337	-4.5742	-4.1604	-0.1634	-4.3237	-3.7612	 0.0819	-3.6793	62.3277	99.9863	
   618	-3.9411	-0.1579	-4.0990	-3.9006	-0.1381	-4.0386	-3.6383	 0.0841	-3.5543	62.0669	99.9865	
   619	-4.0022	-0.1813	-4.1835	-3.9587	-0.1371	-4.0957	-3.6595	 0.1029	-3.5566	61.9850	99.9855	
   620	-3.8937	-0.0011	-3.8948	-3.7359	 0.1226	-3.6132	-3.3273	 0.4297	-2.8976	61.9167	99.9847	
   621	-3.1862	 0.4628	-2.7234	-3.0472	 0.6080	-2.4390	-2.6442	 0.8374	-1.8068	62.1258	99.9870	
   622	-2.6308	 0.7622	-1.8686	-2.5576	 0.7995	-1.7580	-2.2999	 0.9037	-1.3962	62.5847	99.9902	
   623	-2.9136	 0.3046	-2.6090	-3.1042	 0.3158	-2.7882	-2.9013	 0.4614	-2.4399	61.8828	99.9844	
   624	-3.4457	 0.0195	-3.4262	-3.5571	-0.0122	-3.5692	-3.3087	 0.1839	-3.1247	62.1010	99.9823	
   625	-3.8141	-0.1505	-3.9646	-3.8979	-0.1976	-4.0954	-3.6611	-0.0161	-3.6772	62.1711	99.9837	
   626	-4.0942	-0.3371	-4.4313	-4.1755	-0.4054	-4.5808	-3.9241	-0.2135	-4.1377	62.2475	99.9824	
   627	-4.1988	-0.4583	-4.6570	-4.2652	-0.4973	-4.7624	-3.9739	-0.2984	-4.2723	62.2988	99.9820	
   628	-4.2521	-0.4769	-4.7290	-4.2525	-0.5018	-4.7542	-3.8793	-0.3034	-4.1827	62.6402	99.9814	
   629	-4.0554	-0.3133	-4.3687	-4.0262	-0.2889	-4.3151	-3.6214	-0.0984	-3.7199	62.6190	99.9827	
   630	-4.0893	-0.3767	-4.4659	-4.2024	-0.4219	-4.6242	-4.0131	-0.3016	-4.3148	62.2255	99.9866	
   631	-4.9822	-0.6003	-5.5826	-4.9031	-0.5843	-5.4873	-4.5363	-0.3730	-4.9094	62.2154	99.9847	
   632	-4.8262	-0.4901	-5.3163	-4.6666	-0.4141	-5.0806	-4.3518	-0.1820	-4.5338	61.9662	99.9889	
   633	-4.5209	-0.2596	-4.7806	-4.3175	-0.1990	-4.5164	-3.9441	 0.0099	-3.9342	62.4046	99.9884	
   634	-3.8809	-0.2625	-4.1434	-3.6926	-0.2181	-3.9106	-3.3304	 0.0094	-3.3210	62.7833	99.9873	
   635	-3.4796	-0.0439	-3.5235	-3.3247	-0.1138	-3.4384	-3.1414	 0.1818	-2.9596	62.4535	99.9868	
   636	-3.0957	 0.1357	-2.9600	-3.0814	 0.0605	-3.0208	-2.8646	 0.2377	-2.6269	62.7592	99.9860	
   637	-3.0821	 0.1158	-2.9664	-3.1671	 0.0322	-3.1348	-2.9895	 0.2022	-2.7874	62.4657	99.9848	
   638	-3.3032	 0.0364	-3.2668	-3.3838	-0.0278	-3.4116	-3.1943	 0.1378	-3.0564	62.3684	99.9852	
   639	-3.5726	-0.1011	-3.6738	-3.6314	-0.1681	-3.7994	-3.4153	-0.0118	-3.4272	62.4973	99.9853	
   640	-3.8896	-0.2821	-4.1717	-3.9722	-0.3536	-4.3257	-3.7395	-0.2048	-3.9442	62.4782	99.9844	
   641	-4.0747	-0.3819	-4.4566	-4.1250	-0.4232	-4.5481	-3.8534	-0.2442	-4.0976	62.3943	99.9838	
   642	-4.0592	-0.3723	-4.4315	-4.0417	-0.4331	-4.4747	-3.7339	-0.2978	-4.0317	62.9523	99.9852	
   643	-4.3275	-0.7218	-5.0493	-4.4457	-0.8044	-5.2501	-4.2702	-0.6777	-4.9479	62.4778	99.9859	
   644	-5.0246	-0.9099	-5.9346	-4.9373	-0.9236	-5.8608	-4.6139	-0.7328	-5.3467	62.6071	99.9862	
   645	-4.9518	-0.9360	-5.8879	-4.8129	-0.8960	-5.7088	-4.5467	-0.6370	-5.1837	62.1628	99.9884	
   646	-4.8512	-0.7606	-5.6118	-4.7386	-0.7400	-5.4785	-4.4584	-0.5600	-5.0184	62.4336	99.9891	
   647	-4.5349	-0.8212	-5.3561	-4.3565	-0.8229	-5.1794	-3.9392	-0.5555	-4.4947	63.0248	99.9831	
   648	-3.7275	-0.4233	-4.1508	-3.4792	-0.4171	-3.8962	-3.1538	-0.1156	-3.2694	62.9700	99.9866	
   649	-3.0403	-0.0428	-3.0831	-2.9958	-0.1194	-3.1151	-2.7474	 0.0540	-2.6934	63.1705	99.9858	
   650	-2.9569	-0.0198	-2.9767	-3.0496	-0.1525	-3.2019	-2.8890	 0.0186	-2.8704	62.8223	99.9837	
   651	-3.2148	-0.0935	-3.3083	-3.2924	-0.2163	-3.5086	-3.0945	-0.0569	-3.1513	62.8644	99.9836	
   652	-3.4785	-0.1425	-3.6210	-3.5000	-0.2341	-3.7340	-3.2521	-0.0809	-3.3330	62.9167	99.9846	
   653	-3.7005	-0.2366	-3.9371	-3.6813	-0.3457	-4.0269	-3.3927	-0.1906	-3.5833	63.1441	99.9839	
   654	-3.8439	-0.3816	-4.2255	-3.7934	-0.4883	-4.2816	-3.5063	-0.3156	-3.8219	63.1876	99.9842	
   655	-3.8390	-0.4211	-4.2601	-3.7488	-0.4975	-4.2463	-3.4117	-0.3206	-3.7323	63.3366	99.9843	
   656	-3.8226	-0.3968	-4.2193	-3.7591	-0.4549	-4.2139	-3.4875	-0.2824	-3.7699	63.0098	99.9863	
   657	-4.0494	-0.4514	-4.5008	-3.9968	-0.5401	-4.5368	-3.7182	-0.4059	-4.1240	63.1775	99.9864	
   658	-4.3490	-0.5933	-4.9422	-4.3083	-0.6708	-4.9790	-4.0915	-0.4903	-4.5818	62.6555	99.9869	
   659	-4.4906	-0.5954	-5.0859	-4.4117	-0.6733	-5.0849	-4.1540	-0.5081	-4.6621	62.8439	99.9871	
   660	-4.4110	-0.6314	-5.0424	-4.2854	-0.7179	-5.0032	-4.0055	-0.5435	-4.5490	63.1297	99.9870	
   661	-4.1675	-0.6659	-4.8334	-4.0557	-0.7600	-4.8156	-3.7651	-0.6284	-4.3935	63.5431	99.9874	
   662	-3.9320	-0.5917	-4.5237	-3.7560	-0.6121	-4.3681	-3.3959	-0.4286	-3.8245	63.4833	99.9869	
   663	-3.4889	-0.4182	-3.9072	-3.3193	-0.4411	-3.7603	-2.9960	-0.2738	-3.2698	63.5821	99.9881	
   664	-3.2766	-0.3584	-3.6350	-3.1649	-0.3460	-3.5108	-2.8049	-0.2503	-3.0551	63.7635	99.9883	
   665	-3.2397	-0.3641	-3.6038	-3.2664	-0.4207	-3.6870	-2.9510	-0.2670	-3.2179	63.3385	99.9830	
   666	-3.3223	-0.2589	-3.5812	-3.3027	-0.3819	-3.6845	-3.0223	-0.2475	-3.2698	63.5597	99.9843	
   667	-3.4367	-0.3010	-3.7377	-3.4413	-0.4305	-3.8717	-3.1697	-0.2865	-3.4562	63.4162	99.9835	
   668	-3.4716	-0.2658	-3.7374	-3.4491	-0.3497	-3.7987	-3.1425	-0.2050	-3.3475	63.3357	99.9843	
   669	-3.4504	-0.1677	-3.6180	-3.4250	-0.2736	-3.6985	-3.1732	-0.1600	-3.3332	63.3280	99.9865	
   670	-3.7005	-0.2366	-3.9371	-3.6765	-0.2693	-3.9457	-3.3507	-0.1428	-3.4936	63.0627	99.9856	
   671	-3.9012	-0.3459	-4.2471	-3.9356	-0.4901	-4.4256	-3.7710	-0.4498	-4.2209	63.2389	99.9891	
   672	-4.4711	-0.6401	-5.1112	-4.4343	-0.7239	-5.1581	-4.1587	-0.5862	-4.7448	62.9750	99.9862	
   673	-4.3713	-0.5928	-4.9641	-4.2301	-0.6594	-4.8894	-3.8806	-0.5079	-4.3885	63.3697	99.9864	
   674	-3.9050	-0.4050	-4.3100	-3.7070	-0.4473	-4.1541	-3.3158	-0.3032	-3.6190	63.7138	99.9871	
   675	-3.4416	-0.2615	-3.7030	-3.2652	-0.2975	-3.5626	-2.9074	-0.1002	-3.0076	63.5019	99.9860	
   676	-2.9627	 0.0049	-2.9578	-2.7625	-0.0001	-2.7625	-2.4099	 0.1910	-2.2190	63.5227	99.9875	
   677	-2.5682	 0.2336	-2.3346	-2.4379	 0.2366	-2.2012	-2.1077	 0.3916	-1.7160	63.4366	99.9876	
   678	-2.2823	 0.3955	-1.8868	-2.1911	 0.3641	-1.8268	-1.9254	 0.4525	-1.4729	63.6065	99.9894	
   679	-2.3879	 0.2596	-2.1283	-2.3988	 0.1382	-2.2605	-2.2355	 0.2148	-2.0208	63.5284	99.9886	
   680	-2.9394	-0.0941	-3.0334	-3.0105	-0.2508	-3.2613	-2.8541	-0.1418	-2.9959	63.3175	99.9859	
   681	-3.2602	-0.2207	-3.4810	-3.2565	-0.3657	-3.6221	-3.0384	-0.2361	-3.2745	63.4608	99.9855	
   682	-3.3688	-0.2876	-3.6564	-3.4042	-0.4566	-3.8607	-3.2001	-0.3270	-3.5271	63.4031	99.9844	
   683	-3.5501	-0.3283	-3.8784	-3.5992	-0.4788	-4.0780	-3.3571	-0.3399	-3.6969	63.2649	99.9830	
   684	-3.6316	-0.3217	-3.9533	-3.7062	-0.4345	-4.1406	-3.4213	-0.2944	-3.7157	63.0850	99.9818	
   685	-3.6278	-0.2627	-3.8904	-3.6737	-0.3289	-4.0025	-3.3367	-0.1876	-3.5243	63.0553	99.9821	
   686	-3.5211	-0.2254	-3.7465	-3.5940	-0.2920	-3.8859	-3.2999	-0.1323	-3.4322	62.8246	99.9821	
   687	-3.4823	-0.2015	-3.6839	-3.5798	-0.2710	-3.8506	-3.3108	-0.1284	-3.4393	62.7721	99.9828	
   688	-3.7150	-0.3447	-4.0597	-3.8475	-0.4236	-4.2710	-3.6175	-0.3105	-3.9280	62.7003	99.9840	
   689	-4.1852	-0.4782	-4.6634	-4.2297	-0.5489	-4.7785	-4.0168	-0.4541	-4.4709	62.7355	99.9876	
   690	-4.5100	-0.5506	-5.0606	-4.4666	-0.6214	-5.0878	-4.2492	-0.5143	-4.7635	62.7828	99.9893	
   691	-4.6388	-0.7008	-5.3396	-4.5653	-0.7557	-5.3209	-4.3382	-0.6024	-4.9407	62.6942	99.9888	
   692	-4.6116	-0.7408	-5.3524	-4.4986	-0.8248	-5.3233	-4.2477	-0.6743	-4.9220	63.0681	99.9884	
   693	-4.3818	-0.7552	-5.1370	-4.2539	-0.8332	-5.0870	-3.9692	-0.6816	-4.6508	63.3564	99.9878	
   694	-4.1180	-0.7063	-4.8243	-3.9969	-0.7483	-4.7451	-3.6788	-0.5849	-4.2637	63.3716	99.9870	
   695	-3.7817	-0.5701	-4.3517	-3.7007	-0.5536	-4.2542	-3.3618	-0.4179	-3.7797	63.2932	99.9874	
   696	-3.4173	-0.2324	-3.6497	-3.3409	-0.2708	-3.6116	-3.0985	-0.1237	-3.2223	63.1142	99.9885	
   697	-3.2159	 0.0051	-3.2108	-3.1885	-0.1034	-3.2918	-2.9778	 0.0272	-2.9506	63.1533	99.9872	
   698	-3.2304	 0.0103	-3.2201	-3.2726	-0.1062	-3.3787	-3.0512	 0.0133	-3.0379	63.0532	99.9853	
   699	-3.3516	-0.0218	-3.3734	-3.3709	-0.1300	-3.5008	-3.1303	-0.0043	-3.1347	63.0553	99.9853	
   700	-3.4631	-0.0196	-3.4827	-3.4869	-0.1281	-3.6149	-3.2436	-0.0326	-3.2763	63.0945	99.9861	
   701	-3.6260	-0.1198	-3.7457	-3.7120	-0.2177	-3.9296	-3.4593	-0.0931	-3.5524	62.7639	99.9836	
   702	-3.7268	-0.1818	-3.9086	-3.8186	-0.2712	-4.0897	-3.5572	-0.1439	-3.7011	62.7146	99.9833	
   703	-3.8062	-0.2591	-4.0653	-3.9588	-0.3453	-4.3040	-3.7544	-0.2678	-4.0222	62.5959	99.9853	
   704	-4.3355	-0.4999	-4.8354	-4.4606	-0.6300	-5.0905	-4.3458	-0.5428	-4.8886	62.4167	99.9876	
   705	-4.7921	-0.6534	-5.4455	-4.7733	-0.6757	-5.4489	-4.5533	-0.4695	-5.0228	61.9977	99.9870	
   706	-4.6517	-0.4394	-5.0910	-4.5683	-0.3902	-4.9584	-4.3423	-0.2081	-4.5504	61.8911	99.9904	
   707	-4.3705	-0.3513	-4.7219	-4.2714	-0.3910	-4.6623	-4.0009	-0.2832	-4.2841	62.8565	99.9895	
   708	-3.8439	-0.3816	-4.2255	-3.6232	-0.3467	-3.9698	-3.2664	-0.1327	-3.3992	63.0969	99.9884	
   709	-3.1479	-0.0948	-3.2427	-2.9958	-0.1194	-3.1151	-2.7457	-0.0093	-2.7549	63.4931	99.9909	
   710	-3.1953	-0.1383	-3.3336	-3.0444	-0.1738	-3.2181	-2.8258	-0.1347	-2.9605	63.7525	99.9928	
   711	-3.1857	-0.1039	-3.2896	-3.2422	-0.1365	-3.3785	-3.0280	 0.0278	-3.0001	62.6069	99.9858	
   712	-3.0976	 0.1062	-2.9914	-3.1896	-0.0184	-3.2079	-3.0246	 0.0836	-2.9410	62.8610	99.9862	
   713	-3.2566	 0.0650	-3.1916	-3.3862	-0.0660	-3.4522	-3.2010	 0.0263	-3.1747	62.8050	99.9848	
   714	-3.5155	-0.0234	-3.5389	-3.6314	-0.1681	-3.7994	-3.4361	-0.0785	-3.5146	62.8416	99.9846	
   715	-3.8141	-0.1505	-3.9646	-3.9346	-0.2692	-4.2038	-3.7091	-0.1642	-3.8733	62.6519	99.9838	
   716	-4.1039	-0.2581	-4.3620	-4.1976	-0.3455	-4.5430	-3.9299	-0.2172	-4.1471	62.5164	99.9832	
   717	-4.2145	-0.2411	-4.4556	-4.2726	-0.3060	-4.5785	-3.9774	-0.1719	-4.1493	62.4794	99.9837	
   718	-4.2553	-0.1811	-4.4364	-4.3065	-0.2289	-4.5353	-3.9986	-0.1531	-4.1516	62.6157	99.9857	
   719	-4.5081	-0.5211	-5.0292	-4.7330	-0.6509	-5.3838	-4.6113	-0.5059	-5.1173	61.7913	99.9831	
   720	-4.9154	-0.4883	-5.4037	-4.8565	-0.4576	-5.3140	-4.5528	-0.2761	-4.8289	61.9767	99.9874	
   721	-4.4909	-0.2553	-4.7462	-4.3546	-0.1729	-4.5274	-4.0462	 0.0744	-3.9718	61.8042	99.9882	
   722	-3.6350	 0.2007	-3.4343	-3.3083	 0.2513	-3.0569	-2.8541	 0.3194	-2.5347	63.7493	99.9914	
   723	-3.3138	-0.0127	-3.3265	-3.2374	-0.0601	-3.2974	-3.1154	 0.0587	-3.0567	62.7860	99.9921	
   724	-3.1975	 0.0589	-3.1386	-3.2176	 0.0501	-3.1674	-3.0379	 0.1395	-2.8984	62.6510	99.9901	
   725	-3.1674	 0.0633	-3.1042	-3.1746	 0.0154	-3.1591	-3.0632	 0.0915	-2.9717	62.7301	99.9916	
   726	-3.2003	 0.0146	-3.1857	-3.2417	-0.0260	-3.2676	-3.1457	 0.0182	-3.1275	62.7182	99.9921	
   727	-3.2924	-0.0279	-3.3203	-3.3231	-0.0884	-3.4113	-3.2167	-0.0478	-3.2645	62.8520	99.9918	
   728	-3.3632	-0.0856	-3.4488	-3.3717	-0.1428	-3.5143	-3.2637	-0.0881	-3.3519	62.8531	99.9920	
   729	-3.4097	-0.1143	-3.5240	-3.4187	-0.1717	-3.5903	-3.2934	-0.1175	-3.4109	62.8988	99.9916	
   730	-3.4640	-0.1477	-3.6116	-3.4791	-0.2089	-3.6879	-3.3630	-0.1613	-3.5243	62.8932	99.9918	
   731	-3.5105	-0.1763	-3.6868	-3.5253	-0.2251	-3.7503	-3.4203	-0.1865	-3.6069	62.8439	99.9924	
   732	-3.4649	-0.1624	-3.6274	-3.4858	-0.2131	-3.6988	-3.4029	-0.1756	-3.5786	62.7957	99.9927	
   733	-3.4349	-0.1581	-3.5930	-3.4672	-0.2261	-3.6933	-3.4210	-0.1977	-3.6187	62.7875	99.9932	
   734	-3.4504	-0.1677	-3.6180	-3.4799	-0.2217	-3.7014	-3.4203	-0.1865	-3.6069	62.7451	99.9931	
   735	-3.4349	-0.1581	-3.5930	-3.4656	-0.2007	-3.6662	-3.3688	-0.1649	-3.5337	62.7981	99.9924	
   736	-3.4262	-0.1386	-3.5647	-3.4246	-0.1631	-3.5876	-3.3088	-0.0950	-3.4038	62.7194	99.9922	
   737	-3.2372	 0.0203	-3.2169	-3.1880	 0.0071	-3.1808	-3.0574	 0.0952	-2.9622	62.7418	99.9925	
   738	-3.0753	 0.1058	-2.9696	-3.0336	 0.1022	-2.9313	-2.8724	 0.2006	-2.6718	62.7546	99.9916	
   739	-2.8902	 0.2056	-2.6846	-2.8271	 0.2049	-2.6221	-2.6380	 0.2943	-2.3437	62.9496	99.9915	
   740	-2.8233	 0.2042	-2.6191	-2.7758	 0.1998	-2.5759	-2.5872	 0.3048	-2.2823	62.9057	99.9908	
   741	-2.9018	 0.1417	-2.7600	-2.8595	 0.0993	-2.7602	-2.6885	 0.1983	-2.4902	63.0301	99.9906	
   742	-3.1993	-0.0840	-3.2832	-3.1842	-0.1374	-3.3215	-2.9972	-0.0172	-3.0144	62.9698	99.9891	
   743	-3.4213	-0.1781	-3.5994	-3.3445	-0.2240	-3.5683	-3.1112	-0.0566	-3.1678	62.9795	99.9881	
   744	-3.3409	-0.0861	-3.4269	-3.2153	-0.1199	-3.3351	-2.9256	 0.0600	-2.8656	63.1346	99.9874	
   745	-3.3476	-0.1894	-3.5370	-3.3224	-0.2838	-3.6061	-3.1057	-0.1497	-3.2553	63.1927	99.9872	
   746	-3.5259	-0.2992	-3.8251	-3.4693	-0.3621	-3.8312	-3.1978	-0.1969	-3.3946	63.1554	99.9862	
   747	-3.3388	-0.1699	-3.5087	-3.2252	-0.1750	-3.4001	-2.8948	 0.0150	-2.8799	63.1397	99.9863	
   748	-2.9056	 0.0827	-2.8229	-2.8232	 0.0604	-2.7627	-2.5721	 0.1856	-2.3865	63.2274	99.9891	
   749	-2.9976	-0.0732	-3.0708	-3.0259	-0.1869	-3.2126	-2.9023	-0.1077	-3.0099	63.2272	99.9896	
   750	-3.2729	-0.1860	-3.4589	-3.2987	-0.3182	-3.6168	-3.1251	-0.1941	-3.3192	63.1795	99.9867	
   751	-3.3368	-0.2537	-3.5905	-3.3986	-0.3675	-3.7660	-3.1554	-0.2346	-3.3900	63.1826	99.9837	
   752	-3.3969	-0.2624	-3.6593	-3.4432	-0.3583	-3.8014	-3.1927	-0.2044	-3.3970	63.0500	99.9837	
   753	-3.2952	-0.1855	-3.4807	-3.3090	-0.2755	-3.5844	-3.0374	-0.1283	-3.1657	63.1977	99.9842	
   754	-3.2360	-0.1917	-3.4277	-3.2517	-0.2893	-3.5409	-3.0046	-0.1398	-3.1445	63.1957	99.9847	
   755	-3.2205	-0.1821	-3.4026	-3.2241	-0.2600	-3.4840	-2.9685	-0.0957	-3.0642	63.1111	99.9847	
   756	-3.1895	-0.1630	-3.3525	-3.2233	-0.2472	-3.4704	-2.9743	-0.0993	-3.0736	63.1059	99.9845	
   757	-3.2622	-0.2503	-3.5124	-3.3398	-0.3557	-3.6955	-3.1220	-0.2350	-3.3570	63.1338	99.9848	
   758	-3.6033	-0.4603	-4.0636	-3.7117	-0.5237	-4.2353	-3.4595	-0.3720	-3.8315	62.8050	99.9830	
   759	-3.8224	-0.5101	-4.3326	-3.8756	-0.5634	-4.4389	-3.6229	-0.3997	-4.0226	62.7604	99.9844	
   760	-3.8729	-0.4845	-4.3574	-3.8874	-0.5462	-4.4335	-3.6403	-0.4106	-4.0509	62.9435	99.9862	
   761	-3.8952	-0.4840	-4.3792	-3.8606	-0.5296	-4.3901	-3.6216	-0.3774	-3.9989	62.9056	99.9875	
   762	-3.7721	-0.4224	-4.1945	-3.7346	-0.4765	-4.2111	-3.5206	-0.3675	-3.8881	63.0861	99.9892	
   763	-3.7740	-0.4520	-4.2260	-3.7496	-0.5103	-4.2598	-3.5444	-0.3932	-3.9377	63.0372	99.9889	
   764	-3.7963	-0.4515	-4.2478	-3.7631	-0.5186	-4.2815	-3.5663	-0.3855	-3.9518	62.9914	99.9888	
   765	-3.8109	-0.4463	-4.2572	-3.7690	-0.5100	-4.2788	-3.5612	-0.3930	-3.9542	63.0840	99.9891	
   766	-3.8583	-0.4897	-4.3480	-3.8184	-0.5771	-4.3954	-3.6082	-0.4333	-4.0416	63.0819	99.9878	
   767	-3.8438	-0.4949	-4.3387	-3.8385	-0.5895	-4.4279	-3.6335	-0.4813	-4.1148	63.1652	99.9880	
   768	-3.6791	-0.3651	-4.0442	-3.6237	-0.4572	-4.0808	-3.3905	-0.3394	-3.7300	63.3204	99.9881	
   769	-3.4260	-0.2519	-3.6780	-3.4440	-0.3710	-3.8149	-3.2288	-0.2485	-3.4773	63.2262	99.9860	
   770	-3.3708	-0.2037	-3.5746	-3.4014	-0.3080	-3.7092	-3.1514	-0.1677	-3.3191	63.1431	99.9844	
   771	-3.3146	-0.1408	-3.4554	-3.3117	-0.2160	-3.5276	-3.0340	-0.0725	-3.1065	63.1564	99.9849	
   772	-3.3447	-0.1451	-3.4898	-3.3863	-0.2742	-3.6605	-3.1842	-0.1561	-3.3403	63.1338	99.9857	
   773	-3.5676	-0.2540	-3.8217	-3.6307	-0.3636	-3.9942	-3.4251	-0.2646	-3.6897	63.0307	99.9862	
   774	-3.7683	-0.3634	-4.1316	-3.8775	-0.4911	-4.3686	-3.6950	-0.3913	-4.0863	62.8728	99.9854	
   775	-3.9680	-0.4579	-4.4259	-4.0446	-0.5818	-4.6262	-3.8536	-0.5231	-4.3767	63.0971	99.9873	
   776	-4.2268	-0.5464	-4.7732	-4.2490	-0.5486	-4.7975	-4.0752	-0.4050	-4.4802	62.2352	99.9894	
   777	-4.0524	-0.3823	-4.4347	-3.9158	-0.3800	-4.2957	-3.7384	-0.2792	-4.0175	62.8166	99.9931	
   778	-3.1870	 0.2213	-2.9656	-2.7789	 0.3571	-2.4217	-2.3498	 0.5398	-1.8100	63.3841	99.9924	
   779	-2.3570	 0.3920	-1.9649	-2.2996	 0.3830	-1.9166	-2.1487	 0.4517	-1.6970	63.1417	99.9923	
   780	-2.1728	 0.4771	-1.6957	-2.1678	 0.4275	-1.7402	-2.0657	 0.4394	-1.6263	63.3086	99.9928	
   781	-2.3453	 0.3425	-2.0028	-2.3715	 0.2652	-2.1062	-2.3158	 0.2716	-2.0442	63.2440	99.9931	
   782	-2.6167	 0.1755	-2.4412	-2.6274	 0.0953	-2.5320	-2.5768	 0.1076	-2.4692	63.2341	99.9934	
   783	-2.6865	 0.1325	-2.5540	-2.6760	 0.0409	-2.6350	-2.6252	 0.0450	-2.5802	63.3688	99.9937	
   784	-2.7203	 0.0691	-2.6512	-2.7329	-0.0431	-2.7759	-2.7252	-0.0393	-2.7645	63.3116	99.9940	
   785	-2.8134	 0.0118	-2.8016	-2.8387	-0.0838	-2.9224	-2.8115	-0.0828	-2.8943	63.2639	99.9936	
   786	-2.8677	-0.0216	-2.8893	-2.8924	-0.1169	-3.0092	-2.8804	-0.1154	-2.9958	63.2141	99.9940	
   787	-2.8832	-0.0311	-2.9143	-2.9185	-0.1207	-3.0391	-2.9197	-0.1186	-3.0383	63.1193	99.9941	
   788	-2.9219	-0.0550	-2.9769	-2.9647	-0.1369	-3.1015	-2.9654	-0.1366	-3.1020	63.0713	99.9941	
   789	-2.9588	-0.0493	-3.0081	-2.9832	-0.1238	-3.1070	-2.9654	-0.1366	-3.1020	63.1662	99.9943	
   790	-2.8570	 0.0275	-2.8296	-2.9421	-0.0863	-3.0283	-2.9910	-0.0991	-3.0901	62.9673	99.9942	
   791	-2.7766	 0.1195	-2.6571	-2.9247	-0.0144	-2.9390	-2.9354	-0.0105	-2.9460	62.8762	99.9919	
   792	-2.7834	 0.1295	-2.6539	-2.9642	-0.0264	-2.9906	-2.9979	-0.0283	-3.0262	62.8196	99.9916	
   793	-2.8377	 0.0961	-2.7416	-3.0298	-0.0423	-3.0720	-3.0494	-0.0500	-3.0994	62.7722	99.9915	
   794	-2.8814	 0.1117	-2.7696	-3.0483	-0.0293	-3.0775	-3.0661	-0.0498	-3.1159	62.8659	99.9921	
   795	-2.8804	 0.1265	-2.7539	-3.0601	-0.0121	-3.0721	-3.1040	-0.0307	-3.1347	62.7223	99.9924	
   796	-2.8320	 0.1847	-2.6473	-3.0123	 0.0296	-2.9826	-3.0692	-0.0088	-3.0781	62.8126	99.9928	
   797	-2.7942	 0.1938	-2.6004	-3.0064	 0.0210	-2.9853	-3.1337	-0.0601	-3.1938	62.7937	99.9941	
   798	-2.8165	 0.1942	-2.6222	-3.0459	 0.0089	-3.0369	-3.2149	-0.1111	-3.3260	62.8262	99.9949	
   799	-2.8620	 0.1804	-2.6817	-3.0929	-0.0200	-3.1128	-3.3244	-0.1692	-3.4936	62.8107	99.9959	
   800	-2.8465	 0.1899	-2.6566	-3.1047	-0.0028	-3.1075	-3.3244	-0.1692	-3.4936	62.8083	99.9956	
   801	-2.8310	 0.1995	-2.6316	-3.0846	 0.0096	-3.0749	-3.3231	-0.1469	-3.4700	62.7141	99.9959	
   802	-2.8146	 0.2238	-2.5908	-3.0376	 0.0385	-2.9990	-3.2426	-0.1070	-3.3496	62.8203	99.9957	
   803	-2.7544	 0.2324	-2.5220	-2.9334	 0.0538	-2.8795	-3.1344	-0.0712	-3.2056	62.8789	99.9960	
   804	-2.7108	 0.2168	-2.4940	-2.8888	 0.0445	-2.8442	-3.0842	-0.0719	-3.1561	62.8823	99.9959	
   805	-2.7117	 0.2020	-2.5098	-2.8762	 0.0401	-2.8360	-3.0617	-0.0684	-3.1301	62.8870	99.9959	
   806	-2.7263	 0.2072	-2.5191	-2.8754	 0.0528	-2.8225	-3.0378	-0.0427	-3.0805	62.8939	99.9957	
   807	-2.7185	 0.2120	-2.5066	-2.8552	 0.0652	-2.7899	-3.0081	-0.0133	-3.0215	62.8532	99.9957	
   808	-2.7117	 0.2020	-2.5098	-2.8418	 0.0735	-2.7682	-2.9785	 0.0160	-2.9624	62.7674	99.9954	
   809	-2.6507	 0.2254	-2.4253	-2.7486	 0.1186	-2.6299	-2.8406	 0.0812	-2.7594	62.8313	99.9951	
   810	-2.5518	 0.2579	-2.2938	-2.6361	 0.1635	-2.4725	-2.6932	 0.1202	-2.5730	62.9805	99.9948	
   811	-2.4830	 0.2861	-2.1968	-2.5563	 0.2004	-2.3559	-2.6069	 0.1637	-2.4431	62.9871	99.9948	
   812	-2.4296	 0.3048	-2.1249	-2.4900	 0.2290	-2.2609	-2.5199	 0.2184	-2.3015	62.9512	99.9945	
   813	-2.3375	 0.3473	-1.9902	-2.3893	 0.2910	-2.0982	-2.3974	 0.3061	-2.0913	62.8723	99.9940	
   814	-2.2678	 0.3903	-1.8775	-2.2961	 0.3362	-1.9598	-2.2827	 0.3567	-1.9261	62.9731	99.9939	
   815	-2.2367	 0.4094	-1.8274	-2.2625	 0.3568	-1.9056	-2.2312	 0.3783	-1.8529	63.0226	99.9936	
   816	-2.1921	 0.4085	-1.7837	-2.2171	 0.3603	-1.8567	-2.1862	 0.3852	-1.8010	63.0248	99.9936	
   817	-2.1243	 0.4219	-1.7024	-2.1449	 0.3804	-1.7644	-2.1121	 0.4103	-1.7018	63.0290	99.9936	
   818	-2.0796	 0.4210	-1.6587	-2.1003	 0.3711	-1.7291	-2.0735	 0.4024	-1.6712	63.0742	99.9936	
   819	-2.0864	 0.4310	-1.6555	-2.0936	 0.3752	-1.7182	-2.0677	 0.4060	-1.6617	63.1203	99.9938	
   820	-2.0651	 0.4158	-1.6493	-2.1003	 0.3711	-1.7291	-2.0735	 0.4024	-1.6712	63.0279	99.9934	
   821	-2.0806	 0.4062	-1.6744	-2.1204	 0.3587	-1.7616	-2.0967	 0.3878	-1.7090	63.0258	99.9934	
   822	-2.1107	 0.4019	-1.7088	-2.1339	 0.3504	-1.7833	-2.1083	 0.3805	-1.7279	63.0721	99.9936	
   823	-2.1184	 0.3971	-1.7213	-2.1406	 0.3463	-1.7942	-2.1025	 0.3841	-1.7184	63.0742	99.9933	
   824	-2.0593	 0.3910	-1.6682	-2.0758	 0.3494	-1.7263	-2.0517	 0.3946	-1.6571	63.0311	99.9936	
   825	-2.0146	 0.3901	-1.6245	-2.0312	 0.3402	-1.6909	-2.0073	 0.3903	-1.6170	63.0773	99.9934	
   826	-2.0001	 0.3849	-1.6152	-2.0379	 0.3361	-1.7018	-2.0080	 0.3792	-1.6288	63.0752	99.9931	
   827	-2.0156	 0.3754	-1.6402	-2.0514	 0.3278	-1.7235	-2.0363	 0.3721	-1.6642	63.0279	99.9934	
   828	-2.0311	 0.3658	-1.6653	-2.0589	 0.3109	-1.7479	-2.0428	 0.3573	-1.6855	63.0731	99.9934	
   829	-2.0534	 0.3663	-1.6871	-2.0782	 0.3112	-1.7669	-2.0646	 0.3650	-1.6996	63.0279	99.9934	
   830	-2.0612	 0.3615	-1.6997	-2.0916	 0.3030	-1.7886	-2.0820	 0.3541	-1.7279	63.0258	99.9934	
   831	-2.0466	 0.3563	-1.6903	-2.0597	 0.2982	-1.7614	-2.0435	 0.3462	-1.6973	63.1193	99.9936	
   832	-1.9952	 0.3454	-1.6498	-2.0277	 0.2934	-1.7342	-2.0107	 0.3346	-1.6761	63.1183	99.9934	
   833	-1.9962	 0.3306	-1.6655	-2.0226	 0.2721	-1.7504	-2.0120	 0.3123	-1.6997	63.1625	99.9936	
   834	-1.9894	 0.3206	-1.6687	-2.0427	 0.2597	-1.7830	-2.0520	 0.2979	-1.7540	63.0658	99.9936	
   835	-2.0136	 0.2915	-1.7220	-2.0771	 0.2263	-1.8507	-2.1042	 0.2651	-1.8390	63.0152	99.9937	
   836	-2.0669	 0.2729	-1.7940	-2.1308	 0.1932	-1.9375	-2.1738	 0.2214	-1.9524	63.0542	99.9940	
   837	-2.1367	 0.2299	-1.9067	-2.2299	 0.1566	-2.0732	-2.2659	 0.1742	-2.0917	63.0023	99.9937	
   838	-2.1813	 0.2308	-1.9505	-2.2500	 0.1442	-2.1057	-2.2833	 0.1633	-2.1200	63.0945	99.9938	
   839	-2.1512	 0.2352	-1.9161	-2.2105	 0.1563	-2.0542	-2.2324	 0.1738	-2.0586	63.1441	99.9939	
   840	-2.0989	 0.2390	-1.8598	-2.1651	 0.1598	-2.0053	-2.1990	 0.1734	-2.0256	63.1431	99.9940	
   841	-2.0611	 0.2481	-1.8129	-2.1130	 0.1674	-1.9456	-2.1526	 0.2025	-1.9501	63.1018	99.9940	
   842	-2.0164	 0.2472	-1.7692	-2.0803	 0.1753	-1.9048	-2.1185	 0.2132	-1.9052	63.0574	99.9939	
   843	-2.0387	 0.2477	-1.7911	-2.1055	 0.1842	-1.9212	-2.1185	 0.2132	-1.9052	63.1049	99.9936	
   844	-2.0378	 0.2625	-1.7753	-2.0854	 0.1966	-1.8886	-2.1113	 0.2392	-1.8721	63.0616	99.9939	
   845	-2.0300	 0.2672	-1.7628	-2.0846	 0.2094	-1.8751	-2.0939	 0.2501	-1.8438	63.0637	99.9936	
   846	-2.0058	 0.2963	-1.7095	-2.0561	 0.2514	-1.8047	-2.0513	 0.3091	-1.7422	62.9795	99.9932	
   847	-1.8905	 0.3532	-1.5373	-1.9235	 0.3086	-1.6147	-1.9199	 0.3595	-1.5605	63.0762	99.9936	
   848	-1.8061	 0.3909	-1.4152	-1.8378	 0.3369	-1.5008	-1.8407	 0.3770	-1.4637	63.1675	99.9938	
   849	-1.7538	 0.3948	-1.3590	-1.8244	 0.3452	-1.4791	-1.8407	 0.3770	-1.4637	63.0721	99.9936	
   850	-1.7228	 0.4139	-1.3089	-1.7841	 0.3700	-1.4140	-1.7988	 0.4248	-1.3739	62.9871	99.9934	
   851	-1.6607	 0.4521	-1.2087	-1.7296	 0.4158	-1.3137	-1.7466	 0.4577	-1.2889	62.9881	99.9936	
   852	-1.6675	 0.4620	-1.2055	-1.7497	 0.4034	-1.3462	-1.7705	 0.4319	-1.3385	63.0731	99.9934	
   853	-1.7140	 0.4334	-1.2806	-1.8034	 0.3703	-1.4330	-1.8387	 0.4105	-1.4282	62.9785	99.9934	
   854	-1.7664	 0.4295	-1.3369	-1.8623	 0.3586	-1.5036	-1.9186	 0.3818	-1.5368	62.9709	99.9939	
   855	-1.8275	 0.4061	-1.4214	-1.9093	 0.3296	-1.5795	-1.9701	 0.3601	-1.6100	62.9698	99.9940	
   856	-1.8139	 0.3861	-1.4278	-1.9176	 0.3000	-1.6174	-1.9946	 0.3232	-1.6714	62.9633	99.9940	
   857	-1.8459	 0.3523	-1.4936	-1.9646	 0.2711	-1.6934	-2.0352	 0.2977	-1.7375	62.9156	99.9937	
   858	-1.8614	 0.3427	-1.5187	-1.9780	 0.2628	-1.7151	-2.0468	 0.2904	-1.7564	62.9156	99.9937	
   859	-1.8759	 0.3479	-1.5280	-1.9890	 0.2927	-1.6962	-2.0281	 0.3237	-1.7044	62.8768	99.9934	
   860	-1.8750	 0.3627	-1.5123	-1.9622	 0.3093	-1.6528	-1.9926	 0.3567	-1.6359	62.8835	99.9934	
   861	-1.8507	 0.3918	-1.4590	-1.9420	 0.3217	-1.6202	-1.9868	 0.3603	-1.6265	62.9255	99.9935	
   862	-1.8973	 0.3631	-1.5341	-2.0218	 0.2848	-1.7369	-2.0899	 0.3170	-1.7728	62.8234	99.9935	
   863	-1.9583	 0.3397	-1.6186	-2.0672	 0.2813	-1.7858	-2.1117	 0.3247	-1.7870	62.7837	99.9934	
   864	-1.9264	 0.3736	-1.5528	-2.0076	 0.3058	-1.7017	-2.0493	 0.3425	-1.7067	62.9244	99.9937	
   865	-1.8740	 0.3775	-1.4965	-1.9748	 0.3137	-1.6609	-2.0209	 0.3496	-1.6713	62.8779	99.9935	
   866	-1.8740	 0.3775	-1.4965	-1.9815	 0.3096	-1.6718	-2.0486	 0.3537	-1.6949	62.7837	99.9937	
   867	-1.8886	 0.3827	-1.5059	-2.0001	 0.3227	-1.6773	-2.0486	 0.3537	-1.6949	62.8303	99.9936	
   868	-1.9109	 0.3831	-1.5277	-2.0261	 0.3189	-1.7071	-2.0820	 0.3541	-1.7279	62.7826	99.9935	
   869	-1.9177	 0.3931	-1.5245	-2.0194	 0.3230	-1.6963	-2.0814	 0.3653	-1.7161	62.7837	99.9937	
   870	-1.9245	 0.4031	-1.5214	-2.0447	 0.3319	-1.7126	-2.1097	 0.3582	-1.7515	62.7791	99.9937	
   871	-1.9700	 0.3892	-1.5808	-2.0841	 0.3198	-1.7642	-2.1599	 0.3588	-1.8010	62.6869	99.9938	
   872	-1.9400	 0.3936	-1.5464	-2.0656	 0.3068	-1.7587	-2.1452	 0.3252	-1.8200	62.8189	99.9938	
   873	-1.9564	 0.3693	-1.5872	-2.0798	 0.2858	-1.7939	-2.1677	 0.3217	-1.8460	62.7277	99.9938	
   874	-1.9642	 0.3645	-1.5997	-2.0916	 0.3030	-1.7886	-2.1503	 0.3327	-1.8176	62.7324	99.9935	
   875	-1.9564	 0.3693	-1.5872	-2.0782	 0.3112	-1.7669	-2.1322	 0.3548	-1.7775	62.6905	99.9934	
   876	-1.9555	 0.3840	-1.5715	-2.0648	 0.3195	-1.7452	-2.1039	 0.3618	-1.7421	62.7849	99.9932	
   877	-1.9555	 0.3840	-1.5715	-2.0640	 0.3323	-1.7316	-2.1083	 0.3805	-1.7279	62.6952	99.9934	
   878	-1.9768	 0.3992	-1.5776	-2.0699	 0.3408	-1.7290	-2.1070	 0.4028	-1.7042	62.6988	99.9932	
   879	-1.9458	 0.4183	-1.5275	-2.0356	 0.3743	-1.6612	-2.0439	 0.4317	-1.6121	62.7511	99.9929	
   880	-1.8847	 0.4417	-1.4430	-1.9700	 0.3901	-1.5798	-1.9756	 0.4532	-1.5225	62.7998	99.9927	
   881	-1.8488	 0.4213	-1.4275	-1.9515	 0.3771	-1.5743	-1.9705	 0.4457	-1.5248	62.7071	99.9927	
   882	-1.8643	 0.4118	-1.4526	-1.9582	 0.3730	-1.5851	-1.9705	 0.4457	-1.5248	62.7094	99.9927	
   883	-1.8721	 0.4070	-1.4651	-1.9783	 0.3605	-1.6177	-1.9937	 0.4311	-1.5626	62.7059	99.9925	
   884	-1.9254	 0.3883	-1.5371	-2.0186	 0.3357	-1.6828	-2.0227	 0.4129	-1.6098	62.7523	99.9923	
   885	-1.9642	 0.3645	-1.5997	-2.0581	 0.3237	-1.7343	-2.0568	 0.4021	-1.6547	62.7071	99.9923	
   886	-1.9874	 0.3502	-1.6373	-2.0908	 0.3157	-1.7750	-2.0793	 0.3987	-1.6806	62.6618	99.9919	
   887	-1.9865	 0.3649	-1.6216	-2.0640	 0.3323	-1.7316	-2.0387	 0.4242	-1.6145	62.7141	99.9919	
   888	-1.9264	 0.3736	-1.5528	-2.0052	 0.3440	-1.6611	-1.9705	 0.4457	-1.5248	62.7188	99.9915	
   889	-1.8886	 0.3827	-1.5059	-1.9657	 0.3561	-1.6095	-1.9138	 0.4598	-1.4540	62.7685	99.9911	
   890	-1.8818	 0.3727	-1.5091	-1.9598	 0.3475	-1.6122	-1.9022	 0.4671	-1.4352	62.7258	99.9906	
   891	-1.9137	 0.3388	-1.5749	-1.9941	 0.3141	-1.6800	-1.9094	 0.4412	-1.4682	62.7730	99.9898	
   892	-1.9845	 0.2811	-1.7034	-2.0688	 0.2559	-1.8128	-1.9892	 0.4124	-1.5768	62.6358	99.9891	
   893	-2.0843	 0.2338	-1.8505	-2.1560	 0.2021	-1.9539	-2.0486	 0.3537	-1.6949	62.7707	99.9886	
   894	-2.2190	 0.1084	-2.1106	-2.3255	 0.0732	-2.2521	-2.2072	 0.2218	-1.9854	62.7592	99.9876	
   895	-2.3896	 0.0034	-2.3862	-2.4487	-0.0394	-2.4880	-2.3232	 0.1489	-2.1743	62.7616	99.9872	
   896	-2.4545	-0.0791	-2.5336	-2.5190	-0.1317	-2.6506	-2.3955	 0.0606	-2.3349	62.8010	99.9868	
   897	-2.5776	-0.1407	-2.7183	-2.6339	-0.2147	-2.8485	-2.5173	-0.0159	-2.5332	62.8394	99.9865	
   898	-2.6852	-0.1928	-2.8780	-2.7532	-0.2637	-3.0167	-2.6043	-0.0706	-2.6749	62.8824	99.9855	
   899	-2.7472	-0.2310	-2.9782	-2.8136	-0.3009	-3.1144	-2.6681	-0.1107	-2.7788	62.8791	99.9858	
   900	-2.8083	-0.2544	-3.0627	-2.8799	-0.3295	-3.2093	-2.7370	-0.1433	-2.8803	62.8746	99.9858	
   901	-2.8694	-0.2778	-3.1472	-2.9395	-0.3540	-3.2934	-2.8002	-0.1722	-2.9724	62.8712	99.9861	
   902	-2.8917	-0.2774	-3.1690	-2.9589	-0.3537	-3.3125	-2.8169	-0.1720	-2.9889	62.8712	99.9861	
   903	-2.8694	-0.2778	-3.1472	-2.9202	-0.3543	-3.2744	-2.7834	-0.1724	-2.9559	62.9189	99.9866	
   904	-2.8548	-0.2830	-3.1379	-2.9143	-0.3629	-3.2771	-2.7732	-0.1874	-2.9606	62.9633	99.9864	
   905	-2.8703	-0.2926	-3.1629	-2.9411	-0.3795	-3.3205	-2.8131	-0.2018	-3.0149	62.9134	99.9863	
   906	-2.9004	-0.2969	-3.1973	-2.9739	-0.3874	-3.3612	-2.8312	-0.2239	-3.0551	63.0034	99.9861	
   907	-2.9391	-0.3208	-3.2599	-3.0142	-0.4122	-3.4263	-2.8718	-0.2494	-3.1212	63.0012	99.9861	
   908	-2.9692	-0.3251	-3.2943	-3.0469	-0.4202	-3.4670	-2.9001	-0.2565	-3.1566	63.0001	99.9858	
   909	-2.9993	-0.3294	-3.3287	-3.0730	-0.4240	-3.4969	-2.9284	-0.2636	-3.1920	62.9990	99.9861	
   910	-3.0216	-0.3290	-3.3506	-3.0797	-0.4281	-3.5077	-2.9342	-0.2672	-3.2014	63.0457	99.9863	
   911	-2.9993	-0.3294	-3.3287	-3.0477	-0.4329	-3.4805	-2.9175	-0.2674	-3.1849	63.0457	99.9868	
   912	-2.9847	-0.3347	-3.3194	-3.0477	-0.4329	-3.4805	-2.9124	-0.2749	-3.1873	63.0447	99.9866	
   913	-3.0080	-0.3490	-3.3570	-3.0620	-0.4539	-3.5158	-2.9349	-0.2783	-3.2132	62.9990	99.9864	
   914	-2.9993	-0.3294	-3.3287	-3.0604	-0.4285	-3.4887	-2.9284	-0.2636	-3.1920	62.9990	99.9865	
   915	-3.0138	-0.3242	-3.3380	-3.0738	-0.4367	-3.5104	-2.9458	-0.2745	-3.2203	63.0425	99.9864	
   916	-3.0439	-0.3286	-3.3724	-3.0990	-0.4278	-3.5267	-2.9458	-0.2745	-3.2203	63.0913	99.9864	
   917	-3.0439	-0.3286	-3.3724	-3.1058	-0.4319	-3.5376	-2.9626	-0.2743	-3.2368	63.0436	99.9863	
   918	-3.0293	-0.3338	-3.3631	-3.0923	-0.4237	-3.5159	-2.9394	-0.2597	-3.1990	63.0012	99.9861	
   919	-2.9760	-0.3151	-3.2911	-3.0201	-0.4036	-3.4236	-2.8595	-0.2310	-3.0905	63.0532	99.9861	
   920	-2.9149	-0.2917	-3.2066	-2.9656	-0.3578	-3.3233	-2.7906	-0.1984	-2.9890	63.0574	99.9864	
   921	-2.8994	-0.2822	-3.1816	-2.9589	-0.3537	-3.3125	-2.8131	-0.2018	-3.0149	63.0066	99.9872	
   922	-2.8907	-0.2626	-3.1533	-2.9454	-0.3454	-3.2908	-2.8240	-0.1979	-3.0220	63.0034	99.9879	
   923	-2.8742	-0.2383	-3.1125	-2.9438	-0.3200	-3.2637	-2.8278	-0.1681	-2.9960	62.9111	99.9876	
   924	-2.8568	-0.1992	-3.0561	-2.9296	-0.2989	-3.2285	-2.8213	-0.1534	-2.9747	62.9545	99.9875	
   925	-2.8413	-0.1897	-3.0310	-2.9221	-0.2821	-3.2041	-2.7981	-0.1388	-2.9369	62.9567	99.9871	
   926	-2.7958	-0.1758	-2.9716	-2.8633	-0.2703	-3.1335	-2.7473	-0.1283	-2.8756	63.0044	99.9876	
   927	-2.7657	-0.1715	-2.9372	-2.8499	-0.2621	-3.1118	-2.7364	-0.1321	-2.8685	63.0023	99.9877	
   928	-2.7880	-0.1710	-2.9590	-2.8700	-0.2745	-3.1444	-2.7865	-0.1315	-2.9180	62.9067	99.9880	
   929	-2.8181	-0.1754	-2.9934	-2.9154	-0.2779	-3.1932	-2.8432	-0.1456	-2.9888	62.8554	99.9883	
   930	-2.8859	-0.1888	-3.0747	-3.0011	-0.3062	-3.3072	-2.9520	-0.1926	-3.1446	62.8439	99.9888	
   931	-2.9926	-0.2261	-3.2187	-3.1069	-0.3469	-3.4537	-3.0493	-0.2322	-3.2815	62.8405	99.9885	
   932	-3.0149	-0.2256	-3.2405	-3.1120	-0.3256	-3.4375	-3.0363	-0.2027	-3.2390	62.8015	99.9886	
   933	-2.9470	-0.2122	-3.1592	-3.0137	-0.3018	-3.3154	-2.9166	-0.1596	-3.0761	62.8599	99.9883	
   934	-2.8568	-0.1992	-3.0561	-2.9087	-0.2738	-3.1824	-2.8084	-0.1238	-2.9321	62.8678	99.9886	
   935	-2.8181	-0.1754	-2.9934	-2.8684	-0.2490	-3.1173	-2.7511	-0.0985	-2.8495	62.9178	99.9882	
   936	-2.7948	-0.1610	-2.9558	-2.8416	-0.2325	-3.0739	-2.7111	-0.0841	-2.7952	62.9665	99.9880	
   937	-2.7638	-0.1419	-2.9057	-2.8214	-0.2200	-3.0414	-2.6989	-0.0657	-2.7645	62.9200	99.9876	
   938	-2.7948	-0.1610	-2.9558	-2.8617	-0.2449	-3.1065	-2.7511	-0.0985	-2.8495	62.9145	99.9879	
   939	-2.8326	-0.1701	-3.0028	-2.9012	-0.2569	-3.1580	-2.7801	-0.1167	-2.8967	62.9589	99.9877	
   940	-2.8559	-0.1845	-3.0403	-2.9154	-0.2779	-3.1932	-2.8033	-0.1313	-2.9345	62.9578	99.9878	
   941	-2.8500	-0.2092	-3.0592	-2.9170	-0.3034	-3.2203	-2.7995	-0.1611	-2.9606	63.0023	99.9876	
   942	-2.8878	-0.2183	-3.1062	-2.9632	-0.3196	-3.2827	-2.8452	-0.1791	-3.0243	62.9990	99.9873	
   943	-2.9257	-0.2274	-3.1531	-2.9833	-0.3320	-3.3153	-2.8626	-0.1900	-3.0526	63.0457	99.9875	
   944	-2.9499	-0.2565	-3.2064	-3.0236	-0.3568	-3.3804	-2.9090	-0.2192	-3.1282	62.9958	99.9875	
   945	-3.0100	-0.2652	-3.2752	-3.0639	-0.3817	-3.4454	-2.9489	-0.2335	-3.1825	63.0415	99.9873	
   946	-3.0177	-0.2699	-3.2877	-3.0832	-0.3813	-3.4645	-2.9657	-0.2333	-3.1990	62.9947	99.9871	
   947	-3.0323	-0.2647	-3.2970	-3.0891	-0.3727	-3.4618	-2.9547	-0.2372	-3.1919	63.0882	99.9873	
   948	-2.9799	-0.2608	-3.2408	-3.0370	-0.3651	-3.4020	-2.9148	-0.2228	-3.1376	63.0436	99.9875	
   949	-2.9722	-0.2561	-3.2282	-3.0370	-0.3651	-3.4020	-2.9148	-0.2228	-3.1376	63.0425	99.9872	
   950	-2.9867	-0.2508	-3.2376	-3.0370	-0.3651	-3.4020	-2.9206	-0.2265	-3.1471	63.0882	99.9877	
   951	-3.0022	-0.2604	-3.2626	-3.0631	-0.3689	-3.4319	-2.9489	-0.2335	-3.1825	63.0404	99.9878	
   952	-3.0168	-0.2552	-3.2720	-3.0824	-0.3686	-3.4509	-2.9547	-0.2372	-3.1919	63.0861	99.9873	
   953	-3.0391	-0.2547	-3.2938	-3.1026	-0.3810	-3.4835	-2.9831	-0.2443	-3.2273	63.0840	99.9871	
   954	-3.0468	-0.2595	-3.3063	-3.1018	-0.3683	-3.4699	-2.9766	-0.2295	-3.2060	63.0415	99.9875	
   955	-3.0168	-0.2552	-3.2720	-3.0639	-0.3817	-3.4454	-2.9547	-0.2372	-3.1919	63.0861	99.9875	
   956	-3.0022	-0.2604	-3.2626	-3.0572	-0.3775	-3.4346	-2.9438	-0.2410	-3.1848	63.0861	99.9877	
   957	-3.0168	-0.2552	-3.2720	-3.0765	-0.3772	-3.4536	-2.9605	-0.2408	-3.2014	63.0850	99.9874	
   958	-3.0245	-0.2599	-3.2845	-3.0891	-0.3727	-3.4618	-2.9831	-0.2443	-3.2273	63.0372	99.9880	
   959	-3.0468	-0.2595	-3.3063	-3.1026	-0.3810	-3.4835	-2.9889	-0.2479	-3.2368	63.0840	99.9877	
   960	-3.0614	-0.2543	-3.3157	-3.1278	-0.3721	-3.4998	-3.0107	-0.2402	-3.2509	63.0372	99.9874	
   961	-3.0692	-0.2591	-3.3282	-3.1405	-0.3676	-3.5080	-3.0165	-0.2438	-3.2603	63.0372	99.9876	
   962	-3.0459	-0.2447	-3.2906	-3.0891	-0.3727	-3.4618	-2.9715	-0.2370	-3.2084	63.1318	99.9876	
   963	-3.0158	-0.2404	-3.2562	-3.0690	-0.3603	-3.4292	-2.9650	-0.2222	-3.1871	63.0393	99.9879	
   964	-3.0158	-0.2404	-3.2562	-3.0690	-0.3603	-3.4292	-2.9650	-0.2222	-3.1871	63.0393	99.9879	
   965	-3.0226	-0.2304	-3.2530	-3.0876	-0.3473	-3.4347	-2.9759	-0.2183	-3.1942	63.0383	99.9877	
   966	-3.0226	-0.2304	-3.2530	-3.0876	-0.3473	-3.4347	-2.9810	-0.2108	-3.1918	62.9925	99.9877	
   967	-3.0372	-0.2252	-3.2624	-3.1002	-0.3428	-3.4429	-2.9868	-0.2144	-3.2013	63.0383	99.9877	
   968	-3.0517	-0.2200	-3.2717	-3.1128	-0.3383	-3.4511	-3.0087	-0.2067	-3.2154	62.9914	99.9879	
   969	-3.0139	-0.2109	-3.2248	-3.0792	-0.3177	-3.3968	-2.9578	-0.1962	-3.1541	63.0404	99.9879	
   970	-2.9907	-0.1966	-3.1872	-3.0406	-0.3183	-3.3588	-2.9244	-0.1967	-3.1210	63.1328	99.9880	
   971	-2.9761	-0.2018	-3.1779	-3.0406	-0.3183	-3.3588	-2.9462	-0.1889	-3.1352	62.9925	99.9882	
   972	-2.9907	-0.1966	-3.1872	-3.0532	-0.3139	-3.3669	-2.9462	-0.1889	-3.1352	63.0393	99.9880	
   973	-2.9975	-0.1866	-3.1840	-3.0591	-0.3053	-3.3643	-2.9623	-0.1776	-3.1399	62.9925	99.9882	
   974	-2.9975	-0.1866	-3.1840	-3.0591	-0.3053	-3.3643	-2.9623	-0.1776	-3.1399	62.9925	99.9882	
   975	-3.0043	-0.1766	-3.1808	-3.0777	-0.2922	-3.3698	-2.9674	-0.1701	-3.1375	62.9925	99.9878	
   976	-2.9965	-0.1718	-3.1683	-3.0701	-0.2753	-3.3454	-2.9551	-0.1516	-3.1068	62.9490	99.9879	
   977	-2.9587	-0.1627	-3.1214	-3.0062	-0.2849	-3.2910	-2.9108	-0.1559	-3.0667	63.0415	99.9885	
   978	-2.9364	-0.1631	-3.0995	-2.9928	-0.2766	-3.2693	-2.9043	-0.1411	-3.0454	62.9501	99.9885	
   979	-2.9432	-0.1531	-3.0963	-3.0054	-0.2722	-3.2775	-2.9210	-0.1409	-3.0619	62.9479	99.9884	
   980	-2.9500	-0.1432	-3.0931	-3.0046	-0.2594	-3.2639	-2.9203	-0.1298	-3.0501	62.9490	99.9887	
   981	-2.9500	-0.1432	-3.0931	-3.0180	-0.2677	-3.2856	-2.9429	-0.1332	-3.0760	62.9000	99.9884	
   982	-2.9723	-0.1427	-3.1150	-3.0433	-0.2588	-3.3020	-2.9589	-0.1218	-3.0807	62.8554	99.9882	
   983	-2.9868	-0.1375	-3.1243	-3.0559	-0.2543	-3.3101	-2.9647	-0.1255	-3.0902	62.9011	99.9882	
   984	-2.9636	-0.1232	-3.0867	-3.0350	-0.2292	-3.2641	-2.9248	-0.1111	-3.0359	62.9501	99.9882	
   985	-2.9180	-0.1093	-3.0273	-2.9702	-0.2260	-3.1962	-2.8849	-0.0967	-2.9816	62.9512	99.9887	
   986	-2.8947	-0.0950	-2.9897	-2.9501	-0.2136	-3.1636	-2.8668	-0.0747	-2.9414	62.9067	99.9884	
   987	-2.8870	-0.0902	-2.9772	-2.9560	-0.2050	-3.1610	-2.8828	-0.0633	-2.9461	62.8131	99.9884	
   988	-2.8870	-0.0902	-2.9772	-2.9493	-0.2009	-3.1501	-2.8770	-0.0597	-2.9367	62.8143	99.9887	
   989	-2.8860	-0.0754	-2.9615	-2.9552	-0.1923	-3.1474	-2.8770	-0.0597	-2.9367	62.8588	99.9885	
   990	-2.9248	-0.0993	-3.0241	-3.0022	-0.2212	-3.2234	-2.9241	-0.1000	-3.0241	62.9000	99.9885	
   991	-3.0004	-0.1175	-3.1179	-3.0686	-0.2499	-3.3183	-2.9982	-0.1250	-3.1232	62.8966	99.9886	
   992	-3.0547	-0.1509	-3.2056	-3.1416	-0.2826	-3.4241	-3.0626	-0.1763	-3.2389	62.9368	99.9885	
   993	-3.0935	-0.1748	-3.2683	-3.1827	-0.3202	-3.5027	-3.1148	-0.2091	-3.3239	62.9324	99.9884	
   994	-3.1788	-0.2273	-3.4061	-3.2775	-0.3908	-3.6681	-3.2039	-0.2972	-3.5011	63.0627	99.9881	
   995	-3.2592	-0.3193	-3.5785	-3.3857	-0.4697	-3.8552	-3.3025	-0.3592	-3.6616	62.9200	99.9870	
   996	-3.3290	-0.3623	-3.6912	-3.4646	-0.4939	-3.9584	-3.3707	-0.3806	-3.7513	62.8266	99.9868	
   997	-3.4055	-0.3953	-3.8008	-3.5444	-0.5307	-4.0750	-3.4512	-0.4205	-3.8717	62.8220	99.9868	
   998	-3.4812	-0.4135	-3.8946	-3.5914	-0.5597	-4.1510	-3.4970	-0.4385	-3.9354	62.8693	99.9869	
   999	-3.5122	-0.4326	-3.9447	-3.6376	-0.5759	-4.2134	-3.5478	-0.4490	-3.9968	62.7734	99.9866	
  1000	-3.5500	-0.4417	-3.9916	-3.6644	-0.5924	-4.2568	-3.5710	-0.4636	-4.0346	62.8196	99.9865	
  1001	-3.5587	-0.4612	-4.0199	-3.6719	-0.6093	-4.2811	-3.5775	-0.4784	-4.0558	62.8196	99.9865	
  1002	-3.5752	-0.4855	-4.0607	-3.6988	-0.6259	-4.3245	-3.6065	-0.4966	-4.1030	62.7710	99.9866	
  1003	-3.6130	-0.4946	-4.1076	-3.7568	-0.6249	-4.3816	-3.6515	-0.5034	-4.1550	62.7223	99.9862	
  1004	-3.6653	-0.4985	-4.1638	-3.7963	-0.6370	-4.4331	-3.6966	-0.5103	-4.2069	62.7211	99.9863	
  1005	-3.7032	-0.5076	-4.2107	-3.8484	-0.6446	-4.4929	-3.7365	-0.5247	-4.2612	62.7187	99.9858	
  1006	-3.7555	-0.5115	-4.2670	-3.8938	-0.6481	-4.5418	-3.7764	-0.5390	-4.3154	62.7639	99.9862	
  1007	-3.7933	-0.5206	-4.3139	-3.9266	-0.6560	-4.5825	-3.8208	-0.5347	-4.3555	62.6699	99.9864	
  1008	-3.8147	-0.5054	-4.3201	-3.9510	-0.6343	-4.5853	-3.8201	-0.5236	-4.3437	62.7187	99.9860	
  1009	-3.7982	-0.4810	-4.2793	-3.9107	-0.6095	-4.5202	-3.7956	-0.4867	-4.2823	62.6760	99.9867	
  1010	-3.7430	-0.4329	-4.1759	-3.8562	-0.5637	-4.4199	-3.7318	-0.4466	-4.1784	62.7259	99.9865	
  1011	-3.7033	-0.3942	-4.0975	-3.8211	-0.5176	-4.3386	-3.7124	-0.4022	-4.1146	62.6334	99.9871	
  1012	-3.6616	-0.3261	-3.9877	-3.7642	-0.4336	-4.1977	-3.6343	-0.3102	-3.9445	62.5984	99.9869	
  1013	-3.5241	-0.1563	-3.6804	-3.5983	-0.2579	-3.8561	-3.4736	-0.1449	-3.6186	62.6108	99.9881	
  1014	-3.3681	-0.0461	-3.4142	-3.4372	-0.1587	-3.5958	-3.3395	-0.0500	-3.3895	62.6145	99.9888	
  1015	-3.3301	-0.1503	-3.4805	-3.4795	-0.3194	-3.7988	-3.5029	-0.2599	-3.7628	62.6185	99.9905	
  1016	-3.8119	-0.3477	-4.1596	-3.9659	-0.4599	-4.4257	-3.9759	-0.3319	-4.3078	61.9576	99.9896	
  1017	-4.0030	-0.3094	-4.3124	-4.1183	-0.4191	-4.5373	-4.0531	-0.3160	-4.3691	62.2004	99.9892	
  1018	-3.8285	-0.2587	-4.0872	-3.9142	-0.3545	-4.2686	-3.7801	-0.2303	-4.0103	62.4140	99.9875	
  1019	-3.4117	-0.0304	-3.4422	-3.5019	-0.1618	-3.6637	-3.4064	-0.0491	-3.4556	62.5624	99.9879	
  1020	-3.1161	 0.1657	-2.9504	-3.2168	 0.0628	-3.1539	-3.0810	 0.1661	-2.9148	62.5848	99.9873	
  1021	-2.9465	 0.2560	-2.6905	-3.1161	 0.1248	-2.9912	-2.9991	 0.2283	-2.7708	62.4858	99.9855	
  1022	-2.9077	 0.2798	-2.6279	-3.0826	 0.1455	-2.9369	-2.9534	 0.2463	-2.7071	62.5341	99.9850	
  1023	-2.9387	 0.2607	-2.6780	-3.1161	 0.1248	-2.9912	-2.9875	 0.2356	-2.7519	62.4871	99.9846	
  1024	-2.9465	 0.2560	-2.6905	-3.1094	 0.1290	-2.9803	-2.9752	 0.2540	-2.7212	62.4465	99.9845	
  1025	-2.9310	 0.2655	-2.6655	-3.0901	 0.1286	-2.9613	-2.9534	 0.2463	-2.7071	62.5379	99.9845	
  1026	-2.9319	 0.2508	-2.6812	-3.0901	 0.1286	-2.9613	-2.9592	 0.2427	-2.7165	62.4922	99.9852	
  1027	-2.9630	 0.2317	-2.7313	-3.1110	 0.1035	-3.0074	-3.0158	 0.2285	-2.7873	62.3956	99.9861	
  1028	-2.9853	 0.2321	-2.7532	-3.1295	 0.1166	-3.0129	-3.0152	 0.2397	-2.7755	62.3996	99.9860	
  1029	-3.0153	 0.2278	-2.7875	-3.1631	 0.0959	-3.0671	-3.0660	 0.2292	-2.8368	62.3486	99.9857	
  1030	-3.0667	 0.2387	-2.8281	-3.2069	 0.1179	-3.0889	-3.0807	 0.2628	-2.8179	62.3095	99.9849	
  1031	-3.0658	 0.2534	-2.8124	-3.2120	 0.1392	-3.0727	-3.0968	 0.2742	-2.8226	62.2611	99.9856	
  1032	-3.1414	 0.2352	-2.9062	-3.2709	 0.1275	-3.1433	-3.1476	 0.2637	-2.8839	62.2625	99.9859	
  1033	-3.1802	 0.2114	-2.9688	-3.2977	 0.1109	-3.1867	-3.1592	 0.2564	-2.9028	62.2666	99.9856	
  1034	-3.2034	 0.1970	-3.0064	-3.3439	 0.0947	-3.2491	-3.2049	 0.2384	-2.9665	62.2154	99.9851	
  1035	-3.2810	 0.1493	-3.1317	-3.4312	 0.0409	-3.3901	-3.3029	 0.1876	-3.1153	62.1614	99.9849	
  1036	-3.3876	 0.1120	-3.2756	-3.5101	 0.0168	-3.4933	-3.3653	 0.1698	-3.1955	62.1656	99.9853	
  1037	-3.4807	 0.0547	-3.4259	-3.6175	-0.0494	-3.6668	-3.4820	 0.0858	-3.3962	62.1989	99.9856	
  1038	-3.6503	-0.0355	-3.6858	-3.7846	-0.1400	-3.9245	-3.6488	 0.0024	-3.6465	62.1445	99.9855	
  1039	-3.7889	-0.1067	-3.8956	-3.9105	-0.1931	-4.1036	-3.7467	-0.0484	-3.7952	62.1459	99.9853	
  1040	-3.8645	-0.1249	-3.9894	-3.9828	-0.2132	-4.1958	-3.8092	-0.0662	-3.8754	62.1445	99.9850	
  1041	-3.8878	-0.1392	-4.0270	-3.9903	-0.2300	-4.2202	-3.8259	-0.0660	-3.8919	62.1000	99.9851	
  1042	-3.8878	-0.1392	-4.0270	-3.9836	-0.2259	-4.2094	-3.8143	-0.0587	-3.8731	62.1028	99.9851	
  1043	-3.8868	-0.1244	-4.0113	-3.9887	-0.2046	-4.1932	-3.8085	-0.0551	-3.8636	62.1488	99.9853	
  1044	-3.8955	-0.1440	-4.0395	-4.0215	-0.2125	-4.2339	-3.8471	-0.0472	-3.8943	61.9620	99.9847	
  1045	-3.9314	-0.1235	-4.0550	-4.0400	-0.1995	-4.2394	-3.8471	-0.0472	-3.8943	62.1028	99.9848	
  1046	-3.9479	-0.1479	-4.0958	-4.0736	-0.2201	-4.2936	-3.8819	-0.0690	-3.9509	62.0525	99.9845	
  1047	-4.0080	-0.1565	-4.1645	-4.1198	-0.2363	-4.3560	-3.9270	-0.0759	-4.0028	62.0525	99.9844	
  1048	-4.0390	-0.1756	-4.2146	-4.1593	-0.2484	-4.4076	-3.9560	-0.0941	-4.0501	62.0511	99.9842	
  1049	-4.0555	-0.1999	-4.2554	-4.1676	-0.2780	-4.4455	-3.9850	-0.1123	-4.0973	62.0021	99.9846	
  1050	-4.1011	-0.2138	-4.3149	-4.2011	-0.2987	-4.4997	-4.0204	-0.1453	-4.1658	62.0914	99.9852	
  1051	-4.1476	-0.2424	-4.3900	-4.2422	-0.3363	-4.5783	-4.0719	-0.1670	-4.2389	62.0424	99.9849	
  1052	-4.1786	-0.2615	-4.4401	-4.2817	-0.3483	-4.6299	-4.1009	-0.1852	-4.2862	62.0409	99.9848	
  1053	-4.2096	-0.2806	-4.4902	-4.3152	-0.3690	-4.6842	-4.1306	-0.2146	-4.3452	62.0842	99.9848	
  1054	-4.2484	-0.3045	-4.5529	-4.3362	-0.3941	-4.7302	-4.1531	-0.2180	-4.3712	62.0409	99.9846	
  1055	-4.2484	-0.3045	-4.5529	-4.3160	-0.3817	-4.6977	-4.1197	-0.2185	-4.3381	62.1389	99.9854	
  1056	-4.2261	-0.3049	-4.5310	-4.2781	-0.3951	-4.6732	-4.1088	-0.2223	-4.3311	62.1375	99.9860	
  1057	-4.2038	-0.3054	-4.5092	-4.2647	-0.3869	-4.6515	-4.0972	-0.2150	-4.3122	62.0914	99.9861	
  1058	-4.1650	-0.2815	-4.4465	-4.2102	-0.3410	-4.5512	-4.0269	-0.1601	-4.1870	62.0569	99.9863	
  1059	-4.0555	-0.1999	-4.2554	-4.0432	-0.2504	-4.2935	-3.8491	-0.0806	-3.9297	62.2584	99.9878	
  1060	-3.9023	-0.1340	-4.0363	-3.8971	-0.1849	-4.0819	-3.7352	-0.0412	-3.7763	62.3028	99.9892	
  1061	-3.9576	-0.1822	-4.1397	-3.9607	-0.2730	-4.2336	-3.8371	-0.1589	-3.9960	62.4679	99.9900	
  1062	-4.2251	-0.2902	-4.5153	-4.2766	-0.3697	-4.6461	-4.2149	-0.2247	-4.4396	61.8859	99.9902	
  1063	-4.4017	-0.2571	-4.6587	-4.4080	-0.3037	-4.7116	-4.2990	-0.1380	-4.4370	61.7641	99.9901	
  1064	-4.2563	-0.1959	-4.4522	-4.2307	-0.2557	-4.4863	-4.1020	-0.1108	-4.2128	62.1000	99.9904	
  1065	-4.1156	-0.2086	-4.3242	-4.1573	-0.3207	-4.4779	-4.0907	-0.2002	-4.2909	62.1667	99.9902	
  1066	-4.1932	-0.2563	-4.4495	-4.1968	-0.3328	-4.5295	-4.0900	-0.1891	-4.2791	62.1360	99.9901	
  1067	-4.1641	-0.2667	-4.4308	-4.1850	-0.3500	-4.5348	-4.0804	-0.2152	-4.2957	62.1779	99.9899	
  1068	-4.1641	-0.2667	-4.4308	-4.1850	-0.3500	-4.5348	-4.0637	-0.2155	-4.2792	62.2269	99.9894	
  1069	-4.1641	-0.2667	-4.4308	-4.1723	-0.3544	-4.5267	-4.0579	-0.2118	-4.2697	62.2283	99.9896	
  1070	-4.1175	-0.2381	-4.3556	-4.1001	-0.3344	-4.4344	-3.9897	-0.1904	-4.1800	62.3259	99.9900	
  1071	-4.0128	-0.2303	-4.2431	-4.0278	-0.3144	-4.3421	-3.9214	-0.1689	-4.0904	62.2338	99.9896	
  1072	-3.9818	-0.2112	-4.1930	-3.9816	-0.2982	-4.2797	-3.8815	-0.1546	-4.0361	62.2825	99.9901	
  1073	-3.9362	-0.1974	-4.1336	-3.9481	-0.2775	-4.2255	-3.8474	-0.1439	-3.9912	62.2825	99.9902	
  1074	-3.9285	-0.1926	-4.1211	-3.9346	-0.2692	-4.2038	-3.8300	-0.1329	-3.9629	62.2853	99.9902	
  1075	-3.9042	-0.1635	-4.0678	-3.8944	-0.2444	-4.1387	-3.7894	-0.1074	-3.8968	62.3353	99.9904	
  1076	-3.8732	-0.1444	-4.0177	-3.8801	-0.2234	-4.1035	-3.7938	-0.0888	-3.8826	62.2393	99.9906	
  1077	-3.8577	-0.1349	-3.9926	-3.8726	-0.2065	-4.0791	-3.7713	-0.0853	-3.8566	62.2866	99.9905	
  1078	-3.8054	-0.1310	-3.9364	-3.8020	-0.2120	-4.0139	-3.7262	-0.0785	-3.8047	62.2880	99.9911	
  1079	-3.7908	-0.1362	-3.9270	-3.8028	-0.2247	-4.0274	-3.7276	-0.1008	-3.8284	62.3299	99.9909	
  1080	-3.8373	-0.1649	-4.0022	-3.8371	-0.2581	-4.0952	-3.7624	-0.1226	-3.8850	62.3299	99.9908	
  1081	-3.8528	-0.1744	-4.0272	-3.8565	-0.2578	-4.1142	-3.7740	-0.1299	-3.9039	62.3299	99.9909	
  1082	-3.8528	-0.1744	-4.0272	-3.8565	-0.2578	-4.1142	-3.7733	-0.1188	-3.8921	62.2853	99.9906	
  1083	-3.8218	-0.1553	-3.9771	-3.8229	-0.2371	-4.0599	-3.7552	-0.0967	-3.8519	62.2393	99.9910	
  1084	-3.8141	-0.1505	-3.9646	-3.8162	-0.2330	-4.0491	-3.7334	-0.1044	-3.8378	62.3326	99.9909	
  1085	-3.7627	-0.1614	-3.9241	-3.7582	-0.2340	-3.9920	-3.6832	-0.1051	-3.7883	62.3353	99.9913	
  1086	-3.6957	-0.1628	-3.8585	-3.7001	-0.2349	-3.9350	-3.6388	-0.1093	-3.7482	62.3339	99.9916	
  1087	-3.6880	-0.1580	-3.8460	-3.6808	-0.2353	-3.9160	-3.6112	-0.1134	-3.7246	62.4284	99.9916	
  1088	-3.6725	-0.1484	-3.8209	-3.6674	-0.2270	-3.8943	-3.5989	-0.0950	-3.6939	62.3838	99.9913	
  1089	-3.6492	-0.1341	-3.7833	-3.6599	-0.2101	-3.8699	-3.5924	-0.0802	-3.6726	62.3366	99.9911	
  1090	-3.6415	-0.1293	-3.7708	-3.6532	-0.2060	-3.8591	-3.5866	-0.0765	-3.6632	62.3366	99.9911	
  1091	-3.6328	-0.1098	-3.7426	-3.6583	-0.1847	-3.8428	-3.5860	-0.0654	-3.6514	62.3353	99.9910	
  1092	-3.6696	-0.1041	-3.7737	-3.6843	-0.1885	-3.8727	-3.6245	-0.0575	-3.6820	62.2880	99.9911	
  1093	-3.6609	-0.0846	-3.7455	-3.6567	-0.1592	-3.8158	-3.5897	-0.0356	-3.6253	62.3393	99.9916	
  1094	-3.5853	-0.0664	-3.6517	-3.5844	-0.1392	-3.7235	-3.5106	-0.0180	-3.5286	62.3891	99.9914	
  1095	-3.5552	-0.0621	-3.6173	-3.5584	-0.1354	-3.6936	-3.5048	-0.0144	-3.5191	62.3406	99.9918	
  1096	-3.5552	-0.0621	-3.6173	-3.5659	-0.1522	-3.7180	-3.5112	-0.0292	-3.5404	62.3838	99.9913	
  1097	-3.5707	-0.0716	-3.6423	-3.5979	-0.1474	-3.7452	-3.5389	-0.0251	-3.5640	62.2907	99.9912	
  1098	-3.5698	-0.0568	-3.6266	-3.5844	-0.1392	-3.7235	-3.5273	-0.0178	-3.5451	62.3379	99.9914	
  1099	-3.5688	-0.0421	-3.6109	-3.5904	-0.1306	-3.7208	-3.5324	-0.0103	-3.5427	62.3366	99.9911	
  1100	-3.5843	-0.0516	-3.6359	-3.6105	-0.1430	-3.7534	-3.5440	-0.0176	-3.5616	62.3366	99.9906	
  1101	-3.5853	-0.0664	-3.6517	-3.5919	-0.1560	-3.7479	-3.5280	-0.0289	-3.5569	62.3851	99.9911	
  1102	-3.5252	-0.0577	-3.5829	-3.5331	-0.1443	-3.6773	-3.4713	-0.0148	-3.4861	62.3878	99.9911	
  1103	-3.5096	-0.0482	-3.5578	-3.5138	-0.1446	-3.6583	-3.4662	-0.0223	-3.4885	62.4310	99.9915	
  1104	-3.5252	-0.0577	-3.5829	-3.5331	-0.1443	-3.6773	-3.4720	-0.0260	-3.4979	62.4323	99.9914	
  1105	-3.5329	-0.0625	-3.5954	-3.5406	-0.1612	-3.7017	-3.4894	-0.0369	-3.5263	62.4297	99.9913	
  1106	-3.5630	-0.0668	-3.6298	-3.5734	-0.1691	-3.7424	-3.5119	-0.0403	-3.5522	62.4297	99.9908	
  1107	-3.5785	-0.0764	-3.6549	-3.5995	-0.1729	-3.7723	-3.5293	-0.0512	-3.5806	62.4284	99.9906	
  1108	-3.5940	-0.0859	-3.6799	-3.6196	-0.1853	-3.8048	-3.5467	-0.0622	-3.6089	62.4271	99.9904	
  1109	-3.6240	-0.0903	-3.7143	-3.6456	-0.1891	-3.8347	-3.5692	-0.0656	-3.6349	62.4271	99.9904	
  1110	-3.6172	-0.1003	-3.7175	-3.6263	-0.1895	-3.8157	-3.5467	-0.0622	-3.6089	62.4310	99.9907	
  1111	-3.5726	-0.1011	-3.6738	-3.5943	-0.1942	-3.7885	-3.5249	-0.0699	-3.5948	62.4284	99.9906	
  1112	-3.5959	-0.1155	-3.7114	-3.6145	-0.2066	-3.8210	-3.5423	-0.0808	-3.6231	62.4284	99.9906	
  1113	-3.6192	-0.1298	-3.7489	-3.6413	-0.2232	-3.8644	-3.5655	-0.0954	-3.6609	62.4271	99.9904	
  1114	-3.6424	-0.1441	-3.7865	-3.6615	-0.2356	-3.8970	-3.5887	-0.1100	-3.6987	62.4258	99.9906	
  1115	-3.6889	-0.1727	-3.8617	-3.6958	-0.2690	-3.9647	-3.6183	-0.1394	-3.7577	62.4717	99.9906	
  1116	-3.7268	-0.1818	-3.9086	-3.7353	-0.2811	-4.0163	-3.6473	-0.1576	-3.8049	62.5164	99.9904	
  1117	-3.7519	-0.2257	-3.9776	-3.7890	-0.3142	-4.1031	-3.7111	-0.1977	-3.9088	62.4166	99.9905	
  1118	-3.8062	-0.2591	-4.0653	-3.8301	-0.3517	-4.1817	-3.7517	-0.2232	-3.9749	62.4166	99.9904	
  1119	-3.7771	-0.2696	-4.0466	-3.7847	-0.3482	-4.1328	-3.6964	-0.2313	-3.9278	62.5139	99.9910	
  1120	-3.7111	-0.2857	-3.9968	-3.7215	-0.3705	-4.0920	-3.6534	-0.2579	-3.9113	62.5574	99.9914	
  1121	-3.7276	-0.3100	-4.0376	-3.7433	-0.4084	-4.1516	-3.6947	-0.2946	-3.9893	62.5510	99.9915	
  1122	-3.7809	-0.3286	-4.1095	-3.8021	-0.4202	-4.2222	-3.7404	-0.3126	-4.0530	62.5498	99.9913	
  1123	-3.8342	-0.3473	-4.1815	-3.8684	-0.4488	-4.3171	-3.8196	-0.3302	-4.1498	62.4510	99.9910	
  1124	-3.8556	-0.3321	-4.1876	-3.8862	-0.4230	-4.3091	-3.8234	-0.3004	-4.1237	62.4087	99.9908	
  1125	-3.8314	-0.3030	-4.1343	-3.8652	-0.3979	-4.2630	-3.8162	-0.2744	-4.0906	62.3612	99.9910	
  1126	-3.8605	-0.2925	-4.1530	-3.8980	-0.4058	-4.3037	-3.8445	-0.2815	-4.1260	62.4048	99.9904	
  1127	-3.8692	-0.3121	-4.1813	-3.9122	-0.4268	-4.3389	-3.8408	-0.3113	-4.1521	62.4972	99.9901	
  1128	-3.8633	-0.3368	-4.2002	-3.9079	-0.4609	-4.3687	-3.8486	-0.3484	-4.1970	62.5396	99.9902	
  1129	-3.8740	-0.3859	-4.2599	-3.9379	-0.5283	-4.4662	-3.8926	-0.4297	-4.3222	62.6222	99.9902	
  1130	-3.9321	-0.4784	-4.4104	-4.0091	-0.6334	-4.6423	-3.9553	-0.5442	-4.4994	62.7543	99.9897	
  1131	-3.9766	-0.5908	-4.5674	-4.0616	-0.7514	-4.8130	-4.0057	-0.6402	-4.6459	62.7507	99.9887	
  1132	-4.0328	-0.6538	-4.6865	-4.1169	-0.8100	-4.9268	-4.0586	-0.6842	-4.7428	62.7029	99.9884	
  1133	-4.0647	-0.6876	-4.7524	-4.1446	-0.8393	-4.9837	-4.0934	-0.7060	-4.7994	62.6551	99.9886	
  1134	-4.1025	-0.6967	-4.7993	-4.1840	-0.8513	-5.0353	-4.1166	-0.7206	-4.8372	62.7017	99.9881	
  1135	-4.1413	-0.7206	-4.8619	-4.2184	-0.8848	-5.1031	-4.1353	-0.7538	-4.8892	62.7949	99.9875	
  1136	-4.1268	-0.7258	-4.8526	-4.1975	-0.8596	-5.0570	-4.1166	-0.7206	-4.8372	62.6600	99.9882	
  1137	-4.0454	-0.6190	-4.6644	-4.0735	-0.7342	-4.8076	-3.9863	-0.5958	-4.5821	62.6748	99.9894	
  1138	-3.9010	-0.4593	-4.3603	-3.9470	-0.5707	-4.5176	-3.8779	-0.4633	-4.3412	62.6297	99.9903	
  1139	-3.8681	-0.4107	-4.2788	-3.9269	-0.5583	-4.4851	-3.8837	-0.4670	-4.3506	62.7139	99.9904	
  1140	-4.0262	-0.4371	-4.4632	-4.1211	-0.5677	-4.6888	-4.0939	-0.4382	-4.5322	62.2399	99.9895	
  1141	-4.1823	-0.4339	-4.6163	-4.2170	-0.5534	-4.7703	-4.1216	-0.4341	-4.5557	62.4869	99.9895	
  1142	-3.9758	-0.3494	-4.3252	-3.9272	-0.4605	-4.3877	-3.7424	-0.3460	-4.0885	63.0286	99.9891	
  1143	-3.7392	-0.3738	-4.1130	-3.8168	-0.5516	-4.3683	-3.7055	-0.4730	-4.1785	63.0929	99.9878	
  1144	-3.8263	-0.5692	-4.3955	-3.9195	-0.7496	-4.6690	-3.8108	-0.6464	-4.4573	63.0854	99.9867	
  1145	-3.9018	-0.7008	-4.6025	-4.0250	-0.8880	-4.9129	-3.9456	-0.7526	-4.6981	62.8881	99.9857	
  1146	-3.9890	-0.7828	-4.7718	-4.1206	-0.9714	-5.0918	-4.0397	-0.8332	-4.8729	62.8823	99.9853	
  1147	-4.1130	-0.8592	-4.9722	-4.2674	-1.0496	-5.3170	-4.1673	-0.9134	-5.0807	62.8754	99.9841	
  1148	-4.1915	-0.9217	-5.1132	-4.3808	-1.1072	-5.4879	-4.2768	-0.9715	-5.2483	62.7733	99.9832	
  1149	-4.2904	-0.9542	-5.2446	-4.4740	-1.1524	-5.6262	-4.3471	-1.0263	-5.3734	62.9118	99.9826	
  1150	-4.3466	-1.0171	-5.3637	-4.5545	-1.2020	-5.7564	-4.4276	-1.0662	-5.4938	62.7661	99.9819	
  1151	-4.4077	-1.0406	-5.4482	-4.6343	-1.2389	-5.8730	-4.5075	-1.0949	-5.6024	62.7129	99.9807	
  1152	-4.4154	-1.0453	-5.4608	-4.6418	-1.2557	-5.8974	-4.5249	-1.1059	-5.6308	62.7104	99.9804	
  1153	-4.4309	-1.0549	-5.4858	-4.6611	-1.2554	-5.9164	-4.5372	-1.1243	-5.6615	62.7564	99.9811	
  1154	-4.4542	-1.0692	-5.5234	-4.6813	-1.2678	-5.9490	-4.5764	-1.1275	-5.7039	62.6595	99.9816	
  1155	-4.4843	-1.0735	-5.5578	-4.7140	-1.2758	-5.9897	-4.5938	-1.1385	-5.7323	62.7067	99.9810	
  1156	-4.4998	-1.0831	-5.5828	-4.7275	-1.2840	-6.0114	-4.6221	-1.1455	-5.7677	62.6570	99.9816	
  1157	-4.5007	-1.0978	-5.5986	-4.7661	-1.2834	-6.0494	-4.6337	-1.1528	-5.7866	62.6084	99.9803	
  1158	-4.5308	-1.1022	-5.6330	-4.7922	-1.2872	-6.0793	-4.6563	-1.1562	-5.8125	62.6084	99.9803	
  1159	-4.5531	-1.1017	-5.6548	-4.8056	-1.2955	-6.1010	-4.6679	-1.1635	-5.8314	62.6557	99.9802	
  1160	-4.5385	-1.1069	-5.6455	-4.7863	-1.2958	-6.0820	-4.6511	-1.1638	-5.8149	62.6570	99.9806	
  1161	-4.5308	-1.1022	-5.6330	-4.7543	-1.3006	-6.0548	-4.6402	-1.1676	-5.8078	62.7042	99.9817	
  1162	-4.5385	-1.1069	-5.6455	-4.7677	-1.3089	-6.0765	-4.6627	-1.1710	-5.8338	62.6544	99.9816	
  1163	-4.5463	-1.1117	-5.6580	-4.7938	-1.3127	-6.1064	-4.6795	-1.1708	-5.8503	62.6059	99.9806	
  1164	-4.5618	-1.1213	-5.6831	-4.8139	-1.3251	-6.1389	-4.7027	-1.1854	-5.8881	62.6033	99.9805	
  1165	-4.5851	-1.1356	-5.7206	-4.8467	-1.3330	-6.1796	-4.7310	-1.1925	-5.9235	62.5547	99.9803	
  1166	-4.6151	-1.1399	-5.7550	-4.8795	-1.3410	-6.2203	-4.7542	-1.2071	-5.9612	62.6007	99.9800	
  1167	-4.6384	-1.1542	-5.7926	-4.9122	-1.3489	-6.2610	-4.7825	-1.2141	-5.9966	62.5521	99.9797	
  1168	-4.6607	-1.1538	-5.8145	-4.9249	-1.3444	-6.2692	-4.7716	-1.2180	-5.9896	62.6507	99.9796	
  1169	-4.6384	-1.1542	-5.7926	-4.8862	-1.3451	-6.2312	-4.7542	-1.2071	-5.9612	62.6046	99.9804	
  1170	-4.6306	-1.1495	-5.7801	-4.8728	-1.3368	-6.2095	-4.7542	-1.2071	-5.9612	62.6033	99.9815	
  1171	-4.6452	-1.1442	-5.7894	-4.8795	-1.3410	-6.2203	-4.7651	-1.2032	-5.9683	62.6033	99.9813	
  1172	-4.6597	-1.1390	-5.7988	-4.8921	-1.3365	-6.2285	-4.7709	-1.2068	-5.9778	62.6507	99.9814	
  1173	-4.6675	-1.1438	-5.8113	-4.8988	-1.3406	-6.2393	-4.7818	-1.2030	-5.9848	62.6033	99.9813	
  1174	-4.6820	-1.1386	-5.8206	-4.9114	-1.3362	-6.2475	-4.7928	-1.1991	-5.9919	62.6033	99.9813	
  1175	-4.6898	-1.1433	-5.8331	-4.9181	-1.3403	-6.2584	-4.8095	-1.1989	-6.0084	62.5547	99.9815	
  1176	-4.6976	-1.1481	-5.8457	-4.9434	-1.3314	-6.2747	-4.8153	-1.2026	-6.0178	62.5547	99.9812	
  1177	-4.7044	-1.1381	-5.8425	-4.9367	-1.3272	-6.2638	-4.7986	-1.2028	-6.0013	62.6519	99.9813	
  1178	-4.6820	-1.1386	-5.8206	-4.8913	-1.3238	-6.2150	-4.7702	-1.1957	-5.9659	62.6544	99.9825	
  1179	-4.6820	-1.1386	-5.8206	-4.8720	-1.3241	-6.1959	-4.7644	-1.1920	-5.9565	62.6557	99.9834	
  1180	-4.6820	-1.1386	-5.8206	-4.8846	-1.3196	-6.2041	-4.7754	-1.1882	-5.9635	62.6072	99.9831	
  1181	-4.6966	-1.1333	-5.8299	-4.8846	-1.3196	-6.2041	-4.7754	-1.1882	-5.9635	62.6557	99.9834	
  1182	-4.6966	-1.1333	-5.8299	-4.8972	-1.3152	-6.2123	-4.7754	-1.1882	-5.9635	62.6557	99.9829	
  1183	-4.7111	-1.1281	-5.8393	-4.9098	-1.3107	-6.2204	-4.7921	-1.1880	-5.9801	62.6544	99.9832	
  1184	-4.7111	-1.1281	-5.8393	-4.9166	-1.3148	-6.2313	-4.7979	-1.1916	-5.9895	62.6532	99.9829	
  1185	-4.7335	-1.1277	-5.8611	-4.9300	-1.3231	-6.2530	-4.8146	-1.1914	-6.0060	62.6532	99.9827	
  1186	-4.7257	-1.1229	-5.8486	-4.9292	-1.3104	-6.2395	-4.7979	-1.1916	-5.9895	62.7017	99.9826	
  1187	-4.6966	-1.1333	-5.8299	-4.8905	-1.3110	-6.2014	-4.7805	-1.1807	-5.9612	62.6084	99.9835	
  1188	-4.7034	-1.1234	-5.8268	-4.8779	-1.3155	-6.1933	-4.7805	-1.1807	-5.9612	62.6557	99.9839	
  1189	-4.7111	-1.1281	-5.8393	-4.8972	-1.3152	-6.2123	-4.7921	-1.1880	-5.9801	62.6544	99.9837	
  1190	-4.7257	-1.1229	-5.8486	-4.9166	-1.3148	-6.2313	-4.7979	-1.1916	-5.9895	62.7017	99.9831	
  1191	-4.7335	-1.1277	-5.8611	-4.9359	-1.3145	-6.2503	-4.8146	-1.1914	-6.0060	62.6532	99.9829	
  1192	-4.7412	-1.1325	-5.8737	-4.9426	-1.3186	-6.2612	-4.8204	-1.1950	-6.0155	62.6532	99.9829	
  1193	-4.7558	-1.1272	-5.8830	-4.9620	-1.3183	-6.2802	-4.8423	-1.1873	-6.0296	62.6046	99.9824	
  1194	-4.7635	-1.1320	-5.8955	-4.9754	-1.3266	-6.3019	-4.8539	-1.1946	-6.0485	62.6033	99.9820	
  1195	-4.7635	-1.1320	-5.8955	-4.9620	-1.3183	-6.2802	-4.8313	-1.1912	-6.0225	62.6544	99.9825	
  1196	-4.7558	-1.1272	-5.8830	-4.9233	-1.3190	-6.2421	-4.8095	-1.1989	-6.0084	62.7502	99.9841	
  1197	-4.7558	-1.1272	-5.8830	-4.9233	-1.3190	-6.2421	-4.8146	-1.1914	-6.0060	62.7030	99.9840	
  1198	-4.7558	-1.1272	-5.8830	-4.9292	-1.3104	-6.2395	-4.8139	-1.1803	-5.9942	62.6570	99.9837	
  1199	-4.7548	-1.1125	-5.8673	-4.9276	-1.2849	-6.2124	-4.8075	-1.1655	-5.9729	62.6582	99.9843	
  1200	-4.7529	-1.0829	-5.8358	-4.9067	-1.2598	-6.1663	-4.7945	-1.1359	-5.9304	62.6607	99.9848	
  1201	-4.7364	-1.0586	-5.7951	-4.8723	-1.2264	-6.0986	-4.7648	-1.1065	-5.8713	62.6645	99.9858	
  1202	-4.7035	-1.0100	-5.7135	-4.8237	-1.1719	-5.9956	-4.7004	-1.0553	-5.7556	62.7191	99.9859	
  1203	-4.6590	-0.8975	-5.5565	-4.7242	-1.0249	-5.7490	-4.5796	-0.9043	-5.4840	62.6919	99.9873	
  1204	-4.4400	-0.7344	-5.1743	-4.4639	-0.8891	-5.3529	-4.3336	-0.8033	-5.1370	63.0280	99.9890	
  1205	-4.3042	-0.7075	-5.0117	-4.3202	-0.8618	-5.1819	-4.2203	-0.7751	-4.9954	63.0302	99.9899	
  1206	-4.2655	-0.6836	-4.9491	-4.2800	-0.8370	-5.1168	-4.1790	-0.7384	-4.9174	62.9869	99.9896	
  1207	-4.1327	-0.5877	-4.7204	-4.1449	-0.7415	-4.8863	-4.0514	-0.6582	-4.7097	63.0378	99.9902	
  1208	-4.1327	-0.5877	-4.7204	-4.1627	-0.7157	-4.8783	-4.0474	-0.5913	-4.6387	62.7663	99.9887	
  1209	-3.9893	-0.4427	-4.4320	-3.9723	-0.5618	-4.5340	-3.8154	-0.4455	-4.2609	62.9717	99.9889	
  1210	-3.8749	-0.4007	-4.2756	-3.8874	-0.5462	-4.4335	-3.7704	-0.4387	-4.2090	62.9639	99.9890	
  1211	-3.9069	-0.4345	-4.3414	-3.9226	-0.5923	-4.5148	-3.8079	-0.5051	-4.3130	63.0971	99.9893	
  1212	-4.0096	-0.5261	-4.5357	-4.0375	-0.6754	-4.7128	-3.9065	-0.5671	-4.4735	63.0024	99.9882	
  1213	-3.9854	-0.4970	-4.4824	-3.9771	-0.6382	-4.6151	-3.8195	-0.5124	-4.3319	63.0606	99.9879	
  1214	-3.8458	-0.4111	-4.2569	-3.8369	-0.5640	-4.4008	-3.6881	-0.4620	-4.1501	63.2009	99.9886	
  1215	-3.7460	-0.3638	-4.1098	-3.7757	-0.5141	-4.2897	-3.6339	-0.3958	-4.0297	63.0167	99.9875	
  1216	-3.5977	-0.2584	-3.8560	-3.6406	-0.4186	-4.0592	-3.4837	-0.3122	-3.7959	63.1140	99.9868	
  1217	-3.4436	-0.1776	-3.6212	-3.5131	-0.3401	-3.8531	-3.3561	-0.2320	-3.5881	63.0713	99.9860	
  1218	-3.3660	-0.1299	-3.4960	-3.4586	-0.2943	-3.7527	-3.2981	-0.1956	-3.4937	63.0713	99.9855	
  1219	-3.3341	-0.0961	-3.4301	-3.4428	-0.2478	-3.6905	-3.2794	-0.1623	-3.4417	63.0253	99.9857	
  1220	-3.3108	-0.0817	-3.3925	-3.4025	-0.2230	-3.6254	-3.2432	-0.1182	-3.3614	62.9391	99.9859	
  1221	-3.2643	-0.0531	-3.3174	-3.3421	-0.1858	-3.5277	-3.1852	-0.0817	-3.2670	62.9435	99.9866	
  1222	-3.2488	-0.0435	-3.2923	-3.3219	-0.1734	-3.4952	-3.1620	-0.0671	-3.2292	62.9457	99.9866	
  1223	-3.2643	-0.0531	-3.3174	-3.3413	-0.1730	-3.5142	-3.1627	-0.0783	-3.2410	62.9925	99.9865	
  1224	-3.3312	-0.0518	-3.3830	-3.3875	-0.1892	-3.5766	-3.2194	-0.0924	-3.3118	63.0361	99.9869	
