OxySoft export of:	C:\Users\TO3 TechSupport\Documents\Train2Adapt\T2A_35_2
Export date:	2022/09/16 15:34:59
Start of measurement:	2022-09-16 14:06:17.276

Datafile sample rate:	10.00	Hz
Datafile duration:	3967.700	s
Datafile total number of samples:	39677

Description:	

Optode-template:	PortaMon TSI Fit Factor
Optode distance (mm):	 35.00
Optode gradients (mm):	 5.00
DPF:	5.76

Device id:	291
# Receivers:	1
# Light sources:	6
# ADC:	2

Light source wavelengths:
device	index	wavelength
1	1	847	nm
1	2	761	nm
1	3	848	nm
1	4	761	nm
1	5	848	nm
1	6	762	nm

Export sample rate:	10.00	Hz
Selected time span:	0	3967.700
Selected time span (sample numbers):	0	39677


Legend:
Column	Trace (Measurement)
1	(Sample number)
2	Rx1-Tx1 O2Hb (T2A_35_2)
3	Rx1-Tx1 HHb (T2A_35_2)
4	Rx1-Tx1 tHb (T2A_35_2)
5	Rx1-Tx2 O2Hb (T2A_35_2)
6	Rx1-Tx2 HHb (T2A_35_2)
7	Rx1-Tx2 tHb (T2A_35_2)
8	Rx1-Tx3 O2Hb (T2A_35_2)
9	Rx1-Tx3 HHb (T2A_35_2)
10	Rx1-Tx3 tHb (T2A_35_2)
11	Rx1-Tx1,Tx2,Tx3 TSI% (T2A_35_2)
12	Rx1-Tx1,Tx2,Tx3 TSI Fit Factor (T2A_35_2)
13	(Event)


1	2	3	4	5	6	7	8	9	10	11	12	13
     0	118.9283	52.8044	171.7325	93.1415	35.8586	129.0004	73.0930	31.3267	104.4193	43.7250	98.5201	
     1	 0.1693	-0.0625	 0.1065	 0.1443	-0.0533	 0.0913	 0.1236	-0.1119	 0.0113	59.5535	99.8908	
     2	 0.1693	-0.0625	 0.1065	 0.0967	 0.0163	 0.1134	 0.2031	-0.0763	 0.1264	59.6039	99.8887	
     3	 0.1523	-0.0563	 0.0959	 0.1443	-0.0533	 0.0913	-0.0000	-0.0000	-0.0005	59.0960	99.8962	
     4	 0.1583	-0.1019	 0.0562	 0.0866	-0.0320	 0.0549	 0.1998	-0.1405	 0.0588	59.6969	99.8880	
     5	 0.1175	-0.0608	 0.0565	 0.0433	-0.0160	 0.0276	 0.0601	-0.0881	-0.0284	59.4553	99.8896	
     6	 0.0836	-0.0482	 0.0352	 0.0433	-0.0160	 0.0276	 0.0601	-0.0881	-0.0284	59.5230	99.8897	
     7	 0.1075	-0.0831	 0.0242	 0.0000	-0.0000	 0.0003	 0.0601	-0.0881	-0.0284	59.4265	99.8881	
     8	 0.0667	-0.0420	 0.0245	 0.0000	-0.0000	 0.0003	 0.0601	-0.0881	-0.0284	59.5568	99.8895	
     9	 0.0677	-0.0250	 0.0425	 0.0390	 0.0376	 0.0770	 0.2031	-0.0763	 0.1264	59.8060	99.8886	
    10	 0.1792	-0.0402	 0.1389	 0.0857	 0.0799	 0.1659	 0.2031	-0.0763	 0.1264	59.6327	99.8822	
    11	 0.2031	-0.0750	 0.1279	 0.1400	 0.0004	 0.1407	 0.1396	-0.0525	 0.0868	59.3673	99.8891	
    12	 0.1284	-0.0214	 0.1068	 0.0967	 0.0163	 0.1134	 0.1396	-0.0525	 0.0868	59.5652	99.8903	
    13	 0.1284	-0.0214	 0.1068	 0.0967	 0.0163	 0.1134	 0.0635	-0.0239	 0.0392	59.3622	99.8906	
    14	 0.1284	-0.0214	 0.1068	 0.0967	 0.0163	 0.1134	 0.0635	-0.0239	 0.0392	59.3622	99.8906	
    15	 0.1185	-0.0438	 0.0745	 0.0866	-0.0320	 0.0549	 0.2031	-0.0763	 0.1264	59.7050	99.8953	
    16	 0.0776	-0.0027	 0.0748	 0.0390	 0.0376	 0.0770	-0.0000	-0.0000	-0.0005	59.2944	99.8906	
    17	 0.0776	-0.0027	 0.0748	-0.0042	 0.0536	 0.0497	 0.1396	-0.0525	 0.0868	59.6664	99.8898	
    18	 0.0508	-0.0188	 0.0318	 0.0433	-0.0160	 0.0276	 0.0635	-0.0239	 0.0392	59.4688	99.8957	
    19	 0.0508	-0.0188	 0.0318	 0.0433	-0.0160	 0.0276	-0.0000	-0.0000	-0.0005	59.2996	99.8959	
    20	-0.0000	-0.0000	-0.0002	 0.0000	-0.0000	 0.0003	-0.0000	-0.0000	-0.0005	59.4012	99.8958	
    21	-0.0339	 0.0125	-0.0216	 0.0000	-0.0000	 0.0003	-0.0000	-0.0000	-0.0005	59.4688	99.8959	
    22	-0.0239	 0.0348	 0.0107	 0.0000	-0.0000	 0.0003	-0.0000	-0.0000	-0.0005	59.4976	99.8971	
    23	 0.0538	 0.0322	 0.0857	 0.0967	 0.0163	 0.1134	 0.0795	 0.0356	 0.1147	59.4418	99.8970	
    24	 0.1045	 0.0134	 0.1178	 0.0424	 0.0959	 0.1386	 0.0795	 0.0356	 0.1147	59.3404	99.8891	
    25	 0.1045	 0.0134	 0.1178	-0.0153	 0.1172	 0.1022	 0.1429	 0.0118	 0.1543	59.5093	99.8885	
    26	 0.0707	 0.0259	 0.0964	 0.0967	 0.0163	 0.1134	 0.0033	 0.0642	 0.0671	59.2049	99.8972	
    27	 0.0707	 0.0259	 0.0964	-0.0153	 0.1172	 0.1022	 0.0033	 0.0642	 0.0671	59.2049	99.8891	
    28	 0.0776	-0.0027	 0.0748	-0.0153	 0.1172	 0.1022	 0.0033	 0.0642	 0.0671	59.1424	99.8878	
    29	 0.0438	 0.0098	 0.0534	-0.0042	 0.0536	 0.0497	 0.0033	 0.0642	 0.0671	59.2102	99.8955	
    30	 0.0269	 0.0161	 0.0428	 0.0390	 0.0376	 0.0770	 0.0033	 0.0642	 0.0671	59.2440	99.8958	
    31	 0.0030	 0.0509	 0.0537	-0.0042	 0.0536	 0.0497	-0.1363	 0.1166	-0.0201	58.9673	99.8973	
    32	 0.0169	-0.0063	 0.0104	-0.1019	 0.1492	 0.0476	-0.1363	 0.1166	-0.0201	58.8423	99.8866	
    33	-0.0000	-0.0000	-0.0002	-0.0475	 0.0696	 0.0224	-0.1998	 0.1405	-0.0598	58.7061	99.8947	
    34	-0.0339	 0.0125	-0.0216	-0.0908	 0.0856	-0.0049	-0.2760	 0.1691	-0.1073	58.5696	99.8947	
    35	-0.0339	 0.0125	-0.0216	-0.0908	 0.0856	-0.0049	-0.1363	 0.1166	-0.0201	58.9442	99.8943	
    36	-0.0309	 0.0635	 0.0324	-0.0586	 0.1332	 0.0749	 0.0193	 0.1237	 0.1426	59.2900	99.8941	
    37	 0.0468	 0.0608	 0.1074	-0.0051	 0.1655	 0.1607	 0.0193	 0.1237	 0.1426	59.1834	99.8890	
    38	 0.0707	 0.0259	 0.0964	 0.0424	 0.0959	 0.1386	-0.0569	 0.1523	 0.0950	58.8836	99.8947	
    39	-0.0209	 0.0858	 0.0647	-0.0153	 0.1172	 0.1022	 0.0033	 0.0642	 0.0671	59.4367	99.8907	
    40	 0.0468	 0.0608	 0.1074	 0.0424	 0.0959	 0.1386	-0.0569	 0.1523	 0.0950	58.9800	99.8960	
    41	-0.0040	 0.0796	 0.0753	-0.0586	 0.1332	 0.0749	 0.0033	 0.0642	 0.0671	59.4029	99.8904	
    42	-0.0040	 0.0796	 0.0753	-0.0153	 0.1172	 0.1022	-0.1203	 0.1761	 0.0554	58.9121	99.8960	
    43	-0.0209	 0.0858	 0.0647	-0.1061	 0.2028	 0.0970	-0.0569	 0.1523	 0.0950	59.1156	99.8888	
    44	-0.0209	 0.0858	 0.0647	-0.1019	 0.1492	 0.0476	-0.0602	 0.0880	 0.0275	59.2675	99.8904	
    45	-0.0478	 0.0697	 0.0217	-0.1019	 0.1492	 0.0476	-0.1203	 0.1761	 0.0554	58.9515	99.8944	
    46	-0.0309	 0.0635	 0.0324	-0.1019	 0.1492	 0.0476	-0.0602	 0.0880	 0.0275	59.2388	99.8891	
    47	-0.0478	 0.0697	 0.0217	-0.1451	 0.1652	 0.0203	-0.1363	 0.1166	-0.0201	59.0692	99.8891	
    48	-0.1056	 0.1171	 0.0113	-0.1019	 0.1492	 0.0476	-0.1998	 0.1405	-0.0598	59.0639	99.8910	
    49	 0.0060	 0.1019	 0.1077	-0.1172	 0.2664	 0.1495	-0.0569	 0.1523	 0.0950	59.1103	99.8823	
    50	-0.0010	 0.1305	 0.1293	-0.0051	 0.1655	 0.1607	 0.0193	 0.1237	 0.1426	59.3759	99.8917	
    51	 0.0060	 0.1019	 0.1077	-0.1172	 0.2664	 0.1495	-0.1203	 0.1761	 0.0554	58.9406	99.8825	
    52	-0.0518	 0.1493	 0.0973	-0.1172	 0.2664	 0.1495	-0.0569	 0.1523	 0.0950	59.2744	99.8838	
    53	-0.0687	 0.1555	 0.0866	-0.1605	 0.2824	 0.1222	-0.0569	 0.1523	 0.0950	59.3083	99.8836	
    54	-0.0279	 0.1144	 0.0863	-0.1061	 0.2028	 0.0970	-0.0569	 0.1523	 0.0950	59.1781	99.8901	
    55	-0.0787	 0.1332	 0.0543	-0.1494	 0.2188	 0.0697	-0.1203	 0.1761	 0.0554	59.1103	99.8902	
    56	-0.0787	 0.1332	 0.0543	-0.1061	 0.2028	 0.0970	-0.1203	 0.1761	 0.0554	59.1103	99.8905	
    57	-0.0956	 0.1394	 0.0436	-0.2038	 0.2984	 0.0949	-0.0602	 0.0880	 0.0275	59.4654	99.8767	
    58	-0.1225	 0.1233	 0.0006	-0.1927	 0.2348	 0.0424	-0.0602	 0.0880	 0.0275	59.4705	99.8834	
    59	-0.1225	 0.1233	 0.0006	-0.1927	 0.2348	 0.0424	-0.2600	 0.2286	-0.0318	58.7761	99.8892	
    60	-0.1325	 0.1010	-0.0317	-0.2504	 0.2561	 0.0060	-0.2600	 0.2286	-0.0318	58.7477	99.8876	
    61	-0.1733	 0.1421	-0.0314	-0.2504	 0.2561	 0.0060	-0.2760	 0.1691	-0.1073	58.9959	99.8838	
    62	-0.1195	 0.1743	 0.0545	-0.2038	 0.2984	 0.0949	-0.1203	 0.1761	 0.0554	59.2406	99.8837	
    63	-0.0757	 0.1841	 0.1082	-0.1172	 0.2664	 0.1495	-0.0408	 0.2118	 0.1705	59.2528	99.8903	
    64	-0.0926	 0.1904	 0.0975	-0.1172	 0.2664	 0.1495	-0.1170	 0.2404	 0.1230	59.0835	99.8906	
    65	-0.0926	 0.1904	 0.0975	-0.1172	 0.2664	 0.1495	-0.0569	 0.1523	 0.0950	59.4046	99.8852	
    66	-0.1026	 0.1680	 0.0652	-0.1061	 0.2028	 0.0970	-0.1965	 0.2047	 0.0078	59.0031	99.8920	
    67	-0.1265	 0.2029	 0.0762	-0.1605	 0.2824	 0.1222	-0.0569	 0.1523	 0.0950	59.4722	99.8851	
    68	-0.1195	 0.1743	 0.0545	-0.1605	 0.2824	 0.1222	-0.1203	 0.1761	 0.0554	59.2406	99.8839	
    69	-0.1534	 0.1868	 0.0332	-0.1494	 0.2188	 0.0697	-0.1805	 0.2642	 0.0833	58.9873	99.8969	
    70	-0.1703	 0.1930	 0.0225	-0.1494	 0.2188	 0.0697	-0.1805	 0.2642	 0.0833	59.0212	99.8970	
    71	-0.2042	 0.2055	 0.0011	-0.2470	 0.3143	 0.0676	-0.1805	 0.2642	 0.0833	59.0889	99.8890	
    72	-0.1803	 0.1707	-0.0098	-0.2504	 0.2561	 0.0060	-0.1203	 0.1761	 0.0554	59.3134	99.8898	
    73	-0.2211	 0.2118	-0.0095	-0.3047	 0.3356	 0.0312	-0.1965	 0.2047	 0.0078	59.2406	99.8836	
    74	-0.2789	 0.2591	-0.0199	-0.2504	 0.2561	 0.0060	-0.3996	 0.2810	-0.1190	58.8615	99.8935	
    75	-0.2211	 0.2118	-0.0095	-0.2470	 0.3143	 0.0676	-0.1203	 0.1761	 0.0554	59.4435	99.8837	
    76	-0.1424	 0.2261	 0.0835	-0.1715	 0.3459	 0.1747	-0.0408	 0.2118	 0.1705	59.4182	99.8834	
    77	-0.1663	 0.2610	 0.0944	-0.1605	 0.2824	 0.1222	-0.1170	 0.2404	 0.1230	59.3117	99.8927	
    78	-0.1434	 0.2091	 0.0655	-0.1605	 0.2824	 0.1222	-0.1203	 0.1761	 0.0554	59.3369	99.8853	
    79	-0.1932	 0.2449	 0.0514	-0.2148	 0.3619	 0.1474	-0.1805	 0.2642	 0.0833	59.1477	99.8837	
    80	-0.1773	 0.2216	 0.0441	-0.2581	 0.3779	 0.1201	-0.1805	 0.2642	 0.0833	59.0835	99.8825	
    81	-0.1942	 0.2279	 0.0335	-0.2581	 0.3779	 0.1201	-0.1805	 0.2642	 0.0833	59.1174	99.8826	
    82	-0.1942	 0.2279	 0.0335	-0.2581	 0.3779	 0.1201	-0.2567	 0.2928	 0.0357	58.9139	99.8828	
    83	-0.2042	 0.2055	 0.0011	-0.2470	 0.3143	 0.0676	-0.3201	 0.3166	-0.0039	58.7155	99.8895	
    84	-0.2281	 0.2404	 0.0121	-0.3047	 0.3356	 0.0312	-0.3201	 0.3166	-0.0039	58.8120	99.8905	
    85	-0.2450	 0.2466	 0.0014	-0.3047	 0.3356	 0.0312	-0.3963	 0.3452	-0.0515	58.6417	99.8908	
    86	-0.2550	 0.2243	-0.0309	-0.3047	 0.3356	 0.0312	-0.3201	 0.3166	-0.0039	58.8175	99.8893	
    87	-0.2958	 0.2654	-0.0306	-0.2470	 0.3143	 0.0676	-0.3963	 0.3452	-0.0515	58.7439	99.8911	
    88	-0.1932	 0.2449	 0.0514	-0.2624	 0.4315	 0.1695	-0.2406	 0.3523	 0.1112	58.8268	99.8821	
    89	-0.1833	 0.2672	 0.0838	-0.2624	 0.4315	 0.1695	-0.3168	 0.3809	 0.0637	58.6512	99.8836	
    90	-0.2101	 0.2511	 0.0408	-0.2581	 0.3779	 0.1201	-0.2406	 0.3523	 0.1112	58.8607	99.8889	
    91	-0.1932	 0.2449	 0.0514	-0.3056	 0.4475	 0.1422	-0.3168	 0.3809	 0.0637	58.6229	99.8821	
    92	-0.2101	 0.2511	 0.0408	-0.2148	 0.3619	 0.1474	-0.2406	 0.3523	 0.1112	58.8607	99.8891	
    93	-0.2101	 0.2511	 0.0408	-0.2581	 0.3779	 0.1201	-0.3168	 0.3809	 0.0637	58.6569	99.8891	
    94	-0.2440	 0.2636	 0.0194	-0.2581	 0.3779	 0.1201	-0.2406	 0.3523	 0.1112	58.9286	99.8890	
    95	-0.2609	 0.2699	 0.0087	-0.3489	 0.4635	 0.1149	-0.4565	 0.4333	-0.0235	58.3843	99.8823	
    96	-0.2450	 0.2466	 0.0014	-0.3591	 0.4152	 0.0564	-0.3168	 0.3809	 0.0637	58.6947	99.8878	
    97	-0.3117	 0.2886	-0.0233	-0.3591	 0.4152	 0.0564	-0.4565	 0.4333	-0.0235	58.4866	99.8892	
    98	-0.3117	 0.2886	-0.0233	-0.4066	 0.4848	 0.0785	-0.3168	 0.3809	 0.0637	58.8607	99.8818	
    99	-0.2410	 0.3146	 0.0734	-0.3167	 0.5111	 0.1947	-0.1772	 0.3285	 0.1509	59.1886	99.8764	
   100	-0.2071	 0.3021	 0.0947	-0.3600	 0.5271	 0.1674	-0.3068	 0.4492	 0.1420	58.5984	99.8825	
   101	-0.2171	 0.2797	 0.0624	-0.3056	 0.4475	 0.1422	-0.1772	 0.3285	 0.1509	59.0925	99.8830	
   102	-0.2410	 0.3146	 0.0734	-0.3600	 0.5271	 0.1674	-0.2406	 0.3523	 0.1112	59.0194	99.8764	
   103	-0.2340	 0.2860	 0.0517	-0.3489	 0.4635	 0.1149	-0.2406	 0.3523	 0.1112	58.9570	99.8830	
   104	-0.2918	 0.3333	 0.0413	-0.3489	 0.4635	 0.1149	-0.3803	 0.4047	 0.0240	58.7477	99.8849	
   105	-0.2679	 0.2985	 0.0304	-0.4066	 0.4848	 0.0785	-0.3803	 0.4047	 0.0240	58.6512	99.8832	
   106	-0.3087	 0.3396	 0.0306	-0.4066	 0.4848	 0.0785	-0.3803	 0.4047	 0.0240	58.7817	99.8847	
   107	-0.3187	 0.3172	-0.0017	-0.4499	 0.5008	 0.0512	-0.3803	 0.4047	 0.0240	58.7533	99.8831	
   108	-0.3117	 0.2886	-0.0233	-0.4499	 0.5008	 0.0512	-0.4565	 0.4333	-0.0235	58.4866	99.8820	
   109	-0.3695	 0.3360	-0.0337	-0.4499	 0.5008	 0.0512	-0.3201	 0.3166	-0.0039	59.1763	99.8777	
   110	-0.2410	 0.3146	 0.0734	-0.3600	 0.5271	 0.1674	-0.2406	 0.3523	 0.1112	59.0194	99.8764	
   111	-0.2410	 0.3146	 0.0734	-0.3600	 0.5271	 0.1674	-0.1772	 0.3285	 0.1509	59.1886	99.8762	
   112	-0.2649	 0.3494	 0.0843	-0.3600	 0.5271	 0.1674	-0.3068	 0.4492	 0.1420	58.7626	99.8839	
   113	-0.2818	 0.3557	 0.0736	-0.3600	 0.5271	 0.1674	-0.3830	 0.4778	 0.0944	58.5927	99.8842	
   114	-0.2579	 0.3208	 0.0627	-0.3600	 0.5271	 0.1674	-0.3068	 0.4492	 0.1420	58.7004	99.8826	
   115	-0.2818	 0.3557	 0.0736	-0.4033	 0.5431	 0.1401	-0.3068	 0.4492	 0.1420	58.7966	99.8837	
   116	-0.3157	 0.3682	 0.0523	-0.4033	 0.5431	 0.1401	-0.3068	 0.4492	 0.1420	58.8644	99.8838	
   117	-0.3565	 0.4093	 0.0526	-0.4610	 0.5644	 0.1037	-0.3068	 0.4492	 0.1420	58.9945	99.8849	
   118	-0.3595	 0.3583	-0.0014	-0.4610	 0.5644	 0.1037	-0.3803	 0.4047	 0.0240	58.8836	99.8766	
   119	-0.3595	 0.3583	-0.0014	-0.5042	 0.5804	 0.0764	-0.3830	 0.4778	 0.0944	58.7004	99.8822	
   120	-0.3834	 0.3932	 0.0096	-0.5475	 0.5963	 0.0491	-0.3168	 0.3809	 0.0637	59.1495	99.8772	
   121	-0.3565	 0.4093	 0.0526	-0.4033	 0.5431	 0.1401	-0.3068	 0.4492	 0.1420	58.9945	99.8852	
   122	-0.2788	 0.4066	 0.1276	-0.4143	 0.6067	 0.1926	-0.1672	 0.3968	 0.2292	59.2597	99.8779	
   123	-0.3296	 0.4254	 0.0956	-0.3710	 0.5907	 0.2199	-0.2433	 0.4254	 0.1816	59.1583	99.8787	
   124	-0.3296	 0.4254	 0.0956	-0.3600	 0.5271	 0.1674	-0.4432	 0.5659	 0.1223	58.4642	99.8923	
   125	-0.2888	 0.3843	 0.0953	-0.3600	 0.5271	 0.1674	-0.2433	 0.4254	 0.1816	59.0283	99.8851	
   126	-0.3057	 0.3905	 0.0846	-0.4576	 0.6226	 0.1653	-0.3035	 0.5134	 0.2095	58.7418	99.8822	
   127	-0.3874	 0.4727	 0.0852	-0.4143	 0.6067	 0.1926	-0.2433	 0.4254	 0.1816	59.3220	99.8799	
   128	-0.3535	 0.4602	 0.1065	-0.4576	 0.6226	 0.1653	-0.3068	 0.4492	 0.1420	59.0853	99.8798	
   129	-0.3804	 0.4441	 0.0635	-0.4576	 0.6226	 0.1653	-0.3830	 0.4778	 0.0944	58.8873	99.8787	
   130	-0.3804	 0.4441	 0.0635	-0.5153	 0.6439	 0.1289	-0.2433	 0.4254	 0.1816	59.2597	99.8778	
   131	-0.4143	 0.4566	 0.0422	-0.5153	 0.6439	 0.1289	-0.3830	 0.4778	 0.0944	58.9552	99.8785	
   132	-0.4312	 0.4629	 0.0315	-0.5153	 0.6439	 0.1289	-0.4465	 0.5016	 0.0547	58.8194	99.8787	
   133	-0.3635	 0.4379	 0.0742	-0.4686	 0.6862	 0.2179	-0.5066	 0.5897	 0.0827	58.3620	99.8764	
   134	-0.3396	 0.4030	 0.0632	-0.4143	 0.6067	 0.1926	-0.4465	 0.5016	 0.0547	58.5869	99.8776	
   135	-0.3565	 0.4093	 0.0526	-0.4576	 0.6226	 0.1653	-0.3068	 0.4492	 0.1420	58.9945	99.8771	
   136	-0.3565	 0.4093	 0.0526	-0.5119	 0.7022	 0.1906	-0.4465	 0.5016	 0.0547	58.6210	99.8690	
   137	-0.3904	 0.4218	 0.0312	-0.5153	 0.6439	 0.1289	-0.4465	 0.5016	 0.0547	58.6890	99.8773	
   138	-0.3804	 0.4441	 0.0635	-0.5119	 0.7022	 0.1906	-0.4432	 0.5659	 0.1223	58.5663	99.8761	
   139	-0.3366	 0.4540	 0.1172	-0.4797	 0.7498	 0.2704	-0.3670	 0.5373	 0.1699	58.7306	99.8691	
   140	-0.2987	 0.5094	 0.2105	-0.4364	 0.7338	 0.2977	-0.4271	 0.6254	 0.1978	58.4623	99.8787	
   141	-0.3495	 0.5282	 0.1784	-0.4364	 0.7338	 0.2977	-0.3637	 0.6015	 0.2375	58.7343	99.8786	
   142	-0.3665	 0.5344	 0.1678	-0.5230	 0.7658	 0.2431	-0.3670	 0.5373	 0.1699	58.9194	99.8727	
   143	-0.4043	 0.4790	 0.0745	-0.5696	 0.7235	 0.1542	-0.4432	 0.5659	 0.1223	58.6626	99.8772	
   144	-0.4043	 0.4790	 0.0745	-0.4686	 0.6862	 0.2179	-0.4432	 0.5659	 0.1223	58.6626	99.8777	
   145	-0.3505	 0.5112	 0.1605	-0.4908	 0.8134	 0.3229	-0.2742	 0.7055	 0.4309	58.6083	99.8804	
   146	-0.4073	 0.4280	 0.0205	-0.5586	 0.6599	 0.1016	-0.4271	 0.6254	 0.1978	58.4555	99.8875	
   147	-0.4641	 0.3449	-0.1194	-0.4033	 0.5431	 0.1401	-0.4534	 1.1199	 0.6661	57.1443	99.9244	
   148	 0.5647	-0.1044	 0.4601	-0.6783	 0.8826	 0.2046	 2.0871	-0.1810	 1.9058	62.4197	99.8160	
   149	 1.3384	-1.0669	 0.2713	 0.3363	 1.4823	 1.8189	 0.2976	 1.1262	 1.4234	53.5335	99.7200	
   150	 0.1017	 0.7000	 0.8014	-0.0598	 1.1302	 1.0707	 0.2343	 0.6522	 0.8860	59.3813	99.8443	
   151	 0.0180	 0.6007	 0.6185	-0.1387	 1.0404	 0.9020	 0.0813	 0.5720	 0.6529	59.2364	99.8418	
   152	-0.0258	 0.5909	 0.5648	-0.1964	 1.0617	 0.8656	 0.0946	 0.7046	 0.7988	58.9756	99.8531	
   153	-0.0318	 0.4890	 0.4569	-0.1743	 0.9345	 0.7605	-0.0711	 0.6292	 0.5578	58.6890	99.8525	
   154	-0.2081	 0.4326	 0.2243	-0.1854	 0.9981	 0.8130	 0.0051	 0.6006	 0.6054	59.0182	99.8358	
   155	-0.1573	 0.4138	 0.2563	-0.1387	 1.0404	 0.9020	 0.1608	 0.6077	 0.7681	59.1698	99.8328	
   156	 0.1405	 0.4774	 0.6177	 0.1243	 1.1292	 1.2538	 0.5262	 0.5425	 1.0684	59.6883	99.8206	
   157	 0.2720	 0.5069	 0.7787	 0.2253	 1.0919	 1.3175	 0.4501	 0.5711	 1.0208	59.3732	99.8256	
   158	 0.2819	 0.5293	 0.8110	 0.1820	 1.1079	 1.2902	 0.3866	 0.5950	 0.9812	59.2339	99.8273	
   159	 0.3397	 0.4819	 0.8214	 0.1854	 1.0397	 1.2254	 0.3606	 0.4672	 0.8274	59.3375	99.8224	
   160	 0.2759	 0.4274	 0.7031	 0.0955	 1.0134	 1.1092	 0.3573	 0.4029	 0.7598	59.4704	99.8205	
   161	 0.2152	 0.4238	 0.6388	 0.1066	 0.9498	 1.0567	 0.3473	 0.3346	 0.6815	59.6924	99.8212	
   162	 0.2182	 0.4747	 0.6927	 0.0522	 1.0294	 1.0819	 0.1415	 0.4840	 0.6250	59.0604	99.8221	
   163	 0.2042	 0.5319	 0.7360	 0.0488	 0.9711	 1.0203	 0.1415	 0.4840	 0.6250	59.1851	99.8353	
   164	 0.2072	 0.5829	 0.7899	 0.1532	 0.9921	 1.1456	-0.4138	 0.7579	 0.3437	57.6202	99.8334	
   165	-0.1673	 0.5390	 0.3715	-0.2378	 0.6010	 0.3635	-0.6822	 0.3216	-0.3611	58.6352	99.8557	
   166	-0.5219	 0.0973	-0.4249	-0.7986	 0.4585	-0.3398	-1.0758	 0.4693	-0.6069	57.2159	99.8747	
   167	-3.3537	 4.7437	 1.3899	-0.8870	 0.8407	-0.0460	 5.8081	-5.1869	 0.6208	93.5549	99.6370	
   168	-2.0027	 1.6852	-0.3176	-2.4570	-0.8256	-3.2823	-2.0149	-0.2982	-2.3135	62.5349	99.9436	
   169	-0.8138	-0.0119	-0.8259	-1.0553	 1.4978	 0.4428	-1.7591	 1.8983	 0.1388	52.7741	99.8263	
   170	-1.0784	 1.3700	 0.2914	-0.4785	 1.9170	 1.4388	-0.7208	 1.5805	 0.8594	58.2474	99.8091	
   171	-0.9114	 0.0936	-0.8180	-0.6535	 0.2934	-0.3598	-0.3324	-1.0477	-1.3805	62.8101	99.7479	
   172	 0.3745	 0.3389	 0.7132	 0.3205	 0.5733	 0.8941	-0.2315	-0.8498	-1.0817	61.2975	99.6911	
   173	 0.5280	 1.0371	 1.5649	 0.6757	 1.4908	 2.1668	 0.9704	 0.8736	 1.8436	60.1781	99.8233	
   174	 0.7172	 0.5768	 1.2938	 0.6538	 1.2386	 1.8927	 0.6284	 0.6417	 1.2698	59.0605	99.8025	
   175	 0.6873	 0.5097	 1.1968	 0.5027	 1.1754	 1.6784	 0.6686	 0.4171	 1.0853	59.5932	99.7956	
   176	 0.8477	 0.7369	 1.5843	 0.8523	 1.2322	 2.0848	 0.9304	 0.6004	 1.5304	59.8105	99.8132	
   177	 1.0967	 0.8531	 1.9496	 0.9388	 1.3267	 2.2658	 1.0928	 0.6115	 1.7039	59.9574	99.8133	
   178	 0.6246	 0.7672	 1.3916	 0.3729	 1.0969	 1.4701	 0.3766	 0.5267	 0.9029	59.3790	99.8332	
   179	 0.1235	 0.3361	 0.4595	 0.1161	 0.3513	 0.4677	-0.5078	 0.0661	-0.4421	58.8084	99.8490	
   180	 0.0776	-0.0027	 0.0748	-0.1724	 0.4578	 0.2857	-0.1397	 0.0524	-0.0877	58.9205	99.8410	
   181	 0.2739	 0.0984	 0.3721	 0.0262	 0.3250	 0.3515	-0.1557	-0.0071	-0.1632	58.9679	99.8546	
   182	 0.0090	 0.1529	 0.1616	-0.2894	 0.2184	-0.0707	-0.4543	-0.1505	-0.6051	59.2505	99.8618	
   183	-0.4224	-0.4167	-0.8393	-0.6854	-0.5129	-1.1980	-1.7871	-0.0234	-1.8110	56.0065	99.9108	
   184	-1.2690	-0.2516	-1.5208	-1.2956	-0.2356	-1.5309	-1.2379	-0.2886	-1.5269	59.1411	99.8915	
   185	-0.8618	-0.9746	-1.8366	-1.2510	-1.3750	-2.6258	-1.5615	 0.4617	-1.1002	54.8540	99.9724	
   186	-0.3934	 0.3708	-0.0227	 0.2724	 0.1225	 0.3952	-0.4900	 0.7865	 0.2961	57.8303	99.9236	
   187	 0.2899	 0.3702	 0.6598	 0.7043	 0.0746	 0.7792	-0.1505	 0.5936	 0.4426	57.9879	99.9180	
   188	 0.4024	 0.0770	 0.4792	 0.3147	 0.2185	 0.5335	-0.2158	 0.0810	-0.1353	58.4306	99.8617	
   189	 0.3177	 0.1083	 0.4258	 0.2926	 0.3456	 0.6385	 0.0795	 0.0356	 0.1147	59.2378	99.8501	
   190	 0.3277	 0.1306	 0.4581	 0.2604	 0.2980	 0.5587	 0.0635	-0.0239	 0.0392	59.3855	99.8547	
   191	 0.3416	 0.0734	 0.4148	 0.2027	 0.3193	 0.5223	-0.0602	 0.0880	 0.0275	58.7652	99.8578	
   192	 0.2121	 0.0778	 0.2898	 0.2180	 0.2021	 0.4204	-0.0000	-0.0000	-0.0005	59.2683	99.8659	
   193	 0.1314	 0.0295	 0.1608	 0.0814	 0.1335	 0.2153	-0.4223	 0.0930	-0.3297	58.3065	99.8727	
   194	 0.0328	-0.0295	 0.0031	 0.0390	 0.0376	 0.0770	-0.3080	-0.0744	-0.3828	58.9447	99.8725	
   195	-0.0379	-0.0554	-0.0935	-0.1010	 0.0373	-0.0634	-0.3080	-0.0744	-0.3828	58.9899	99.8771	
   196	-0.0110	-0.0393	-0.0505	 0.0390	 0.0376	 0.0770	-0.1650	-0.0625	-0.2280	59.2072	99.8769	
   197	 0.1015	-0.0375	 0.0638	 0.1247	 0.1176	 0.2426	-0.0000	-0.0000	-0.0005	59.1979	99.8744	
   198	 0.1314	 0.0295	 0.1608	 0.2180	 0.2021	 0.4204	-0.0000	-0.0000	-0.0005	59.2840	99.8613	
   199	 0.1753	 0.0394	 0.2144	 0.2613	 0.1861	 0.4477	 0.1429	 0.0118	 0.1543	59.4654	99.8689	
   200	 0.2669	 0.1270	 0.3937	 0.3470	 0.2660	 0.6133	 0.1623	 0.1355	 0.2974	59.2388	99.8713	
   201	 0.2938	 0.1431	 0.4367	 0.3503	 0.3243	 0.6749	 0.3621	-0.0050	 0.3567	59.9263	99.8581	
   202	 0.3546	 0.1467	 0.5011	 0.3393	 0.3879	 0.7275	 0.2385	 0.1069	 0.3450	59.3639	99.8567	
   203	 0.3815	 0.1628	 0.5441	 0.3970	 0.3666	 0.7639	 0.3019	 0.0831	 0.3846	59.5280	99.8583	
   204	 0.3745	 0.1914	 0.5657	 0.3427	 0.4461	 0.7891	 0.4576	 0.0902	 0.5474	59.8428	99.8569	
   205	 0.5309	 0.2031	 0.7337	 0.5225	 0.4987	 1.0215	 0.6834	 0.0775	 0.7605	60.0821	99.8497	
   206	 0.6285	 0.2451	 0.8734	 0.7135	 0.4877	 1.2015	 0.7629	 0.1131	 0.8756	60.0836	99.8515	
   207	 0.6554	 0.2612	 0.9164	 0.7135	 0.4877	 1.2015	 0.7629	 0.1131	 0.8756	60.0791	99.8530	
   208	 0.6584	 0.3122	 0.9704	 0.7601	 0.5300	 1.2904	 0.9914	 0.0273	 1.0183	60.7706	99.8469	
   209	 0.7500	 0.2523	 1.0021	 0.7601	 0.5300	 1.2904	 1.0074	 0.0868	 1.0938	60.4230	99.8516	
   210	 0.7769	 0.2684	 1.0451	 0.7635	 0.5882	 1.3520	 1.0709	 0.0630	 1.1335	60.5850	99.8439	
   211	 0.7530	 0.3033	 1.0561	 0.7635	 0.5882	 1.3520	 1.1471	 0.0344	 1.1811	60.8793	99.8453	
   212	 0.7799	 0.3194	 1.0991	 0.7524	 0.6518	 1.4045	 1.0709	 0.0630	 1.1335	60.6764	99.8376	
   213	 0.7799	 0.3194	 1.0991	 0.7524	 0.6518	 1.4045	 1.0709	 0.0630	 1.1335	60.6764	99.8376	
   214	 0.7729	 0.3480	 1.1207	 0.8534	 0.6145	 1.4682	 1.0809	 0.1313	 1.2118	60.5877	99.8464	
   215	 0.9482	 0.3874	 1.3354	 0.9934	 0.7413	 1.7350	 1.3414	 0.1645	 1.5055	60.7971	99.8374	
   216	 1.0528	 0.4008	 1.4534	 1.0909	 0.7722	 1.8635	 1.4938	 0.1073	 1.6007	61.0862	99.8298	
   217	 1.0289	 0.4357	 1.4644	 1.0909	 0.7722	 1.8635	 1.3514	 0.2328	 1.5838	60.6346	99.8387	
   218	 1.0628	 0.4232	 1.4857	 1.1342	 0.7563	 1.8908	 1.5038	 0.1756	 1.6790	60.9646	99.8387	
   219	 1.0897	 0.4393	 1.5287	 1.1376	 0.8145	 1.9524	 1.4376	 0.2725	 1.7097	60.6124	99.8380	
   220	 1.0658	 0.4741	 1.5397	 1.1376	 0.8145	 1.9524	 1.5800	 0.1470	 1.7265	61.2531	99.8323	
   221	 1.0897	 0.4393	 1.5287	 1.1376	 0.8145	 1.9524	 1.5038	 0.1756	 1.6790	60.9607	99.8307	
   222	 1.1235	 0.4268	 1.5501	 1.1919	 0.7349	 1.9272	 1.5800	 0.1470	 1.7265	61.0924	99.8403	
   223	 1.0727	 0.4455	 1.5180	 1.1342	 0.7563	 1.8908	 1.5038	 0.1756	 1.6790	60.9937	99.8403	
   224	 1.0488	 0.4804	 1.5290	 1.1919	 0.7349	 1.9272	 1.5038	 0.1756	 1.6790	61.0887	99.8420	
   225	 1.2142	 0.4974	 1.7114	 1.3429	 0.7982	 2.1414	 1.7583	 0.2176	 1.9755	61.2346	99.8414	
   226	 1.3257	 0.4822	 1.8078	 1.3862	 0.7822	 2.1687	 1.9233	 0.1556	 2.0786	61.4927	99.8427	
   227	 1.2919	 0.4947	 1.7864	 1.3862	 0.7822	 2.1687	 1.9233	 0.1556	 2.0786	61.5580	99.8427	
   228	 1.3018	 0.5171	 1.8187	 1.4439	 0.7609	 2.2051	 1.9233	 0.1556	 2.0786	61.5872	99.8445	
   229	 1.3357	 0.5046	 1.8401	 1.3828	 0.8504	 2.2335	 1.9233	 0.1556	 2.0786	61.5220	99.8337	
   230	 1.2919	 0.4947	 1.7864	 1.3862	 0.7822	 2.1687	 1.8345	 0.1890	 2.0231	61.3293	99.8429	
   231	 1.2919	 0.4947	 1.7864	 1.3862	 0.7822	 2.1687	 1.8185	 0.1295	 1.9476	61.4486	99.8365	
   232	 1.2749	 0.5010	 1.7757	 1.3862	 0.7822	 2.1687	 1.7583	 0.2176	 1.9755	61.1655	99.8430	
   233	 1.2650	 0.4786	 1.7434	 1.2852	 0.8195	 2.1050	 1.8946	 0.1009	 1.9951	61.6481	99.8344	
   234	 1.2381	 0.4626	 1.7004	 1.2963	 0.7559	 2.0525	 1.7423	 0.1581	 1.9000	61.2590	99.8426	
   235	 1.2381	 0.4626	 1.7004	 1.3396	 0.7399	 2.0798	 1.7583	 0.2176	 1.9755	61.1400	99.8490	
   236	 1.3865	 0.4858	 1.8721	 1.4405	 0.8291	 2.2699	 1.9995	 0.1270	 2.1261	61.6199	99.8337	
   237	 1.4711	 0.4546	 1.9255	 1.4838	 0.8131	 2.2972	 1.9233	 0.1556	 2.0786	61.2602	99.8338	
   238	 1.4104	 0.4510	 1.8612	 1.5016	 0.7396	 2.2415	 1.8345	 0.1890	 2.0231	61.0998	99.8430	
   239	 1.4034	 0.4796	 1.8828	 1.4838	 0.8131	 2.2972	 2.0757	 0.0984	 2.1737	61.7827	99.8336	
   240	 1.4034	 0.4796	 1.8828	 1.4838	 0.8131	 2.2972	 1.9995	 0.1270	 2.1261	61.5872	99.8338	
   241	 1.3765	 0.4635	 1.8398	 1.5016	 0.7396	 2.2415	 1.8345	 0.1890	 2.0231	61.1655	99.8430	
   242	 1.3835	 0.4349	 1.8182	 1.4406	 0.7026	 2.1435	 1.8345	 0.1890	 2.0231	61.1035	99.8505	
   243	 1.3227	 0.4313	 1.7538	 1.3973	 0.7186	 2.1162	 1.8946	 0.1009	 1.9951	61.4882	99.8426	
   244	 1.2958	 0.4152	 1.7108	 1.4516	 0.6391	 2.0910	 1.8185	 0.1295	 1.9476	61.2954	99.8505	
   245	 1.2620	 0.4277	 1.6895	 1.3939	 0.6604	 2.0546	 1.8085	 0.0612	 1.8693	61.5118	99.8435	
   246	 1.2958	 0.4152	 1.7108	 1.3973	 0.7186	 2.1162	 1.9835	 0.0675	 2.0506	61.7198	99.8408	
   247	 1.3835	 0.4349	 1.8182	 1.5016	 0.7396	 2.2415	 1.9835	 0.0675	 2.0506	61.6481	99.8348	
   248	 1.3735	 0.4125	 1.7858	 1.4983	 0.6813	 2.1799	 1.9835	 0.0675	 2.0506	61.6188	99.8427	
   249	 1.3865	 0.4858	 1.8721	 1.5016	 0.7396	 2.2415	 2.0757	 0.0984	 2.1737	61.8152	99.8442	
   250	 1.4911	 0.4993	 1.9901	 1.5415	 0.7918	 2.3336	 2.0757	 0.0984	 2.1737	61.7112	99.8369	
   251	 1.4711	 0.4546	 1.9255	 1.5016	 0.7396	 2.2415	 2.0757	 0.0984	 2.1737	61.6525	99.8441	
   252	 1.4373	 0.4671	 1.9042	 1.4405	 0.8291	 2.2699	 2.0757	 0.0984	 2.1737	61.7176	99.8334	
   253	 1.4881	 0.4483	 1.9362	 1.5415	 0.7918	 2.3336	 1.9333	 0.2239	 2.1569	61.0769	99.8411	
   254	 1.4642	 0.4832	 1.9471	 1.5415	 0.7918	 2.3336	 2.0095	 0.1953	 2.2044	61.3678	99.8426	
   255	 1.4233	 0.5243	 1.9474	 1.4295	 0.8927	 2.3224	 1.9233	 0.1556	 2.0786	61.4498	99.8273	
   256	 1.4134	 0.5019	 1.9151	 1.4405	 0.8291	 2.2699	 1.8946	 0.1009	 1.9951	61.5073	99.8288	
   257	 1.5010	 0.5216	 2.0225	 1.5882	 0.8341	 2.4225	 2.0857	 0.1667	 2.2520	61.5895	99.8363	
   258	 1.6126	 0.5065	 2.1188	 1.6492	 0.8710	 2.5205	 2.1845	 0.2017	 2.3858	61.5006	99.8355	
   259	 1.5757	 0.4680	 2.0435	 1.6459	 0.8128	 2.4589	 2.0757	 0.0984	 2.1737	61.5479	99.8274	
   260	 1.4851	 0.3974	 1.8822	 1.5560	 0.6600	 2.2163	 2.0497	-0.0294	 2.0199	61.7995	99.8371	
   261	 1.3944	 0.3267	 1.7209	 1.5128	 0.5495	 2.0626	 1.9348	-0.1238	 1.8106	61.8227	99.8373	
   262	 1.3606	 0.3392	 1.6996	 1.4550	 0.5709	 2.0262	 1.7825	-0.0666	 1.7155	61.4949	99.8373	
   263	 1.3675	 0.3106	 1.6779	 1.4661	 0.5073	 1.9737	 1.9188	-0.1833	 1.7351	61.9463	99.8386	
   264	 1.3237	 0.3008	 1.6243	 1.4627	 0.4490	 1.9121	 1.9088	-0.2516	 1.6568	62.1345	99.8394	
   265	 1.2191	 0.2873	 1.5062	 1.3694	 0.3645	 1.7342	 1.7564	-0.1944	 1.5617	61.8460	99.8548	
   266	 1.2968	 0.2847	 1.5813	 1.3617	 0.4863	 1.8484	 1.9850	-0.2802	 1.7044	62.3331	99.8373	
   267	 1.2400	 0.2015	 1.4413	 1.3694	 0.3645	 1.7342	 1.7564	-0.1944	 1.5617	61.6590	99.8502	
   268	 1.2440	 0.1220	 1.3658	 1.3771	 0.2426	 1.6201	 1.7244	-0.3134	 1.4107	61.7455	99.8513	
   269	 0.8734	-0.2965	 0.5767	 0.9624	-0.3033	 0.6594	 0.9489	-0.5462	 0.4023	60.6982	99.8750	
   270	 0.4112	-0.6551	-0.2441	 0.6859	-0.7516	-0.0653	 0.6028	-0.7307	-0.1283	60.4820	99.8953	
   271	 0.4142	-0.7516	-0.3377	 0.6478	-0.9011	-0.2530	 0.3617	-0.7646	-0.4033	59.9657	99.9018	
   272	 0.4510	-0.8607	-0.4099	 0.5986	-0.9871	-0.3881	 0.2635	-0.9112	-0.6480	59.9051	99.8959	
   273	 0.4470	-0.9286	-0.4818	 0.5596	-1.0247	-0.4648	 0.1145	-0.9142	-0.8000	59.5288	99.8944	
   274	 0.4620	-0.8214	-0.3596	 0.5986	-0.9871	-0.3881	 0.4125	-0.9081	-0.4960	60.2161	99.9025	
   275	 0.6562	-0.6068	 0.0493	 0.8260	-0.7512	 0.0750	 0.6028	-0.7307	-0.1283	60.2573	99.8957	
   276	 0.7548	-0.5477	 0.2069	 0.9693	-0.6926	 0.2770	 0.8313	-0.6920	 0.1389	60.5377	99.8960	
   277	 0.7040	-0.5290	 0.1749	 0.9260	-0.6766	 0.2497	 0.6917	-0.6396	 0.0517	60.2691	99.8961	
   278	 0.5716	-0.4280	 0.1434	 0.9089	-0.3356	 0.5736	 0.9930	-0.6938	 0.2988	61.2746	99.8567	
   279	 0.5437	-0.6086	-0.0651	 0.6375	-0.5701	 0.0677	 0.5520	-0.5872	-0.0356	59.9569	99.8887	
   280	 0.8794	-0.3421	 0.5371	 1.1109	-0.4102	 0.7010	 0.9328	-0.6057	 0.3268	60.7249	99.8742	
   281	 0.8525	-0.3582	 0.4941	 1.1067	-0.3566	 0.7504	 1.0885	-0.5986	 0.4895	60.9758	99.8711	
   282	 0.9242	-0.3153	 0.6087	 1.1058	-0.2447	 0.8614	 1.2408	-0.6558	 0.5846	61.3645	99.8586	
   283	 0.9511	-0.2992	 0.6517	 1.1491	-0.2607	 0.8887	 1.1647	-0.6272	 0.5371	61.1616	99.8601	
   284	 0.9680	-0.3054	 0.6624	 1.1058	-0.2447	 0.8614	 1.3010	-0.7439	 0.5567	61.6479	99.8539	
   285	 0.9411	-0.3215	 0.6194	 1.0956	-0.2930	 0.8029	 1.1647	-0.6272	 0.5371	61.1321	99.8664	
   286	 0.9919	-0.3403	 0.6514	 1.1966	-0.3303	 0.8666	 1.0885	-0.5986	 0.4895	60.8320	99.8663	
   287	 1.0019	-0.3179	 0.6838	 1.1533	-0.3143	 0.8393	 1.0885	-0.5986	 0.4895	60.8615	99.8679	
   288	 0.9949	-0.2893	 0.7054	 1.1966	-0.3303	 0.8666	 1.1647	-0.6272	 0.5371	61.1246	99.8694	
   289	 1.0049	-0.2670	 0.7377	 1.1524	-0.2024	 0.9503	 1.2408	-0.6558	 0.5846	61.3539	99.8541	
   290	 1.1543	-0.2267	 0.9274	 1.2958	-0.1438	 1.1523	 1.4185	-0.5981	 0.8201	61.3965	99.8546	
   291	 1.1981	-0.2168	 0.9811	 1.4011	-0.2347	 1.1666	 1.4727	-0.6773	 0.7949	61.6479	99.8585	
   292	 1.2688	-0.1909	 1.0777	 1.4434	-0.1388	 1.3049	 1.6344	-0.6791	 0.9549	61.8825	99.8501	
   293	 1.2688	-0.1909	 1.0777	 1.3857	-0.1175	 1.2685	 1.5582	-0.6505	 0.9073	61.6843	99.8501	
   294	 1.2927	-0.2257	 1.0668	 1.3857	-0.1175	 1.2685	 1.4727	-0.6773	 0.7949	61.5118	99.8426	
   295	 1.2350	-0.1784	 1.0564	 1.3857	-0.1175	 1.2685	 1.4947	-0.6267	 0.8676	61.5850	99.8500	
   296	 1.2350	-0.1784	 1.0564	 1.3857	-0.1175	 1.2685	 1.4185	-0.5981	 0.8201	61.3859	99.8500	
   297	 1.2449	-0.1560	 1.0887	 1.3314	-0.0380	 1.2937	 1.4947	-0.6267	 0.8676	61.6147	99.8422	
   298	 1.2718	-0.1399	 1.1317	 1.4434	-0.1388	 1.3049	 1.5742	-0.5910	 0.9828	61.6556	99.8594	
   299	 1.2887	-0.1462	 1.1424	 1.4468	-0.0806	 1.3665	 1.6344	-0.6791	 0.9549	61.9422	99.8438	
   300	 1.2619	-0.1623	 1.0994	 1.4434	-0.1388	 1.3049	 1.4947	-0.6267	 0.8676	61.5816	99.8516	
   301	 1.3734	-0.1774	 1.1958	 1.5478	-0.1179	 1.4302	 1.5742	-0.5910	 0.9828	61.4570	99.8502	
   302	 1.4103	-0.1390	 1.2711	 1.5478	-0.1179	 1.4302	 1.7867	-0.7363	 1.0500	62.2000	99.8470	
   303	 1.3565	-0.1712	 1.1851	 1.4901	-0.0966	 1.3938	 1.5582	-0.6505	 0.9073	61.6114	99.8437	
   304	 1.2987	-0.1238	 1.1747	 1.5012	-0.1601	 1.3413	 1.6344	-0.6791	 0.9549	61.9722	99.8548	
   305	 1.3565	-0.1712	 1.1851	 1.5012	-0.1601	 1.3413	 1.6344	-0.6791	 0.9549	61.8101	99.8532	
   306	 1.2887	-0.1462	 1.1424	 1.5012	-0.1601	 1.3413	 1.6344	-0.6791	 0.9549	61.9422	99.8532	
   307	 1.2957	-0.1748	 1.1207	 1.4978	-0.2184	 1.2797	 1.5582	-0.6505	 0.9073	61.6810	99.8608	
   308	 1.2957	-0.1748	 1.1207	 1.4434	-0.1388	 1.3049	 1.6344	-0.6791	 0.9549	61.8793	99.8516	
   309	 1.2957	-0.1748	 1.1207	 1.4434	-0.1388	 1.3049	 1.6344	-0.6791	 0.9549	61.8793	99.8516	
   310	 1.2858	-0.1971	 1.0884	 1.3968	-0.1811	 1.2160	 1.5488	-0.7059	 0.8425	61.7738	99.8536	
   311	 1.3734	-0.1774	 1.1958	 1.5444	-0.1761	 1.3686	 1.6344	-0.6791	 0.9549	61.7770	99.8532	
   312	 1.4342	-0.1738	 1.2601	 1.6021	-0.1974	 1.4050	 1.7867	-0.7363	 1.0500	62.1041	99.8548	
   313	 1.4103	-0.1390	 1.2711	 1.5911	-0.1339	 1.4575	 1.7265	-0.6482	 1.0779	61.8804	99.8534	
   314	 1.4272	-0.1452	 1.2817	 1.6488	-0.1552	 1.4939	 1.7265	-0.6482	 1.0779	61.8474	99.8534	
   315	 1.4451	-0.1345	 1.3104	 1.5945	-0.0756	 1.5192	 1.8027	-0.6768	 1.1255	62.0432	99.8451	
   316	 1.4820	-0.0961	 1.3857	 1.6411	-0.0333	 1.6081	 1.8187	-0.6173	 1.2010	61.9484	99.8453	
   317	 1.5188	-0.0576	 1.4610	 1.6878	 0.0089	 1.6970	 1.8347	-0.5578	 1.2765	61.8537	99.8456	
   318	 1.5188	-0.0576	 1.4610	 1.6767	 0.0725	 1.7495	 1.8347	-0.5578	 1.2765	61.8537	99.8359	
   319	 1.5627	-0.0478	 1.5147	 1.7311	-0.0070	 1.7243	 1.7586	-0.5292	 1.2289	61.6192	99.8470	
   320	 1.6065	-0.0379	 1.5684	 1.7311	-0.0070	 1.7243	 1.7586	-0.5292	 1.2289	61.5827	99.8487	
   321	 1.6941	-0.0182	 1.6757	 1.7921	 0.0299	 1.8223	 1.9429	-0.4674	 1.4751	61.6644	99.8553	
   322	 1.8455	 0.0560	 1.9014	 1.9431	 0.0931	 2.0366	 2.0953	-0.5246	 1.5703	62.0113	99.8446	
   323	 1.8824	 0.0945	 1.9767	 1.9898	 0.1354	 2.1255	 2.2576	-0.5135	 1.7437	62.2790	99.8455	
   324	 1.9262	 0.1043	 2.0304	 2.0365	 0.1777	 2.2144	 2.2736	-0.4540	 1.8192	62.1218	99.8441	
   325	 1.9023	 0.1392	 2.0413	 2.0365	 0.1777	 2.2144	 2.3625	-0.4874	 1.8747	62.4463	99.8456	
   326	 1.9462	 0.1490	 2.0950	 2.0398	 0.2359	 2.2761	 2.5148	-0.5446	 1.9699	62.8023	99.8376	
   327	 2.0368	 0.2197	 2.2563	 2.1476	 0.3151	 2.4630	 2.6197	-0.5185	 2.1009	62.9307	99.8315	
   328	 2.1245	 0.2394	 2.3636	 2.1874	 0.3674	 2.5551	 2.5535	-0.4216	 2.1316	62.5116	99.8312	
   329	 2.1713	 0.3002	 2.4712	 2.3529	 0.4253	 2.7784	 2.7059	-0.4788	 2.2267	62.9601	99.8160	
   330	 2.2589	 0.3199	 2.5786	 2.3961	 0.5357	 2.9321	 2.8709	-0.5407	 2.3298	63.3126	99.7971	
   331	 2.3167	 0.2725	 2.5890	 2.5115	 0.4931	 3.0049	 3.0680	-0.4837	 2.5839	63.3278	99.8101	
   332	 2.4830	 0.1590	 2.6418	 2.7823	 0.3336	 3.1162	 3.3219	-0.5790	 2.7425	63.5562	99.8170	
   333	 2.3595	-0.0296	 2.3296	 2.5625	 0.2288	 2.7917	 3.1623	-0.7876	 2.3743	63.6121	99.8043	
   334	 2.0537	-0.2291	 1.8244	 2.3649	-0.0031	 2.3621	 2.7561	-0.6351	 2.1205	62.5751	99.8358	
   335	 2.1543	-0.1361	 2.0180	 2.3606	 0.1770	 2.5379	 2.8482	-0.6042	 2.2436	62.7002	99.8213	
   336	 2.1672	-0.0628	 2.1043	 2.3606	 0.1770	 2.5379	 2.8322	-0.6637	 2.1681	62.9436	99.8194	
   337	 2.1941	-0.0467	 2.1473	 2.3640	 0.2352	 2.5995	 2.8482	-0.6042	 2.2436	62.8197	99.8180	
   338	 2.1832	 0.0615	 2.2445	 2.4073	 0.2192	 2.6268	 2.9371	-0.6376	 2.2991	63.2627	99.8248	
   339	 2.2270	 0.0713	 2.2982	 2.2451	 0.3460	 2.5915	 2.8482	-0.6042	 2.2436	63.0023	99.8149	
   340	 2.1354	 0.1312	 2.2664	 2.2486	 0.2778	 2.5267	 2.6799	-0.6065	 2.0729	62.9601	99.8213	
   341	 2.0746	 0.1276	 2.2020	 2.1908	 0.2992	 2.4903	 2.5910	-0.5732	 2.0174	62.7999	99.8195	
   342	 2.1354	 0.1312	 2.2664	 2.1908	 0.2992	 2.4903	 2.5910	-0.5732	 2.0174	62.7323	99.8213	
   343	 1.9870	 0.1079	 2.0947	 2.0908	 0.0981	 2.1892	 2.3338	-0.5421	 1.7913	62.3718	99.8486	
   344	 1.7818	 0.0015	 1.7831	 1.8388	 0.0722	 1.9113	 2.0031	-0.5555	 1.4472	61.9113	99.8428	
   345	 1.6503	-0.0281	 1.6220	 1.7888	-0.0284	 1.7607	 2.0632	-0.6436	 1.4192	62.3381	99.8503	
   346	 1.5866	-0.0826	 1.5037	 1.6878	 0.0089	 1.6970	 1.8347	-0.5578	 1.2765	61.7217	99.8456	
   347	 1.4750	-0.0675	 1.4074	 1.7387	-0.1289	 1.6102	 1.8347	-0.5578	 1.2765	61.8898	99.8624	
   348	 1.4212	-0.0997	 1.3214	 1.6377	-0.0916	 1.5465	 1.8949	-0.6459	 1.2486	62.2144	99.8531	
   349	 1.3495	-0.1426	 1.2067	 1.5444	-0.1761	 1.3686	 1.6664	-0.5601	 1.1059	61.6303	99.8670	
   350	 1.2649	-0.1113	 1.1533	 1.5444	-0.1761	 1.3686	 1.7426	-0.5887	 1.1534	61.9925	99.8670	
   351	 1.2718	-0.1399	 1.1317	 1.5012	-0.1601	 1.3413	 1.5902	-0.5315	 1.0583	61.5346	99.8655	
   352	 1.3495	-0.1426	 1.2067	 1.5478	-0.1179	 1.4302	 1.7586	-0.5292	 1.2289	61.7072	99.8641	
   353	 1.3326	-0.1363	 1.1960	 1.5911	-0.1339	 1.4575	 1.7586	-0.5292	 1.2289	61.7401	99.8642	
   354	 1.2619	-0.1623	 1.0994	 1.5444	-0.1761	 1.3686	 1.8347	-0.5578	 1.2765	61.9760	99.8698	
   355	 1.2887	-0.1462	 1.1424	 1.4901	-0.0966	 1.3938	 1.9109	-0.5864	 1.3241	62.1691	99.8623	
   356	 1.2957	-0.1748	 1.1207	 1.5012	-0.1601	 1.3413	 1.8347	-0.5578	 1.2765	61.9105	99.8696	
   357	 1.2350	-0.1784	 1.0564	 1.4978	-0.2184	 1.2797	 1.6664	-0.5601	 1.1059	61.7061	99.8712	
   358	 1.1333	-0.2884	 0.8448	 1.3078	-0.3193	 0.9888	 1.4947	-0.6267	 0.8676	61.5050	99.8756	
   359	 0.8454	-0.6246	 0.2207	 1.0279	-0.8258	 0.2024	 0.8280	-0.7563	 0.0713	60.4299	99.9029	
   360	 0.5526	-0.8982	-0.3458	 0.7862	-1.0563	-0.2699	 0.4980	-0.8813	-0.3837	60.0348	99.9051	
   361	 0.4470	-0.9286	-0.4818	 0.7905	-1.1100	-0.3192	 0.4980	-0.8813	-0.3837	60.1144	99.9081	
   362	 0.6412	-0.8615	-0.2205	 0.9754	-0.9700	 0.0057	 0.8568	-0.9505	-0.0941	60.7759	99.8937	
   363	 0.8793	-0.7846	 0.0945	 1.2155	-0.8951	 0.3207	 0.9456	-0.8594	 0.0858	60.5419	99.8907	
   364	 0.9460	-0.8266	 0.1192	 1.2198	-0.9487	 0.2714	 0.9203	-0.9743	-0.0544	60.6188	99.8865	
   365	 1.0446	-0.9150	 0.1294	 1.2682	-1.1302	 0.1383	 0.8094	-1.1161	-0.3071	60.4867	99.8905	
   366	 1.0047	-1.2994	-0.2949	 1.2200	-1.5810	-0.3606	 0.3599	-1.4255	-1.0660	59.7969	99.8918	
   367	 0.5265	-1.9298	-1.4035	 0.7417	-2.2075	-1.4656	-0.3708	-2.0420	-2.4132	59.4815	99.8815	
   368	-0.1071	-2.5548	-2.6621	 0.1454	-2.9617	-2.8159	-1.2644	-2.6825	-3.9473	59.1446	99.8845	
   369	-0.9050	-3.1799	-4.0851	-0.5984	-3.8472	-4.4453	-2.5570	-3.2780	-5.8354	58.1589	99.8986	
   370	-1.8652	-3.7711	-5.6365	-1.4398	-4.6372	-6.0767	-3.7747	-3.8033	-7.5784	57.3978	99.9106	
   371	-2.4868	-4.0448	-6.5318	-1.9047	-4.9043	-6.8087	-4.1575	-3.9478	-8.1057	57.3945	99.9188	
   372	-2.2248	-4.0027	-6.2278	-1.6824	-4.8823	-6.5644	-3.9651	-3.9808	-7.9462	57.5569	99.9154	
   373	-2.4181	-4.2004	-6.6187	-1.9233	-5.2247	-7.1477	-4.3210	-4.3580	-8.6795	57.7454	99.9163	
   374	-3.1034	-4.5287	-7.6322	-2.4890	-5.7075	-8.1962	-5.0023	-4.7704	-9.7731	57.8522	99.9207	
   375	-3.8086	-4.7541	-8.5629	-2.9786	-5.8911	-8.8694	-5.4940	-4.7692	-10.2636	57.4641	99.9257	
   376	-3.8425	-4.7416	-8.5843	-2.9717	-6.1540	-9.1253	-5.7079	-4.4007	-10.1090	56.1352	99.9681	
   377	-3.9561	-5.0554	-9.0117	-3.1752	-6.4879	-9.6628	-5.7383	-5.3652	-11.1039	58.1879	99.9398	
   378	-4.2379	-4.9947	-9.2329	-3.3178	-6.4055	-9.7229	-5.8827	-5.2783	-11.1613	58.2105	99.9347	
   379	-4.2419	-4.9152	-9.1573	-3.2780	-6.2268	-9.5045	-5.7317	-5.2367	-10.9688	58.5651	99.9229	
   380	-4.0437	-4.7801	-8.8240	-3.1338	-6.0272	-9.1607	-5.4840	-4.9498	-10.4342	58.2621	99.9329	
   381	-3.5825	-4.5860	-8.1687	-2.7673	-5.8055	-8.5725	-5.0123	-4.8387	-9.8514	58.6041	99.9309	
   382	-3.3604	-4.6333	-7.9939	-2.5976	-5.8012	-8.3985	-4.9662	-4.8232	-9.7898	58.2312	99.9253	
   383	-3.2897	-4.6074	-7.8972	-2.5323	-5.6915	-8.2235	-4.7939	-4.7438	-9.5381	58.3040	99.9235	
   384	-3.0994	-4.4607	-7.5603	-2.3805	-5.6137	-7.9938	-4.6403	-4.6508	-9.2915	58.3744	99.9297	
   385	-3.0835	-4.4840	-7.5676	-2.4042	-5.7685	-8.1724	-4.6976	-4.8847	-9.5828	58.8206	99.9301	
   386	-3.5696	-4.8077	-8.3775	-2.7841	-6.3497	-9.1334	-5.2012	-5.3638	-10.5654	59.1837	99.9417	
   387	-3.9431	-4.8346	-8.7779	-3.0437	-6.5067	-9.5500	-5.4290	-5.5141	-10.9435	59.6421	99.9462	
   388	-4.0616	-4.7909	-8.8527	-3.2329	-6.4665	-9.6992	-5.5358	-5.5788	-11.1150	59.8772	99.9443	
   389	-4.2080	-4.7802	-8.9884	-3.3355	-6.5848	-9.9201	-5.7202	-5.6406	-11.3612	59.9262	99.9496	
   390	-4.3086	-4.7257	-9.0345	-3.4704	-6.6243	-10.0944	-5.9427	-5.6880	-11.6311	59.8868	99.9508	
   391	-4.6134	-4.9082	-9.5218	-3.5823	-7.0292	-10.6112	-6.1731	-5.8897	-12.0632	60.0598	99.9629	
   392	-4.5915	-4.8295	-9.4212	-3.5527	-6.7724	-10.3248	-6.0569	-5.7696	-11.8269	60.0860	99.9503	
   393	-4.5347	-4.7463	-9.2812	-3.5476	-6.6850	-10.2323	-6.0349	-5.7189	-11.7542	60.0808	99.9499	
   394	-4.5028	-4.6453	-9.1483	-3.5791	-6.4651	-10.0440	-5.9026	-5.5393	-11.4424	60.0054	99.9500	
   395	-4.0874	-4.2000	-8.2876	-3.2383	-5.7952	-9.0332	-5.3470	-4.9292	-10.2766	59.7290	99.9462	
   396	-3.0395	-3.7366	-6.7763	-2.4477	-4.9939	-7.4413	-4.4313	-4.2380	-8.6697	59.0597	99.9345	
   397	-2.0753	-3.0775	-5.1530	-1.4451	-4.0923	-5.5371	-3.3132	-3.3871	-6.7007	58.8808	99.9230	
   398	-1.3461	-2.4444	-3.7907	-0.8633	-3.4593	-4.3223	-2.1102	-2.8955	-5.0061	60.0681	99.9385	
   399	-1.0213	-2.0697	-3.0912	-0.5640	-2.7443	-3.3080	-1.5018	-2.1414	-3.6436	59.5199	99.9355	
   400	-0.6965	-1.5476	-2.2443	-0.1833	-2.1486	-2.3316	-1.1305	-1.5930	-2.7240	59.3652	99.9283	
   401	-0.3280	-1.3106	-1.6387	 0.2103	-1.7138	-1.5032	-0.7058	-1.1368	-1.8430	58.9384	99.9215	
   402	 0.2288	-1.1084	-0.8797	 0.5665	-1.2876	-0.7208	-0.0471	-1.0369	-1.0844	59.4981	99.8998	
   403	 0.9529	-1.0027	-0.0499	 1.1774	-1.0446	 0.1331	 0.6063	-1.0398	-0.4340	59.8972	99.8759	
   404	 1.0366	-1.0509	-0.0145	 1.3216	-1.0979	 0.2241	 0.8001	-1.1715	-0.3719	60.3614	99.8695	
   405	 0.8294	-1.1913	-0.3621	 1.3098	-1.3018	 0.0084	 0.6604	-1.1191	-0.4591	59.9933	99.8864	
   406	 0.7238	-1.2217	-0.4981	 1.1223	-1.2325	-0.1099	 0.5208	-1.0667	-0.5463	59.7014	99.8829	
   407	 0.6790	-1.2486	-0.5698	 1.1206	-1.3881	-0.2671	 0.6986	-1.2579	-0.5597	60.4900	99.8923	
   408	 0.5007	-1.3389	-0.8384	 0.9892	-1.4957	-0.5062	 0.2923	-1.1054	-0.8135	59.4706	99.9039	
   409	 0.4628	-1.3943	-0.9317	 0.9357	-1.5280	-0.5920	 0.2736	-1.2163	-0.9430	59.6576	99.8978	
   410	 0.4190	-1.4042	-0.9854	 0.9400	-1.5817	-0.6414	 0.2516	-1.2669	-1.0157	59.7837	99.8983	
   411	 0.4190	-1.4042	-0.9854	 0.8924	-1.5121	-0.6193	 0.4006	-1.2639	-0.8637	60.0348	99.8970	
   412	 0.8413	-1.2825	-0.4413	 1.3616	-1.4250	-0.0631	 0.9999	-1.3121	-0.3126	60.8667	99.8915	
   413	 1.1581	-1.1912	-0.0333	 1.6144	-1.2581	 0.3567	 1.2284	-1.2734	-0.0454	60.9270	99.8771	
   414	 1.2577	-1.1152	 0.1423	 1.6568	-1.1622	 0.4950	 1.3266	-1.2513	 0.0749	61.0554	99.8729	
   415	 1.3284	-1.0892	 0.2390	 1.7536	-1.1458	 0.6081	 1.4882	-1.2530	 0.2348	61.2922	99.8737	
   416	 1.4400	-1.1044	 0.3354	 1.8070	-1.1135	 0.6938	 1.5517	-1.2769	 0.2744	61.2886	99.8676	
   417	 1.4131	-1.1205	 0.2924	 1.7536	-1.1458	 0.6081	 1.4882	-1.2530	 0.2348	61.1258	99.8739	
   418	 1.3214	-1.2081	 0.1131	 1.6102	-1.2044	 0.4061	 1.2825	-1.3527	-0.0705	60.9757	99.8671	
   419	 1.2387	-1.2904	-0.0519	 1.5610	-1.2904	 0.2709	 1.2825	-1.3527	-0.0705	60.9257	99.8761	
   420	 1.1849	-1.3226	-0.1378	 1.5118	-1.3763	 0.1358	 1.2030	-1.3883	-0.1857	60.8870	99.8822	
   421	 1.1232	-1.3432	-0.2202	 1.5118	-1.3763	 0.1358	 1.1395	-1.3645	-0.2253	60.7598	99.8795	
   422	 1.3373	-1.3789	-0.0417	 1.7053	-1.3437	 0.3619	 1.3587	-1.3812	-0.0230	60.8333	99.8727	
   423	 1.3712	-1.3914	-0.0204	 1.6620	-1.3277	 0.3346	 1.3587	-1.3812	-0.0230	60.7665	99.8730	
   424	 1.3025	-1.3833	-0.0811	 1.6518	-1.3760	 0.2761	 1.2030	-1.3883	-0.1857	60.6216	99.8732	
   425	 1.3234	-1.3217	 0.0015	 1.7053	-1.3437	 0.3619	 1.4348	-1.4098	 0.0246	61.1591	99.8760	
   426	 1.3583	-1.3172	 0.0409	 1.6577	-1.2740	 0.3840	 1.4348	-1.4098	 0.0246	61.1233	99.8695	
   427	 1.3244	-1.3047	 0.0195	 1.6144	-1.2581	 0.3567	 1.2825	-1.3527	-0.0705	60.7892	99.8693	
   428	 1.2347	-1.3583	-0.1238	 1.5653	-1.3440	 0.2215	 1.1429	-1.3002	-0.1578	60.4342	99.8792	
   429	 1.1302	-1.3718	-0.2418	 1.5594	-1.4460	 0.1137	 1.1395	-1.3645	-0.2253	60.6969	99.8852	
   430	 1.1461	-1.3950	-0.2491	 1.5017	-1.4247	 0.0773	 0.9779	-1.3627	-0.3853	60.3510	99.8789	
   431	 1.1122	-1.3825	-0.2705	 1.4584	-1.4087	 0.0500	 1.0634	-1.3359	-0.2729	60.4985	99.8845	
   432	 1.2457	-1.3190	-0.0735	 1.6144	-1.2581	 0.3567	 1.3807	-1.3306	 0.0497	60.9745	99.8723	
   433	 1.4907	-1.2707	 0.2199	 1.8011	-1.2154	 0.5860	 1.6059	-1.3561	 0.2493	61.1986	99.8694	
   434	 1.4389	-1.2689	 0.1699	 1.8122	-1.2790	 0.5335	 1.4442	-1.3544	 0.0894	60.9899	99.8712	
   435	 1.2895	-1.3092	-0.0198	 1.6620	-1.3277	 0.3346	 1.4348	-1.4098	 0.0246	61.2257	99.8761	
   436	 1.2188	-1.3351	-0.1165	 1.6620	-1.3277	 0.3346	 1.3587	-1.3812	-0.0230	61.0668	99.8727	
   437	 1.2836	-1.2636	 0.0198	 1.6102	-1.2044	 0.4061	 1.3266	-1.2513	 0.0749	60.7425	99.8739	
   438	 1.3523	-1.1241	 0.2280	 1.7103	-1.1298	 0.5808	 1.5424	-1.3323	 0.2097	61.4844	99.8671	
   439	 1.3593	-1.1527	 0.2064	 1.6568	-1.1622	 0.4950	 1.2504	-1.2227	 0.0273	60.6538	99.8729	
   440	 1.2497	-1.2511	-0.0016	 1.6144	-1.2581	 0.3567	 1.2825	-1.3527	-0.0705	60.9860	99.8706	
   441	 1.1989	-1.2323	-0.0336	 1.5092	-1.1671	 0.3424	 1.1742	-1.1941	-0.0203	60.5084	99.8738	
   442	 1.2198	-1.1706	 0.0490	 1.6102	-1.2044	 0.4061	 1.3359	-1.1958	 0.1397	60.8772	99.8830	
   443	 1.4738	-1.1169	 0.3567	 1.8605	-1.0812	 0.7796	 1.7294	-1.2191	 0.5099	61.3775	99.8715	
   444	 1.5794	-1.0865	 0.4927	 1.9071	-1.0389	 0.8685	 1.6532	-1.1905	 0.4623	61.1025	99.8665	
   445	 1.4977	-1.1518	 0.3458	 1.8647	-1.1348	 0.7302	 1.5677	-1.2174	 0.3500	61.0053	99.8720	
   446	 1.4708	-1.1679	 0.3028	 1.8070	-1.1135	 0.6938	 1.6279	-1.3055	 0.3220	61.3290	99.8648	
   447	 1.4609	-1.1902	 0.2705	 1.8070	-1.1135	 0.6938	 1.5517	-1.2769	 0.2744	61.1000	99.8630	
   448	 1.4101	-1.1715	 0.2384	 1.7637	-1.0975	 0.6665	 1.4916	-1.1888	 0.3024	60.8799	99.8690	
   449	 1.4031	-1.1429	 0.2601	 1.7637	-1.0975	 0.6665	 1.4916	-1.1888	 0.3024	60.9425	99.8706	
   450	 1.3762	-1.1589	 0.2171	 1.6627	-1.0602	 0.6028	 1.4121	-1.2244	 0.1872	60.9001	99.8631	
   451	 1.2866	-1.2126	 0.0737	 1.6568	-1.1622	 0.4950	 1.2724	-1.1720	 0.1000	60.5461	99.8731	
   452	 1.2706	-1.1894	 0.0811	 1.6568	-1.1622	 0.4950	 1.3359	-1.1958	 0.1397	60.7772	99.8743	
   453	 1.4270	-1.1777	 0.2491	 1.8172	-1.0652	 0.7523	 1.6532	-1.1905	 0.4623	61.1237	99.8669	
   454	 1.5216	-1.1866	 0.3348	 1.9182	-1.1025	 0.8160	 1.5136	-1.1381	 0.3751	60.6213	99.8676	
   455	 1.4270	-1.1777	 0.2491	 1.8172	-1.0652	 0.7523	 1.5898	-1.1667	 0.4227	60.9580	99.8667	
   456	 1.4848	-1.0776	 0.4070	 1.8596	-0.9693	 0.8906	 1.7454	-1.1596	 0.5854	61.3173	99.8635	
   457	 1.6342	-1.0373	 0.5967	 1.9597	-0.8947	 1.0653	 1.8469	-1.0733	 0.7732	61.1617	99.8640	
   458	 1.5904	-1.0471	 0.5430	 1.9062	-0.9270	 0.9795	 1.6692	-1.1310	 0.5378	61.0423	99.8582	
   459	 1.4230	-1.0981	 0.3247	 1.7628	-0.9856	 0.7775	 1.5898	-1.1667	 0.4227	61.1125	99.8626	
   460	 1.3792	-1.1080	 0.2710	 1.7051	-0.9643	 0.7411	 1.5898	-1.1667	 0.4227	61.1494	99.8612	
   461	 1.3792	-1.1080	 0.2710	 1.7162	-1.0279	 0.6886	 1.3739	-1.0857	 0.2879	60.5837	99.8696	
   462	 1.2906	-1.1447	 0.1457	 1.6585	-1.0066	 0.6522	 1.4281	-1.1650	 0.2627	60.9157	99.8601	
   463	 1.4748	-1.0999	 0.3747	 1.8596	-0.9693	 0.8906	 1.7674	-1.1090	 0.6581	61.1996	99.8675	
   464	 1.6342	-1.0373	 0.5967	 1.9698	-0.8464	 1.1238	 1.9231	-1.1019	 0.8208	61.3597	99.8561	
   465	 1.5764	-0.9899	 0.5863	 1.9020	-0.8734	 1.0289	 1.7674	-1.1090	 0.6581	61.2782	99.8593	
   466	 1.5764	-0.9899	 0.5863	 1.9121	-0.8251	 1.0874	 1.8469	-1.0733	 0.7732	61.3232	99.8576	
   467	 1.6482	-0.9470	 0.7009	 1.9588	-0.7828	 1.1763	 1.7293	-0.9702	 0.7587	60.8610	99.8578	
   468	 1.6382	-0.9694	 0.6686	 1.9698	-0.8464	 1.1238	 1.9833	-1.1900	 0.7929	61.8005	99.8541	
   469	 1.4509	-1.0651	 0.3857	 1.8061	-1.0016	 0.8048	 1.6532	-1.1905	 0.4623	61.3054	99.8652	
   470	 1.1720	-1.2484	-0.0766	 1.5669	-1.1884	 0.3788	 1.2504	-1.2227	 0.0273	60.7132	99.8721	
   471	 1.0106	-1.3450	-0.3346	 1.3675	-1.3231	 0.0448	 1.0032	-1.2478	-0.2450	60.3786	99.8829	
   472	 0.8064	-1.4345	-0.6282	 1.2216	-1.4254	-0.2034	 0.9237	-1.2835	-0.3601	60.4250	99.8901	
   473	 0.9559	-1.3942	-0.4385	 1.4151	-1.3927	 0.0227	 1.1429	-1.3002	-0.1578	60.7240	99.8864	
   474	 0.9907	-1.3897	-0.3992	 1.3141	-1.3554	-0.0410	 1.0634	-1.3359	-0.2729	60.6409	99.8820	
   475	 0.6023	-1.3764	-0.7743	 1.0367	-1.5653	-0.5283	 0.4547	-1.3432	-0.8889	60.1394	99.8971	
   476	-0.3002	-1.8675	-2.1679	 0.0807	-2.2981	-2.2172	-0.8412	-1.7540	-2.5956	59.1436	99.9230	
   477	-1.0213	-2.0697	-3.0912	-0.4471	-2.3784	-2.8252	-1.2367	-1.7693	-3.0064	59.0580	99.9216	
   478	-1.0601	-1.9947	-3.0550	-0.4445	-2.3348	-2.7790	-1.3330	-1.6284	-2.9617	58.7293	99.9262	
   479	-1.0999	-1.7891	-2.8892	-0.3979	-2.1660	-2.5637	-1.3564	-1.4558	-2.8126	58.7005	99.9244	
   480	-0.9346	-1.4770	-2.4118	-0.2725	-1.7810	-2.0532	-1.1173	-1.2115	-2.3292	58.8881	99.9154	
   481	-0.7293	-1.2231	-1.9526	-0.1088	-1.4993	-1.6079	-0.8869	-1.0098	-1.8971	59.0023	99.9113	
   482	-0.4644	-0.9826	-1.4471	 0.1091	-1.1707	-1.0613	-0.5583	-0.7861	-1.3447	59.1302	99.9038	
   483	 0.0367	-0.8465	-0.8101	 0.5078	-0.9015	-0.3934	 0.0156	-0.7002	-0.6850	59.5197	99.8905	
   484	 0.3464	-0.7266	-0.3804	 0.6427	-0.7356	-0.0926	 0.3236	-0.6259	-0.3027	59.6920	99.8903	
   485	 0.2827	-0.6337	-0.3512	 0.6384	-0.6820	-0.0433	 0.3489	-0.5109	-0.1624	59.7098	99.8971	
   486	 0.3225	-0.6918	-0.3694	 0.5994	-0.7196	-0.1199	 0.2727	-0.4823	-0.2100	59.3472	99.9016	
   487	 0.1941	-0.6704	-0.4765	 0.5892	-0.7679	-0.1784	 0.3329	-0.5704	-0.2379	59.8748	99.9018	
   488	-0.1327	-0.7840	-0.9169	 0.3245	-0.8859	-0.5610	-0.0446	-0.6121	-0.6571	59.5364	99.9031	
   489	-0.3687	-0.9745	-1.3434	 0.1871	-1.0954	-0.9080	-0.4000	-0.6031	-1.0035	58.8478	99.9118	
   490	-0.4893	-1.1122	-1.6017	 0.1566	-1.2404	-1.0834	-0.4187	-0.7140	-1.1331	58.9891	99.9131	
   491	-0.4594	-1.1926	-1.6522	 0.0642	-1.3103	-1.2459	-0.3585	-0.8021	-1.1610	59.1210	99.9179	
   492	-0.3240	-1.2426	-1.5668	 0.2560	-1.4332	-1.1769	-0.3585	-0.8021	-1.1610	58.8497	99.9236	
   493	-0.1377	-1.3114	-1.4493	 0.4334	-1.5508	-1.1171	-0.2409	-0.9052	-1.1465	58.9351	99.9253	
   494	-0.0790	-1.4893	-1.5685	 0.4394	-1.7018	-1.2621	-0.2876	-1.1824	-1.4704	59.1248	99.9145	
   495	-0.0492	-1.7172	-1.7666	 0.5668	-2.0463	-1.4792	-0.3683	-1.4927	-1.8614	59.2823	99.9138	
   496	-0.1767	-1.9738	-2.1507	 0.4227	-2.3724	-1.9494	-0.5058	-1.7751	-2.2814	59.4262	99.9208	
   497	-0.1648	-2.0650	-2.2299	 0.5543	-2.5176	-1.9631	-0.5332	-1.9286	-2.4622	59.5726	99.9147	
   498	-0.0851	-2.0337	-2.1189	 0.5075	-2.3070	-1.7992	-0.3789	-1.8228	-2.2021	59.5343	99.9075	
   499	 0.0355	-1.7485	-1.7132	 0.6635	-2.0299	-1.3661	-0.2320	-1.4849	-1.7173	59.3323	99.9119	
   500	 0.2088	-1.5956	-1.3869	 0.8001	-1.8349	-1.0346	-0.1853	-1.3322	-1.5179	59.0943	99.9043	
   501	 0.3025	-1.4740	-1.1717	 0.7465	-1.6144	-0.8675	-0.0785	-1.1430	-1.2219	58.9196	99.9058	
   502	 0.4838	-1.3327	-0.8491	 0.9416	-1.4261	-0.4842	 0.2923	-1.1054	-0.8135	59.5046	99.8973	
   503	 0.7507	-1.2056	-0.4551	 1.1223	-1.2325	-0.1099	 0.6063	-1.0398	-0.4340	59.7788	99.8899	
   504	 0.9041	-1.0974	-0.1935	 1.2206	-1.0606	 0.1604	 0.6410	-0.8695	-0.2289	59.4214	99.8855	
   505	 1.0506	-0.9606	 0.0897	 1.4175	-0.9696	 0.4481	 1.0218	-0.8880	 0.1334	60.1921	99.8843	
   506	 1.1263	-0.8497	 0.2763	 1.4123	-0.8041	 0.6085	 1.0471	-0.7730	 0.2737	60.0624	99.8799	
   507	 1.2139	-0.8300	 0.3837	 1.4590	-0.7619	 0.6974	 1.1453	-0.7510	 0.3940	60.1005	99.8797	
   508	 1.1841	-0.7496	 0.4343	 1.4649	-0.6599	 0.8053	 1.2088	-0.7748	 0.4336	60.4571	99.8685	
   509	 1.2279	-0.7398	 0.4879	 1.4105	-0.5803	 0.8305	 1.2248	-0.7153	 0.5091	60.2999	99.8675	
   510	 1.2458	-0.7290	 0.5166	 1.5115	-0.6176	 0.8942	 1.3805	-0.7082	 0.6719	60.5448	99.8744	
   511	 1.1841	-0.7496	 0.4343	 1.4547	-0.7082	 0.7468	 1.2850	-0.8034	 0.4812	60.6574	99.8763	
   512	 1.2279	-0.7398	 0.4879	 1.5115	-0.6176	 0.8942	 1.3043	-0.6796	 0.6243	60.3479	99.8733	
   513	 1.3873	-0.6771	 0.7099	 1.6549	-0.5590	 1.0962	 1.6123	-0.7298	 0.8822	60.9072	99.8701	
   514	 1.3873	-0.6771	 0.7099	 1.6116	-0.5430	 1.0689	 1.6090	-0.7940	 0.8146	61.0600	99.8641	
   515	 1.3534	-0.6646	 0.6886	 1.5539	-0.5217	 1.0325	 1.5488	-0.7059	 0.8425	60.8078	99.8701	
   516	 1.3883	-0.6601	 0.7279	 1.6006	-0.4795	 1.1214	 1.6885	-0.7584	 0.9297	61.1361	99.8624	
   517	 1.4420	-0.6279	 0.8139	 1.6574	-0.3889	 1.2688	 1.7105	-0.7077	 1.0024	61.0407	99.8540	
   518	 1.3534	-0.6646	 0.6886	 1.6006	-0.4795	 1.1214	 1.5582	-0.6505	 0.9073	60.6872	99.8667	
   519	 1.4420	-0.6279	 0.8139	 1.7007	-0.4049	 1.2961	 1.8027	-0.6768	 1.1255	61.1191	99.8602	
   520	 1.4490	-0.5091	 0.9398	 1.7464	-0.2507	 1.4960	 1.9109	-0.5864	 1.3241	61.2906	99.8537	
   521	 1.4899	-0.5502	 0.9395	 1.7575	-0.3143	 1.4435	 1.8347	-0.5578	 1.2765	60.9658	99.8612	
   522	 1.4660	-0.5153	 0.9505	 1.8041	-0.2720	 1.5324	 1.9269	-0.5269	 1.3996	61.1388	99.8599	
   523	 1.5905	-0.4572	 1.1331	 1.9551	-0.2088	 1.7467	 2.1714	-0.5532	 1.6178	61.5613	99.8542	
   524	 1.6682	-0.4598	 1.2081	 1.9008	-0.1292	 1.7719	 2.1714	-0.5532	 1.6178	61.4600	99.8466	
   525	 1.6174	-0.4411	 1.1761	 1.8941	-0.2457	 1.6486	 2.0191	-0.4960	 1.5227	61.1655	99.8646	
   526	 1.5566	-0.4447	 1.1118	 1.8041	-0.2720	 1.5324	 1.8507	-0.4983	 1.3520	60.9595	99.8659	
   527	 1.4998	-0.5278	 0.9718	 1.7040	-0.3466	 1.3577	 1.7586	-0.5292	 1.2289	60.7971	99.8704	
   528	 1.3435	-0.5395	 0.8038	 1.5420	-0.3463	 1.1960	 1.6664	-0.5601	 1.1059	60.8935	99.8692	
   529	 1.2757	-0.5145	 0.7611	 1.5420	-0.3463	 1.1960	 1.5902	-0.5315	 1.0583	60.8275	99.8692	
   530	 1.2389	-0.5529	 0.6857	 1.5097	-0.3939	 1.1162	 1.6504	-0.6196	 1.0304	61.1191	99.8690	
   531	 1.1911	-0.6307	 0.5601	 1.4563	-0.4262	 1.0304	 1.5582	-0.6505	 0.9073	60.9556	99.8652	
   532	 1.1134	-0.6281	 0.4851	 1.4572	-0.5381	 0.9194	 1.5488	-0.7059	 0.8425	61.1788	99.8746	
   533	 1.2080	-0.4895	 0.7183	 1.6030	-0.3093	 1.2940	 1.6062	-0.4720	 1.1338	60.8406	99.8662	
   534	 1.4281	-0.4232	 1.0047	 1.7464	-0.2507	 1.4960	 1.9269	-0.5269	 1.3996	61.3573	99.8644	
   535	 1.4999	-0.3803	 1.1193	 1.7931	-0.2084	 1.5849	 2.0793	-0.5841	 1.4947	61.7406	99.8596	
   536	 1.4311	-0.3723	 1.0586	 1.6921	-0.1711	 1.5212	 1.9429	-0.4674	 1.4751	61.3293	99.8646	
   537	 1.4281	-0.4232	 1.0047	 1.5911	-0.1339	 1.4575	 1.8507	-0.4983	 1.3520	61.1606	99.8555	
   538	 1.4012	-0.4393	 0.9617	 1.6021	-0.1974	 1.4050	 1.7586	-0.5292	 1.2289	61.0862	99.8569	
   539	 1.3773	-0.4045	 0.9727	 1.6454	-0.2134	 1.4323	 1.7144	-0.3816	 1.3324	60.7457	99.8703	
   540	 1.3435	-0.3920	 0.9513	 1.6454	-0.2134	 1.4323	 1.6222	-0.4125	 1.2093	60.7324	99.8643	
   541	 1.3066	-0.4304	 0.8760	 1.5555	-0.2397	 1.3161	 1.5461	-0.3839	 1.1617	60.5091	99.8701	
   542	 1.3574	-0.3017	 1.0555	 1.6955	-0.1129	 1.5829	 1.7244	-0.3134	 1.4107	60.8116	99.8648	
   543	 1.4690	-0.3169	 1.1519	 1.7387	-0.1289	 1.6102	 1.7906	-0.4102	 1.3799	60.9912	99.8598	
   544	 1.3704	-0.3759	 0.9943	 1.5444	-0.1761	 1.3686	 1.5300	-0.4434	 1.0862	60.6486	99.8599	
   545	 1.3166	-0.4081	 0.9083	 1.4978	-0.2184	 1.2797	 1.5300	-0.4434	 1.0862	60.6568	99.8657	
   546	 1.2658	-0.3893	 0.8763	 1.4401	-0.1971	 1.2433	 1.4539	-0.4148	 1.0386	60.5573	99.8657	
   547	 1.3405	-0.2954	 1.0449	 1.5478	-0.1179	 1.4302	 1.4699	-0.3554	 1.1141	60.5186	99.8610	
   548	 1.4043	-0.2409	 1.1632	 1.5945	-0.0756	 1.5192	 1.5300	-0.4434	 1.0862	60.8584	99.8502	
   549	 1.4312	-0.2248	 1.2062	 1.5368	-0.0543	 1.4828	 1.3584	-0.5100	 0.8480	60.7277	99.8385	
   550	 1.3166	-0.4081	 0.9083	 1.4443	-0.2507	 1.1939	 1.2408	-0.6558	 0.5846	60.6901	99.8425	
   551	 1.2628	-0.5878	 0.6748	 1.5963	-0.4258	 1.1708	 1.3612	-0.8320	 0.5288	61.0617	99.8350	
   552	 0.6930	-1.1583	-0.4655	 1.0790	-1.2165	-0.1372	 0.3778	-1.0785	-0.7011	59.6412	99.8796	
   553	-0.8301	-1.9061	-2.7363	-0.3114	-2.1980	-2.5091	-1.2695	-1.6522	-2.9221	58.7604	99.9120	
   554	-1.5990	-2.1861	-3.7853	-1.0282	-2.6175	-3.6454	-2.0250	-1.9974	-4.0228	58.7706	99.9214	
   555	-1.9168	-2.2944	-4.2113	-1.2573	-2.7561	-4.0130	-2.2801	-2.0522	-4.3328	58.6714	99.9259	
   556	-2.0173	-2.2399	-4.2574	-1.3031	-2.7838	-4.0865	-2.3463	-2.0798	-4.4265	58.8623	99.9280	
   557	-2.0522	-2.2444	-4.2968	-1.3005	-2.8665	-4.1667	-2.3816	-2.2631	-4.6451	59.3012	99.9224	
   558	-2.0193	-2.2739	-4.2934	-1.2191	-2.8594	-4.0782	-2.3790	-2.2116	-4.5910	59.0739	99.9201	
   559	-1.8580	-2.1773	-4.0354	-1.0189	-2.7102	-3.7288	-2.0009	-2.1571	-4.1584	59.5840	99.9158	
   560	-1.2803	-2.0609	-3.3413	-0.5650	-2.3795	-2.9442	-1.2727	-1.9654	-3.2385	59.8459	99.9069	
   561	-0.9416	-1.8909	-2.8327	-0.2681	-2.2140	-2.4818	-1.2060	-1.6760	-2.8824	59.1125	99.9101	
   562	-0.9536	-1.9472	-2.9010	-0.3572	-2.2257	-2.5826	-1.2213	-1.7227	-2.9444	59.1106	99.9094	
   563	-1.2524	-2.0278	-3.2804	-0.5608	-2.4331	-2.9936	-1.4986	-1.8282	-3.3272	59.1271	99.9187	
   564	-1.5821	-2.1924	-3.7747	-0.9442	-2.6932	-3.6371	-1.9261	-2.0869	-4.0134	59.1402	99.9228	
   565	-1.9277	-2.3337	-4.2616	-1.2284	-2.8932	-4.1212	-2.3068	-2.1929	-4.5001	58.9172	99.9276	
   566	-2.0941	-2.3678	-4.4620	-1.4116	-3.0040	-4.4153	-2.4478	-2.2906	-4.7388	59.0702	99.9336	
   567	-2.2196	-2.4429	-4.6626	-1.4981	-3.0985	-4.5963	-2.5820	-2.3843	-4.9667	59.0905	99.9322	
   568	-2.3510	-2.4724	-4.8237	-1.6135	-3.1823	-4.7955	-2.7584	-2.4164	-5.1751	58.9735	99.9359	
   569	-2.2893	-2.4518	-4.7413	-1.4667	-3.1919	-4.6583	-2.5820	-2.3843	-4.9667	59.1681	99.9392	
   570	-2.1060	-2.4241	-4.5303	-1.3802	-3.0974	-4.4773	-2.4143	-2.3949	-4.8096	59.3030	99.9337	
   571	-2.1568	-2.4053	-4.5623	-1.4209	-3.1642	-4.5848	-2.5312	-2.4034	-4.9350	59.2183	99.9389	
   572	-2.2086	-2.4035	-4.6123	-1.5074	-3.1322	-4.6394	-2.5907	-2.4269	-5.0180	59.2444	99.9353	
   573	-2.1847	-2.4384	-4.6233	-1.5074	-3.1322	-4.6394	-2.6415	-2.4079	-5.0497	59.0032	99.9340	
   574	-2.1966	-2.3472	-4.5441	-1.4548	-3.1145	-4.5690	-2.6328	-2.3653	-4.9985	59.1034	99.9364	
   575	-2.2474	-2.3285	-4.5761	-1.5074	-3.1322	-4.6394	-2.6415	-2.4079	-5.0497	59.3021	99.9377	
   576	-2.3211	-2.4054	-4.7267	-1.5414	-3.2089	-4.7500	-2.8178	-2.4399	-5.2581	59.0140	99.9354	
   577	-2.3739	-2.4206	-4.7947	-1.6517	-3.2054	-4.8568	-2.8900	-2.4587	-5.3490	58.9729	99.9354	
   578	-2.4227	-2.3679	-4.7908	-1.6517	-3.2054	-4.8568	-2.8265	-2.4825	-5.3094	59.3194	99.9371	
   579	-2.2076	-2.3866	-4.5944	-1.5074	-3.1322	-4.6394	-2.5399	-2.4460	-4.9863	59.4166	99.9363	
   580	-2.2255	-2.3973	-4.6230	-1.4981	-3.2249	-4.7227	-2.6147	-2.5162	-5.1313	59.4641	99.9384	
   581	-2.3391	-2.4161	-4.7554	-1.6228	-3.2160	-4.8386	-2.8265	-2.4825	-5.3094	59.1109	99.9364	
   582	-2.4237	-2.3848	-4.8088	-1.6109	-3.2651	-4.8757	-2.9408	-2.4396	-5.3808	58.9691	99.9402	
   583	-2.4347	-2.4242	-4.8591	-1.7263	-3.2224	-4.9485	-2.9494	-2.4822	-5.4320	59.0008	99.9363	
   584	-2.5034	-2.4162	-4.9198	-1.7289	-3.2661	-4.9947	-3.0510	-2.4441	-5.4955	58.8270	99.9396	
   585	-2.5094	-2.3706	-4.8802	-1.7671	-3.1628	-4.9296	-3.1018	-2.4250	-5.5272	58.7817	99.9315	
   586	-2.5432	-2.3581	-4.9015	-1.7985	-3.1958	-4.9940	-3.2541	-2.3678	-5.6223	58.4246	99.9358	
   587	-2.5701	-2.3742	-4.9445	-1.8010	-3.2395	-5.0402	-3.2568	-2.4192	-5.6764	58.5575	99.9360	
   588	-2.6409	-2.4001	-5.0412	-1.8825	-3.2466	-5.1288	-3.3797	-2.4189	-5.7990	58.3763	99.9344	
   589	-2.6578	-2.3939	-5.0519	-1.8443	-3.2235	-5.0675	-3.2033	-2.3869	-5.5906	58.6570	99.9376	
   590	-2.4516	-2.4179	-4.8698	-1.7263	-3.2224	-4.9485	-3.0423	-2.4015	-5.4442	58.6590	99.9388	
   591	-2.4755	-2.3831	-4.8588	-1.7671	-3.1628	-4.9296	-3.0844	-2.3398	-5.4246	58.5246	99.9381	
   592	-2.5602	-2.3518	-4.9122	-1.8392	-3.1361	-4.9751	-3.1947	-2.3443	-5.5393	58.5104	99.9347	
   593	-2.5771	-2.3456	-4.9229	-1.7696	-3.2065	-4.9758	-3.1947	-2.3443	-5.5393	58.5461	99.9388	
   594	-2.5940	-2.3393	-4.9335	-1.7985	-3.1958	-4.9940	-3.2962	-2.3062	-5.6028	58.2959	99.9383	
   595	-2.6279	-2.3268	-4.9549	-1.8825	-3.1202	-5.0024	-3.3470	-2.2871	-5.6345	58.2243	99.9338	
   596	-2.6727	-2.3536	-5.0266	-1.9164	-3.1969	-5.1130	-3.5207	-2.2677	-5.7888	57.8606	99.9377	
   597	-2.7594	-2.3563	-5.1159	-1.9979	-3.2040	-5.2016	-3.5741	-2.3001	-5.8746	57.9599	99.9369	
   598	-2.7932	-2.3438	-5.1373	-1.9860	-3.2530	-5.2387	-3.6336	-2.3236	-5.9576	57.9805	99.9380	
   599	-2.7922	-2.3269	-5.1193	-1.9886	-3.1702	-5.1585	-3.5120	-2.2251	-5.7376	57.9883	99.9403	
   600	-2.5930	-2.3223	-4.9156	-1.8443	-3.0971	-4.9411	-3.1773	-2.2591	-5.4368	58.4279	99.9375	
   601	-2.6279	-2.3268	-4.9549	-1.8418	-3.1798	-5.0213	-3.3470	-2.2871	-5.6345	58.2243	99.9383	
   602	-2.7584	-2.3394	-5.0979	-1.9886	-3.1702	-5.1585	-3.6731	-2.2105	-5.8840	57.5764	99.9361	
   603	-2.8102	-2.3376	-5.1480	-2.0267	-3.1933	-5.2198	-3.6249	-2.2810	-5.9063	57.9238	99.9366	
   604	-2.8261	-2.3144	-5.1407	-1.9979	-3.2040	-5.2016	-3.7238	-2.1915	-5.9157	57.5764	99.9395	
   605	-2.8261	-2.3144	-5.1407	-2.1040	-3.1276	-5.2313	-3.7138	-2.2476	-5.9618	57.7389	99.9334	
   606	-2.8779	-2.3126	-5.1907	-2.1473	-3.1116	-5.2586	-3.7646	-2.2286	-5.9936	57.6711	99.9325	
   607	-2.8779	-2.3126	-5.1907	-2.1422	-3.1507	-5.2926	-3.8240	-2.2521	-6.0765	57.6189	99.9330	
   608	-2.9446	-2.2706	-5.2154	-2.1761	-3.1010	-5.2768	-3.7646	-2.2286	-5.9936	57.8473	99.9333	
   609	-2.8141	-2.2580	-5.0724	-2.0752	-3.0118	-5.0867	-3.3891	-2.2254	-5.6149	58.3820	99.9338	
   610	-2.6926	-2.2508	-4.9437	-2.0005	-2.9948	-4.9950	-3.4399	-2.2064	-5.6467	58.0830	99.9304	
   611	-2.7803	-2.2705	-5.0510	-2.1133	-3.0349	-5.1480	-3.6644	-2.1679	-5.8327	57.6486	99.9336	
   612	-2.8928	-2.2724	-5.1654	-2.1880	-3.0520	-5.2397	-3.7238	-2.1915	-5.9157	57.7524	99.9334	
   613	-2.9098	-2.2661	-5.1761	-2.1880	-3.0520	-5.2397	-3.8127	-2.1581	-5.9712	57.5356	99.9326	
   614	-2.9785	-2.2581	-5.2368	-2.2194	-3.0850	-5.3041	-3.8154	-2.2095	-6.0253	57.7750	99.9333	
   615	-3.0303	-2.2563	-5.2868	-2.3009	-3.0921	-5.3927	-3.9256	-2.2140	-6.1400	57.6551	99.9336	
   616	-3.0582	-2.2894	-5.3478	-2.3730	-3.0655	-5.4382	-4.1287	-2.1377	-6.2668	57.0487	99.9305	
   617	-3.1080	-2.2537	-5.3618	-2.4018	-3.0548	-5.4564	-4.0866	-2.1994	-6.2864	57.4279	99.9286	
   618	-3.1418	-2.2412	-5.3832	-2.4451	-3.0388	-5.4837	-4.1287	-2.1377	-6.2668	57.2625	99.9320	
   619	-2.9944	-2.2349	-5.2295	-2.3009	-2.9657	-5.2663	-3.7659	-2.1298	-5.8962	57.7321	99.9321	
   620	-2.9327	-2.2143	-5.1471	-2.2288	-2.9923	-5.2208	-3.7659	-2.1298	-5.8962	57.6848	99.9335	
   621	-3.0621	-2.2098	-5.2722	-2.3323	-2.9987	-5.3307	-4.0185	-2.1333	-6.1521	57.4080	99.9282	
   622	-3.1418	-2.2412	-5.3832	-2.4358	-3.0051	-5.4406	-4.2216	-2.0570	-6.2790	56.8785	99.9298	
   623	-3.1806	-2.1661	-5.3469	-2.4044	-2.9721	-5.3762	-4.0158	-2.0819	-6.0981	57.5356	99.9323	
   624	-3.0362	-2.0632	-5.0996	-2.3035	-2.7564	-5.0597	-3.8475	-1.9551	-5.8030	57.5249	99.9240	
   625	-2.9456	-1.9926	-4.9383	-2.2628	-2.6897	-4.9522	-3.8896	-1.8934	-5.7835	57.2960	99.9221	
   626	-3.0073	-2.0132	-5.0207	-2.3757	-2.7298	-5.1052	-3.9872	-1.9027	-5.8902	57.1823	99.9271	
   627	-3.0770	-2.0221	-5.0994	-2.3782	-2.7735	-5.1514	-4.0379	-1.8836	-5.9219	57.1194	99.9300	
   628	-2.9974	-1.9908	-4.9884	-2.1881	-2.7991	-4.9869	-3.6711	-1.9231	-5.5946	57.8601	99.9353	
   629	-2.9117	-2.0051	-4.9170	-2.1907	-2.7163	-4.9067	-3.6204	-1.9421	-5.5629	57.8557	99.9275	
   630	-2.9466	-2.0096	-4.9563	-2.2722	-2.7234	-4.9953	-3.8896	-1.8934	-5.7835	57.2645	99.9260	
   631	-3.0143	-1.9846	-4.9990	-2.3010	-2.7128	-5.0135	-3.8388	-1.9125	-5.7517	57.5540	99.9265	
   632	-3.0701	-2.0507	-5.1210	-2.3756	-2.8563	-5.2316	-3.9985	-1.9967	-5.9956	57.4175	99.9318	
   633	-3.2703	-2.0723	-5.3427	-2.5173	-2.8857	-5.4028	-4.3205	-1.9675	-6.2884	56.9732	99.9282	
   634	-3.3320	-2.0928	-5.4251	-2.5945	-2.9465	-5.5407	-4.4628	-1.9665	-6.4297	56.7459	99.9325	
   635	-3.3848	-2.1080	-5.4931	-2.7048	-2.9429	-5.6475	-4.5223	-1.9900	-6.5127	56.7382	99.9329	
   636	-3.4635	-2.1224	-5.5861	-2.7770	-2.9163	-5.6930	-4.6198	-1.9992	-6.6194	56.6596	99.9271	
   637	-3.4535	-2.1000	-5.5538	-2.7048	-2.9429	-5.6475	-4.4602	-1.9151	-6.3756	56.7815	99.9390	
   638	-3.2374	-2.1017	-5.3393	-2.5606	-2.8698	-5.4301	-4.2611	-1.9439	-6.2054	56.9225	99.9322	
   639	-3.2812	-2.1116	-5.3930	-2.5920	-2.9028	-5.4945	-4.4007	-1.8915	-6.2926	56.5645	99.9351	
   640	-3.3669	-2.0973	-5.4644	-2.6666	-2.9199	-5.5862	-4.5109	-1.8960	-6.4073	56.5148	99.9359	
   641	-3.3997	-2.0678	-5.4678	-2.7074	-2.8602	-5.5673	-4.4602	-1.9151	-6.3756	56.7663	99.9324	
   642	-3.4167	-2.0616	-5.4785	-2.6955	-2.9092	-5.6044	-4.6125	-1.8579	-6.4708	56.3625	99.9358	
   643	-3.4844	-2.0366	-5.5212	-2.7388	-2.8932	-5.6317	-4.6125	-1.8579	-6.4708	56.5096	99.9360	
   644	-3.4505	-2.0491	-5.4998	-2.7795	-2.8335	-5.6128	-4.6125	-1.8579	-6.4708	56.4361	99.9318	
   645	-3.4744	-2.0142	-5.4889	-2.8491	-2.7632	-5.6121	-4.7014	-1.8245	-6.5263	56.2808	99.9278	
   646	-3.5252	-1.9955	-5.5209	-2.8084	-2.8229	-5.6310	-4.7521	-1.8054	-6.5580	56.2439	99.9315	
   647	-3.5860	-1.9991	-5.5852	-2.8805	-2.7963	-5.6765	-4.8029	-1.7864	-6.5897	56.1782	99.9305	
   648	-3.3868	-1.9945	-5.3815	-2.7049	-2.6900	-5.3947	-4.3426	-1.7692	-6.1123	56.7440	99.9305	
   649	-3.2105	-1.9381	-5.1488	-2.4911	-2.6872	-5.1780	-4.2297	-1.7134	-5.9435	56.6737	99.9324	
   650	-3.2224	-1.9945	-5.2171	-2.6039	-2.7273	-5.3310	-4.4442	-1.7311	-6.1757	56.2134	99.9320	
   651	-3.3420	-1.9677	-5.3099	-2.7049	-2.6900	-5.3947	-4.4950	-1.7120	-6.2074	56.2922	99.9315	
   652	-3.2961	-1.9239	-5.2202	-2.6379	-2.6776	-5.3152	-4.3847	-1.7076	-6.0927	56.5121	99.9335	
   653	-3.3360	-1.8658	-5.2019	-2.6379	-2.6776	-5.3152	-4.5371	-1.6504	-6.1879	56.2421	99.9338	
   654	-3.3639	-1.8989	-5.2629	-2.7100	-2.6510	-5.3607	-4.5838	-1.6787	-6.2629	56.1999	99.9290	
   655	-3.4037	-1.8408	-5.2447	-2.7796	-2.5806	-5.3600	-4.5371	-1.6504	-6.1879	56.3890	99.9305	
   656	-3.3678	-1.8193	-5.1873	-2.7194	-2.5583	-5.2774	-4.5852	-1.5799	-6.1655	56.1058	99.9293	
   657	-3.3051	-1.7817	-5.0870	-2.7627	-2.4158	-5.1783	-4.6186	-1.4757	-6.0947	55.7566	99.9244	
   658	-3.2483	-1.6986	-4.9471	-2.6134	-2.3817	-4.9948	-4.0588	-1.5352	-5.5944	57.0642	99.9327	
   659	-2.9754	-1.6172	-4.5927	-2.3198	-2.2744	-4.5940	-3.7669	-1.3959	-5.1631	57.0334	99.9334	
   660	-2.8728	-1.6377	-4.5107	-2.2885	-2.2414	-4.5296	-3.7755	-1.4385	-5.2144	56.9392	99.9258	
   661	-2.8568	-1.5134	-4.3705	-2.2206	-2.0880	-4.3083	-3.4442	-1.4122	-4.8568	57.7122	99.9231	
   662	-2.5002	-1.3327	-3.8332	-1.9161	-1.7914	-3.7072	-3.0675	-1.1344	-4.2023	57.5617	99.9200	
   663	-1.9504	-0.9544	-2.9050	-1.4657	-1.3924	-2.8579	-2.5878	-0.9935	-3.5818	58.0540	99.9026	
   664	-1.7392	-0.8936	-2.6330	-1.3376	-1.3431	-2.6804	-2.4462	-0.8830	-3.3296	57.8609	99.9108	
   665	-1.5290	-0.7022	-2.2314	-1.1043	-1.1317	-2.2358	-2.1456	-0.8255	-2.9715	58.3451	99.8995	
   666	-1.8498	-1.0089	-2.8589	-1.5386	-1.5068	-3.0452	-2.8971	-1.0936	-3.9911	57.4852	99.9022	
   667	-3.1229	-2.0659	-5.1890	-2.9398	-3.1834	-6.1229	-5.4206	-2.5959	-8.0170	56.2326	99.9046	
   668	-5.8939	-3.2987	-9.1928	-5.0104	-4.8434	-9.8535	-7.2060	-3.8383	-11.0447	57.6451	99.9485	
   669	-6.1977	-3.1691	-9.3670	-5.1344	-4.6935	-9.8275	-7.2181	-3.5717	-10.7902	57.6227	99.9544	
   670	-5.6070	-2.5370	-8.1441	-4.6316	-3.6445	-8.2758	-6.5805	-2.5011	-9.0820	56.4539	99.9451	
   671	-4.9376	-2.0379	-6.9757	-4.0676	-2.8116	-6.8789	-6.1231	-1.6641	-7.7876	55.1902	99.9289	
   672	-4.3349	-1.4969	-5.8320	-3.5800	-2.0248	-5.6045	-5.7192	-0.8595	-6.5790	54.1029	99.9182	
   673	-3.4992	-1.1114	-4.6107	-3.0465	-1.4632	-4.5094	-4.8649	-0.3549	-5.2202	54.0307	99.9269	
   674	-3.0759	-1.1202	-4.1963	-2.7207	-1.3083	-4.0288	-4.1635	-0.1793	-4.3432	54.3374	99.9357	
   675	-2.7213	-1.1210	-3.8425	-2.2625	-1.2841	-3.5464	-3.7232	-0.1743	-3.8979	54.6610	99.9308	
   676	-2.7363	-1.2282	-3.9647	-2.1904	-1.3108	-3.5009	-3.6149	-0.3329	-3.9482	55.0781	99.9166	
   677	-2.5341	-1.3202	-3.8545	-1.9723	-1.4880	-3.4600	-3.4111	-0.5207	-3.9322	55.4658	99.9192	
   678	-2.5391	-1.5527	-4.0920	-2.0748	-1.7328	-3.8073	-3.5280	-0.5293	-4.0576	54.8382	99.9378	
   679	-2.0500	-1.1779	-3.2282	-1.3666	-1.0795	-2.4458	-2.2467	-0.1522	-2.3993	56.3300	99.9202	
   680	-1.5948	-1.0857	-2.6808	-0.9830	-1.0724	-2.0551	-1.9962	-0.1873	-2.1839	56.4163	99.9187	
   681	-1.8140	-1.1350	-2.9491	-1.3190	-1.1491	-2.4678	-2.2467	-0.1522	-2.3993	56.0827	99.9324	
   682	-1.6665	-0.8337	-2.5004	-1.1359	-0.6589	-1.7946	-1.7204	 0.1415	-1.5793	56.6875	99.9199	
   683	-1.2103	-0.5770	-1.7874	-0.5454	-0.5126	-1.0577	-0.9841	 0.1140	-0.8706	57.9253	99.9149	
   684	-1.1297	-1.1187	-2.2486	-0.8819	-1.3626	-2.2442	-2.2326	-0.5047	-2.7376	56.0385	99.9259	
   685	-1.8559	-1.8483	-3.7044	-1.4747	-2.1849	-3.6593	-2.9994	-0.9438	-3.9436	55.3324	99.9465	
   686	-2.3639	-2.2507	-4.6149	-1.9235	-2.5547	-4.4778	-3.4442	-1.4122	-4.8568	55.6110	99.9375	
   687	-2.8371	-2.3537	-5.1910	-1.8444	-2.9706	-4.8147	-3.5965	-1.3550	-4.9519	55.6641	99.9602	
   688	-2.7265	-2.5333	-5.2601	-2.0413	-2.9351	-4.9761	-3.6145	-1.4531	-5.0680	55.3770	99.9555	
   689	-2.8779	-2.6076	-5.4857	-2.1133	-3.0349	-5.1480	-3.6285	-1.5985	-5.2274	55.7854	99.9539	
   690	-2.7654	-2.4583	-5.2238	-1.9573	-2.7579	-4.7149	-3.2050	-1.2924	-4.4978	55.9531	99.9569	
   691	-2.2384	-2.1756	-4.4142	-1.6266	-2.2627	-3.8890	-2.6901	-0.8438	-3.5343	55.6109	99.9542	
   692	-1.4117	-1.6479	-3.0598	-0.9625	-1.4816	-2.4438	-1.6374	-0.3810	-2.0187	56.2595	99.9383	
   693	-1.2762	-1.5505	-2.8268	-0.8802	-1.4599	-2.3398	-1.7736	-0.3887	-2.1628	56.0196	99.9353	
   694	-1.1656	-1.2876	-2.4534	-0.7191	-1.2219	-1.9407	-1.4470	-0.3280	-1.7754	56.7998	99.9286	
   695	-0.9723	-1.0900	-2.0625	-0.4782	-1.0060	-1.4838	-1.0889	-0.1611	-1.2504	57.1443	99.9271	
   696	-0.7014	-0.8950	-1.5966	-0.1762	-0.7530	-0.9289	-0.5939	-0.0980	-0.6923	57.8680	99.9165	
   697	-0.3060	-0.7894	-1.0956	 0.1708	-0.6134	-0.4423	-0.1650	-0.0625	-0.2280	58.2078	99.9110	
   698	-0.2502	-1.0182	-1.2687	 0.1396	-1.0258	-0.8859	-0.6319	-0.3327	-0.9650	57.5372	99.9187	
   699	-0.8957	-1.4046	-2.3005	-0.4491	-1.5224	-1.9712	-1.4055	-0.5270	-1.9328	56.7721	99.9371	
   700	-1.3281	-2.2862	-3.6145	-0.9875	-2.6772	-3.6644	-2.3798	-1.6022	-3.9824	56.5601	99.9430	
   701	-2.4308	-2.9462	-5.3772	-1.8391	-3.3890	-5.2279	-3.3351	-1.8068	-5.1424	55.5841	99.9653	
   702	-2.5175	-2.9489	-5.4666	-1.7618	-3.5812	-5.3427	-3.3778	-2.1314	-5.5096	56.4245	99.9599	
   703	-2.8801	-3.2315	-6.1118	-2.1402	-3.8803	-6.0202	-3.9764	-2.1949	-6.1717	55.4235	99.9669	
   704	-2.8611	-3.2038	-6.0651	-2.0706	-3.8242	-5.8945	-3.8127	-2.1581	-5.9712	55.6721	99.9665	
   705	-2.8631	-3.2378	-6.1011	-2.0722	-3.9797	-6.0517	-3.9516	-2.3418	-6.2938	55.8007	99.9658	
   706	-2.7436	-3.1171	-5.8608	-1.8798	-3.4558	-5.3354	-3.1408	-1.6768	-4.8179	55.7596	99.9717	
   707	-1.2594	-2.1467	-3.4063	-0.6627	-2.1575	-2.8199	-1.5396	-0.9941	-2.5341	56.7903	99.9420	
   708	-1.1398	-2.0260	-3.1660	-0.7001	-1.9131	-2.6130	-1.4843	-0.6742	-2.1589	56.1803	99.9460	
   709	-0.8599	-1.5307	-2.3907	-0.2014	-1.3164	-1.5175	-0.5143	-0.4358	-0.9505	57.8690	99.9285	
   710	-0.2144	-1.1443	-1.3589	 0.5121	-0.9551	-0.4427	 0.4344	-0.4841	-0.0501	59.4880	99.9072	
   711	-0.6188	-1.5502	-2.1693	-0.1504	-1.5807	-1.7307	-0.8883	-0.6621	-1.5509	57.3919	99.9338	
   712	-0.7394	-1.9829	-2.7226	-0.2240	-2.0889	-2.3127	-0.9904	-1.2592	-2.2500	58.0233	99.9295	
   713	-1.9856	-3.1713	-5.1572	-1.3893	-3.6370	-5.0260	-2.6482	-2.1630	-4.8116	56.7039	99.9657	
   714	-1.7356	-3.1856	-4.9214	-1.0863	-3.7488	-4.8349	-2.4143	-2.3949	-4.8096	57.3376	99.9612	
   715	-2.6092	-3.6265	-6.2360	-1.6843	-4.2792	-5.9632	-3.2112	-2.6656	-5.8772	56.9142	99.9679	
   716	-2.9230	-3.8144	-6.7376	-1.9448	-4.4507	-6.3952	-3.6903	-2.6691	-6.3598	56.1099	99.9692	
   717	-3.0495	-3.9065	-6.9562	-2.0975	-4.5431	-6.6403	-3.8559	-2.7445	-6.6008	55.9886	99.9701	
   718	-3.3244	-4.0219	-7.3465	-2.3324	-4.7836	-7.1157	-4.1151	-3.0009	-7.1164	56.3082	99.9720	
   719	-3.6352	-4.1587	-7.7941	-2.6158	-4.9690	-7.5845	-4.3969	-3.1964	-7.5937	56.4446	99.9726	
   720	-3.8822	-4.2411	-8.1235	-2.7718	-5.1196	-7.8911	-4.6234	-3.3210	-7.9447	56.5223	99.9726	
   721	-4.0067	-4.2992	-8.3061	-2.8354	-5.2002	-8.0354	-4.6340	-3.4021	-8.0365	56.7733	99.9735	
   722	-3.9539	-4.2840	-8.2381	-2.7667	-5.1587	-7.9251	-4.4817	-3.3349	-7.8170	56.8468	99.9755	
   723	-3.7109	-4.2696	-7.9807	-2.5767	-5.0578	-7.6342	-4.3080	-3.2298	-7.5382	56.5941	99.9736	
   724	-3.5545	-4.2579	-7.8127	-2.4138	-5.0436	-7.4571	-4.1577	-3.2010	-7.3592	56.6068	99.9738	
   725	-3.4499	-4.2445	-7.6947	-2.3086	-5.0081	-7.3163	-4.0836	-3.1437	-7.2277	56.4809	99.9734	
   726	-3.3374	-4.2427	-7.5803	-2.1915	-5.0216	-7.2127	-3.9353	-3.1535	-7.0892	56.6295	99.9747	
   727	-3.2139	-4.2015	-7.4156	-2.0821	-4.9132	-6.9950	-3.7108	-3.0675	-6.7787	56.7411	99.9745	
   728	-2.9848	-4.1299	-7.1149	-1.7783	-4.8841	-6.6621	-3.3781	-3.0155	-6.3941	57.0472	99.9762	
   729	-2.8454	-4.1120	-6.9576	-1.6782	-4.8095	-6.4874	-3.1283	-3.0635	-6.1922	57.4687	99.9731	
   730	-2.7238	-4.1048	-6.8289	-1.5153	-4.7953	-6.3102	-2.8443	-3.0784	-5.9231	57.8723	99.9736	
   731	-2.4011	-4.0591	-6.4605	-1.0936	-4.7651	-5.8583	-2.2805	-3.0608	-5.3417	58.4957	99.9750	
   732	-2.1402	-4.0340	-6.1744	-0.9383	-4.6290	-5.5670	-1.9752	-3.0379	-5.0135	58.6814	99.9712	
   733	-2.0167	-3.9928	-6.0097	-0.8187	-4.5988	-5.4172	-1.8857	-2.9339	-4.8200	58.4965	99.9741	
   734	-1.8523	-3.9928	-5.8453	-0.7279	-4.5580	-5.2856	-1.7206	-2.9959	-4.7169	58.7233	99.9709	
   735	-1.8364	-4.0160	-5.8526	-0.6991	-4.5686	-5.2674	-1.6572	-3.0197	-4.6773	58.8299	99.9704	
   736	-1.7996	-4.1251	-5.9248	-0.7126	-4.6752	-5.3875	-1.6872	-3.1001	-4.7877	58.7214	99.9717	
   737	-1.9061	-4.1725	-6.0788	-0.7575	-4.8148	-5.5720	-1.7259	-3.2232	-4.9495	59.0096	99.9744	
   738	-1.9231	-4.1662	-6.0895	-0.7142	-4.8307	-5.5447	-1.7680	-3.1615	-4.9299	58.8168	99.9760	
   739	-1.7129	-4.1224	-5.8355	-0.5064	-4.6769	-5.1830	-1.3244	-3.0922	-4.4171	59.2318	99.9734	
   740	-1.4091	-4.1044	-5.5137	-0.2162	-4.6279	-4.8438	-0.9603	-3.1831	-4.1438	59.7258	99.9682	
   741	-1.2876	-4.0972	-5.3850	-0.0915	-4.6368	-4.7280	-0.9303	-3.1027	-4.0333	59.4350	99.9709	
   742	-1.2368	-4.1160	-5.3530	 0.0197	-4.7522	-4.7322	-0.8881	-3.1643	-4.0529	59.5585	99.9741	
   743	-1.1711	-4.1749	-5.3462	-0.0236	-4.7362	-4.7595	-0.7739	-3.2072	-3.9815	59.6664	99.9732	
   744	-1.1034	-4.1999	-5.3035	 0.0486	-4.7629	-4.7140	-0.6810	-3.2879	-3.9693	59.8911	99.9713	
   745	-1.0715	-4.2464	-5.3181	 0.0825	-4.8126	-4.7298	-0.7531	-3.3067	-4.0602	59.6839	99.9711	
   746	-1.0904	-4.2741	-5.3648	 0.0512	-4.8456	-4.7942	-0.6415	-3.4010	-4.0429	60.0823	99.9710	
   747	-1.1044	-4.3644	-5.4690	 0.0376	-4.9522	-4.9143	-0.7351	-3.4576	-4.1930	59.9091	99.9723	
   748	-1.0028	-4.4019	-5.4049	 0.2252	-5.0215	-4.7960	-0.5573	-3.5243	-4.0820	60.1786	99.9723	
   749	-0.8554	-4.3956	-5.2512	 0.3253	-4.9469	-4.6213	-0.3469	-3.4592	-3.8065	60.2010	99.9721	
   750	-0.6811	-4.3732	-5.0545	 0.4958	-4.9280	-4.4319	-0.0843	-3.5119	-3.5966	60.5976	99.9708	
   751	-0.6493	-4.4197	-5.0691	 0.4840	-5.0055	-4.5212	-0.1718	-3.5773	-3.7495	60.4820	99.9714	
   752	-0.6981	-4.5145	-5.2127	 0.5044	-5.1617	-4.6570	-0.2232	-3.6956	-3.9192	60.5712	99.9729	
   753	-0.7190	-4.5761	-5.2953	 0.4569	-5.2186	-4.7614	-0.3081	-3.7096	-4.0180	60.3714	99.9742	
   754	-0.7728	-4.6083	-5.3813	 0.4357	-5.3298	-4.8937	-0.3889	-3.7709	-4.1602	60.3934	99.9769	
   755	-0.8276	-4.6575	-5.4853	 0.3543	-5.3369	-4.9823	-0.3681	-3.8704	-4.2390	60.6538	99.9740	
   756	-0.7609	-4.6995	-5.4606	 0.5130	-5.3955	-4.8822	-0.1817	-3.8946	-4.0767	60.8667	99.9753	
   757	-0.6752	-4.7138	-5.3892	 0.5995	-5.4274	-4.8276	-0.1817	-3.8946	-4.0767	60.7304	99.9758	
   758	-0.7121	-4.7522	-5.4645	 0.5376	-5.4789	-4.9410	-0.1904	-3.9372	-4.1280	60.7959	99.9773	
   759	-0.7141	-4.7862	-5.5005	 0.5716	-5.5287	-4.9568	-0.2839	-3.9937	-4.2781	60.7154	99.9754	
   760	-0.7479	-4.7737	-5.5218	 0.5767	-5.5677	-4.9907	-0.1783	-4.0792	-4.2580	61.1751	99.9761	
   761	-0.7081	-4.8318	-5.5401	 0.5674	-5.6015	-5.0338	-0.1997	-4.1171	-4.3172	61.0723	99.9756	
   762	-0.7101	-4.8658	-5.5761	 0.5581	-5.6352	-5.0769	-0.1576	-4.1787	-4.3367	61.2358	99.9753	
   763	-0.7290	-4.8935	-5.6227	 0.5487	-5.6690	-5.1199	-0.2297	-4.1975	-4.4276	61.1317	99.9751	
   764	-0.7101	-4.8658	-5.5761	 0.6013	-5.6512	-5.0496	-0.0433	-4.2216	-4.2653	61.5359	99.9753	
   765	-0.5557	-4.8881	-5.4440	 0.7168	-5.6938	-4.9768	 0.0202	-4.2454	-4.2257	61.4647	99.9762	
   766	-0.5577	-4.9220	-5.4799	 0.6735	-5.6778	-5.0041	-0.0012	-4.2833	-4.2849	61.4612	99.9735	
   767	-0.5209	-4.8836	-5.4046	 0.7261	-5.6601	-4.9337	 0.0709	-4.2645	-4.1940	61.5623	99.9743	
   768	-0.4591	-4.8630	-5.3223	 0.7642	-5.6370	-4.8724	 0.0288	-4.2028	-4.1744	61.2978	99.9748	
   769	-0.4422	-4.8693	-5.3116	 0.7982	-5.6867	-4.8882	 0.0202	-4.2454	-4.2257	61.3562	99.9755	
   770	-0.4711	-4.9193	-5.3906	 0.7600	-5.7098	-4.9495	-0.0520	-4.2642	-4.3166	61.2223	99.9745	
   771	-0.4890	-4.9301	-5.4192	 0.7074	-5.7276	-5.0198	 0.0409	-4.3449	-4.3044	61.5843	99.9746	
   772	-0.5239	-4.9345	-5.4586	 0.7074	-5.7276	-5.0198	 0.0770	-4.3978	-4.3212	61.8133	99.9726	
   773	-0.4571	-4.9765	-5.4339	 0.7847	-5.7933	-5.0083	-0.0099	-4.3259	-4.3362	61.3215	99.9762	
   774	-0.5079	-4.9578	-5.4659	 0.7074	-5.7276	-5.0198	 0.0770	-4.3978	-4.3212	61.7488	99.9722	
   775	-0.4711	-4.9193	-5.3906	 0.8373	-5.7755	-4.9379	 0.0623	-4.3071	-4.2452	61.5233	99.9769	
   776	-0.3575	-4.9005	-5.2582	 0.8508	-5.6690	-4.8178	 0.2487	-4.3312	-4.0830	61.7897	99.9729	
   777	-0.3894	-4.8540	-5.2436	 0.8941	-5.6849	-4.7905	 0.2487	-4.3312	-4.0830	61.9184	99.9740	
   778	-0.3037	-4.8683	-5.1722	 0.9323	-5.6619	-4.7293	 0.2279	-4.2317	-4.0042	61.4991	99.9755	
   779	-0.2310	-4.8084	-5.0396	 1.0230	-5.6210	-4.5977	 0.3001	-4.2130	-3.9133	61.5956	99.9748	
   780	-0.1414	-4.7547	-4.8963	 1.0629	-5.4423	-4.3792	 0.4363	-4.0807	-3.6448	61.4832	99.9715	
   781	 0.0778	-4.7055	-4.6279	 1.2156	-5.3500	-4.1341	 0.7076	-4.0909	-3.3837	61.7802	99.9684	
   782	 0.0638	-4.6483	-4.5847	 1.2156	-5.3500	-4.1341	 0.6568	-4.0718	-3.4154	61.7738	99.9700	
   783	 0.0479	-4.6251	-4.5774	 1.2105	-5.3109	-4.1001	 0.7289	-4.0530	-3.3245	61.9113	99.9697	
   784	 0.1356	-4.6054	-4.4700	 1.3089	-5.2654	-3.9563	 0.7717	-3.9774	-3.2061	61.7217	99.9694	
   785	 0.1127	-4.5535	-4.4411	 1.2316	-5.1997	-3.9678	 0.6447	-3.9297	-3.2854	61.5175	99.9680	
   786	 0.1485	-4.5321	-4.3837	 1.2409	-5.1660	-3.9247	 0.8351	-4.0012	-3.1665	62.0092	99.9661	
   787	 0.1316	-4.5258	-4.3944	 1.1977	-5.1500	-3.9520	 0.5304	-3.8868	-3.3568	61.2468	99.9664	
   788	-0.0009	-4.5723	-4.5734	 1.1044	-5.2345	-4.1299	 0.4877	-3.9625	-3.4752	61.4430	99.9682	
   789	 0.1147	-4.5196	-4.4051	 1.2095	-5.0726	-3.8628	 0.7295	-3.9157	-3.1866	61.6865	99.9622	
   790	 0.0649	-4.4838	-4.4191	 1.1849	-4.9891	-3.8039	 0.7242	-3.7696	-3.0458	61.4447	99.9636	
   791	 0.2492	-4.1441	-3.8951	 1.5080	-4.6250	-3.1167	 1.0855	-3.4140	-2.3289	61.5751	99.9617	
   792	 0.5390	-4.2164	-3.6776	 1.5395	-4.7184	-3.1787	 0.9967	-3.6295	-2.6333	61.4616	99.9575	
   793	 0.3807	-4.1145	-3.7341	 1.5894	-4.3650	-2.7753	 1.4949	-3.0044	-1.5099	61.1439	99.9664	
   794	 0.9315	-3.7192	-2.7879	 2.1018	-4.0410	-1.9390	 1.9752	-2.9751	-1.0003	61.9098	99.9560	
   795	 0.6067	-4.3889	-3.7824	 1.5202	-5.3063	-3.7858	 0.6469	-4.3890	-3.7426	62.3719	99.9578	
   796	-1.7202	-5.5687	-7.2891	-0.4139	-6.7712	-7.1848	-2.0085	-5.1869	-7.1958	60.5402	99.9764	
   797	-2.0259	-5.4732	-7.4993	-0.6406	-6.4867	-7.1270	-1.8743	-4.8442	-6.7190	60.4922	99.9792	
   798	-1.8217	-5.3837	-7.2056	-0.3318	-6.3702	-6.7016	-1.4895	-4.7856	-6.2756	60.9202	99.9764	
   799	-1.5966	-5.2326	-6.8293	-0.0798	-6.2178	-6.2973	-1.2210	-4.7227	-5.9441	61.2239	99.9726	
   800	-1.6693	-5.2925	-6.9620	-0.2054	-6.3499	-6.5550	-1.3880	-4.8238	-6.2121	61.1710	99.9759	
   801	-1.8048	-5.3900	-7.1949	-0.3861	-6.4171	-6.8028	-1.8235	-4.8633	-6.6872	60.4990	99.9715	
   802	-2.0747	-5.5679	-7.6429	-0.6685	-6.7144	-7.3826	-2.2644	-5.1301	-7.3949	60.4138	99.9730	
   803	-2.1763	-5.3829	-7.5594	-0.5303	-6.3638	-6.8938	-1.8450	-4.7767	-6.6220	60.7439	99.9706	
   804	-1.6373	-4.7490	-6.3865	-0.0810	-5.4736	-5.5543	-0.6868	-4.0259	-4.7131	61.3586	99.9723	
   805	-0.3076	-4.1988	-4.5066	 1.0541	-4.7028	-3.6484	 0.6793	-3.5104	-2.8315	61.7299	99.9610	
   806	 0.5869	-3.6961	-3.1094	 1.8735	-3.9121	-2.0383	 1.7393	-2.7817	-1.0428	61.5206	99.9541	
   807	 1.3011	-3.3178	-2.0168	 2.4290	-3.3512	-0.9219	 2.4393	-2.2585	 0.1804	61.2199	99.9507	
   808	 1.4087	-3.2534	-1.8449	 2.4681	-3.3136	-0.8452	 2.4620	-2.4439	 0.0177	61.6888	99.9404	
   809	 0.8429	-3.6084	-2.7657	 1.9770	-3.9057	-1.9284	 1.7721	-2.8988	-1.1272	61.7065	99.9513	
   810	 0.7433	-3.5369	-2.7938	 1.8674	-3.5082	-1.6406	 2.4172	-2.3092	 0.1077	61.5819	99.9593	
   811	 1.1557	-3.2901	-2.1346	 2.3510	-3.5530	-1.2016	 2.2437	-2.9122	-0.6688	62.7156	99.9302	
   812	 0.6616	-3.6022	-2.9408	 1.8276	-3.9398	-2.1119	 1.5911	-3.1453	-1.5546	62.2494	99.9398	
   813	 0.4643	-4.0153	-3.5511	 1.5513	-4.6410	-3.0894	 1.0502	-3.8461	-2.7963	62.5681	99.9459	
   814	 0.0678	-4.5804	-4.5127	 1.1664	-5.5624	-4.3957	 0.2307	-4.6782	-4.4479	62.7219	99.9539	
   815	-0.8785	-5.2287	-6.1074	 0.3862	-6.5683	-6.1819	-1.1452	-5.5109	-6.6566	62.4684	99.9580	
   816	-1.5917	-5.5901	-7.1820	-0.1907	-6.9875	-7.1779	-1.8847	-5.7966	-7.6817	62.1410	99.9597	
   817	-2.0708	-5.9425	-8.0135	-0.7209	-7.3644	-8.0850	-2.5794	-5.9681	-8.5480	61.2902	99.9674	
   818	-2.7452	-6.2314	-8.9768	-1.1550	-8.2453	-9.4000	-3.4257	-6.5674	-9.9935	61.6925	99.9823	
   819	-3.0738	-5.7890	-8.8630	-1.6045	-6.7183	-8.3225	-2.8765	-4.7038	-7.5807	59.1491	99.9877	
   820	-1.9401	-4.6025	-6.5428	-0.4128	-5.3511	-5.7636	-1.1992	-4.0497	-5.2493	61.2136	99.9635	
   821	-0.6084	-4.1658	-4.7744	 0.5731	-4.9937	-4.4204	-0.5004	-4.0500	-4.5508	61.5384	99.9460	
   822	-1.2100	-4.2473	-5.4575	 0.0283	-4.9859	-4.9573	-1.0116	-3.6747	-4.6867	60.3290	99.9626	
   823	-0.9669	-3.9380	-4.9051	 0.0765	-4.5352	-4.4584	-0.7772	-3.3959	-4.1735	60.3098	99.9561	
   824	-1.0137	-3.8513	-4.8652	 0.0858	-4.5014	-4.4153	-0.5240	-3.2552	-3.7796	60.6202	99.9667	
   825	-0.6432	-3.8753	-4.5187	 0.5398	-4.5501	-4.0100	-0.0389	-3.3849	-3.4242	61.2492	99.9636	
   826	-0.2049	-3.9243	-4.1295	 1.1102	-4.8797	-3.7692	 0.2251	-3.9097	-3.6850	62.3666	99.9555	
   827	-1.1323	-4.5450	-5.6775	 0.0802	-5.2356	-5.1552	-0.5966	-3.7846	-4.3817	60.6538	99.9740	
   828	-0.7698	-4.5574	-5.3274	 0.2593	-5.4505	-5.1909	-0.6086	-4.1404	-4.7494	61.0341	99.9731	
   829	-0.9371	-4.4609	-5.3982	 0.2431	-5.2214	-4.9781	-0.3768	-3.9130	-4.2902	61.2582	99.9715	
   830	-0.6821	-4.2427	-4.9250	 0.4865	-4.9618	-4.4750	-0.2238	-3.8329	-4.0571	61.4077	99.9610	
   831	-0.8863	-4.3322	-5.2186	 0.3457	-5.1031	-4.7571	-0.4189	-3.8514	-4.2707	61.2124	99.9666	
   832	-0.6243	-3.9951	-4.6195	 0.6764	-4.4815	-3.8048	 0.3632	-3.2411	-2.8783	61.3187	99.9642	
   833	-0.0186	-3.5506	-3.5694	 1.1471	-3.8596	-2.7122	 0.9770	-2.7576	-1.7810	61.2259	99.9563	
   834	 0.4227	-3.2537	-2.8312	 1.5882	-3.4944	-1.9059	 1.5628	-2.4404	-0.8780	61.4217	99.9543	
   835	 0.6478	-3.1025	-2.4550	 1.8036	-3.2095	-1.4056	 1.9001	-2.1740	-0.2743	61.3306	99.9512	
   836	 1.0104	-2.8199	-1.8098	 2.1844	-2.7403	-0.5556	 2.4124	-1.9013	 0.5107	61.5793	99.9365	
   837	 1.0881	-2.8226	-1.7347	 2.0267	-2.9200	-0.8931	 1.9315	-2.0679	-0.1368	61.0983	99.9405	
   838	 0.7215	-2.8781	-2.1568	 1.7221	-3.0902	-1.3678	 1.1812	-2.1858	-1.0049	60.4913	99.9369	
   839	 1.0612	-2.8387	-1.7777	 1.8231	-3.1275	-1.3041	 1.2061	-2.5816	-1.3759	61.1517	99.9185	
   840	 1.0890	-3.1006	-2.0118	 1.9463	-3.6713	-1.7246	 1.1222	-3.3295	-2.2077	62.3572	99.9077	
   841	 1.1029	-3.4528	-2.3501	 1.8276	-3.9398	-2.1119	 1.0334	-3.5451	-2.5121	62.0568	99.9114	
   842	 1.0302	-3.2177	-2.1877	 1.6264	-3.5978	-1.9710	 0.7934	-3.0554	-2.2624	60.9520	99.9189	
   843	 0.6697	-2.8764	-2.2068	 1.3335	-3.3111	-1.9773	 0.7057	-2.4985	-1.7932	60.5222	99.9434	
   844	 0.0721	-2.8900	-2.8180	 0.7871	-3.3325	-2.5451	 0.3121	-2.3508	-2.0390	60.2256	99.9547	
   845	-0.6780	-3.4373	-4.1154	 0.2621	-4.0013	-3.7389	-0.5055	-2.7709	-3.2767	59.7965	99.9627	
   846	-0.9170	-3.6787	-4.5960	 0.3471	-4.4418	-4.0943	-0.5667	-3.3308	-3.8980	60.9392	99.9559	
   847	-1.5606	-4.4736	-6.0344	-0.5239	-5.4886	-6.0122	-1.8305	-4.1205	-5.9514	60.0431	99.9714	
   848	-1.7259	-4.4907	-6.2168	-0.4654	-5.3689	-5.8340	-1.5379	-3.9684	-5.5067	60.3603	99.9702	
   849	-1.6383	-4.4710	-6.1094	-0.3313	-5.3440	-5.6750	-1.2626	-4.0259	-5.2889	60.9075	99.9685	
   850	-1.6442	-4.4254	-6.0698	-0.3993	-5.2445	-5.6435	-1.2774	-3.9352	-5.2130	60.7484	99.9682	
   851	-1.7130	-4.4174	-6.1305	-0.4128	-5.3511	-5.7636	-1.4364	-4.0065	-5.4433	60.7577	99.9698	
   852	-1.1671	-3.8120	-4.9793	 0.2188	-3.9853	-3.7662	 0.1893	-2.7239	-2.5349	60.7864	99.9589	
   853	-0.0006	-3.0974	-3.0982	 1.0544	-3.2973	-2.2426	 0.7457	-2.3498	-1.6045	60.6643	99.9432	
   854	 0.1319	-3.0509	-2.9192	 1.0569	-3.2536	-2.1964	 0.4718	-2.5155	-2.0441	60.5267	99.9253	
   855	 0.4436	-2.8970	-2.4536	 1.1842	-3.3452	-2.1607	 0.5876	-3.0306	-2.4434	61.9065	99.9095	
   856	 0.6098	-3.6005	-2.9908	 1.2287	-4.3583	-3.1292	 0.2158	-4.0897	-3.8742	62.4071	99.9096	
   857	-0.0029	-4.4588	-4.4619	 0.8151	-5.3955	-4.5801	-0.8254	-4.9564	-5.7822	61.9560	99.9016	
   858	-0.5418	-4.7978	-5.3397	 0.4631	-5.7489	-5.2855	-1.2884	-5.0249	-6.3137	61.3524	99.9155	
   859	-0.0367	-4.2988	-4.3357	 0.7751	-5.0683	-4.2930	-0.4908	-4.4925	-4.9837	61.6900	99.9197	
   860	 0.3041	-3.6524	-3.3485	 0.8613	-4.3416	-3.4800	-0.1297	-3.6390	-3.7691	60.9392	99.9394	
   861	 0.1538	-3.1197	-2.9661	 0.7286	-3.5786	-2.8497	 0.0597	-2.7276	-2.6683	60.1860	99.9465	
   862	-0.1022	-3.0599	-3.1623	 0.8253	-3.4358	-2.6102	 0.4391	-2.3984	-1.9597	60.4647	99.9544	
   863	-0.0175	-3.0911	-3.1089	 0.9602	-3.3964	-2.4359	 0.6575	-2.4280	-1.7709	60.7404	99.9493	
   864	-0.3194	-3.5176	-3.8372	 0.4888	-4.2858	-3.7967	-0.6389	-3.3496	-3.9889	60.3904	99.9488	
   865	-1.4419	-3.7799	-5.2221	-0.3088	-4.3185	-4.6271	-0.8193	-3.3343	-4.1539	60.9976	99.9516	
   866	-0.4877	-3.5856	-4.0736	 0.5610	-4.4389	-3.8776	-0.3647	-4.0551	-4.4202	62.7639	99.9160	
   867	-0.1722	-4.3963	-4.5687	 0.6107	-5.6175	-5.0065	-1.3177	-5.0925	-6.4106	61.7939	99.9130	
   868	-0.8973	-4.8140	-5.7115	 0.0873	-6.0043	-5.9167	-2.2998	-5.1889	-7.4890	60.4001	99.9066	
   869	-0.7718	-4.5914	-5.3633	 0.1347	-5.6946	-5.5596	-1.5569	-4.9634	-6.5207	61.4331	99.9291	
   870	-0.5585	-3.9066	-4.4653	 0.2692	-4.7700	-4.5005	-0.9447	-3.8832	-4.8283	60.7763	99.9468	
   871	-0.8104	-3.4838	-4.2944	-0.0569	-4.1661	-4.2227	-0.9697	-2.9896	-3.9597	59.6137	99.9635	
   872	-0.9937	-3.3641	-4.3580	 0.0482	-3.8777	-3.8292	-0.5509	-2.8979	-3.4492	60.5810	99.9501	
   873	-1.3413	-3.6869	-5.0284	-0.3614	-4.3363	-4.6974	-1.2763	-3.1627	-4.4394	59.8229	99.9592	
   874	-1.9350	-4.0751	-6.0103	-0.9712	-5.0705	-6.0415	-2.3758	-3.6538	-6.0300	59.1497	99.9719	
   875	-1.7099	-3.9239	-5.6340	-0.6014	-4.7906	-5.3917	-1.7191	-3.5925	-5.3120	60.1596	99.9615	
   876	-1.7985	-3.8131	-5.6118	-0.5990	-4.3676	-4.9663	-1.3365	-2.9501	-4.2871	59.5519	99.9679	
   877	-0.7078	-3.0619	-3.7698	 0.5325	-3.1492	-2.6164	 0.3814	-1.8855	-1.5045	59.8886	99.9562	
   878	 0.0344	-2.2079	-2.1737	 1.2941	-2.2107	-0.9163	 1.8597	-1.3270	 0.5323	61.6081	99.9462	
   879	 0.8353	-1.8269	-0.9918	 1.6987	-1.9660	-0.2669	 2.1737	-1.3859	 0.7874	61.9817	99.9377	
   880	 1.2716	-1.4674	-0.1960	 2.1568	-1.5624	 0.5946	 2.5706	-1.4694	 1.1008	62.9580	99.9043	
   881	 1.0763	-1.5515	-0.4753	 1.7453	-1.6708	 0.0748	 1.6126	-1.6010	 0.0112	61.8080	99.8912	
   882	-0.0791	-1.9318	-2.0110	 0.7434	-2.3049	-1.5612	-0.0602	-1.6673	-1.7280	59.8902	99.9220	
   883	-0.7236	-2.3012	-3.0249	 0.0690	-2.7549	-2.6856	-0.7395	-2.1656	-2.9055	60.0918	99.9221	
   884	-1.3790	-2.7099	-4.0891	-0.4204	-3.1915	-3.6116	-1.2011	-2.4573	-3.6588	60.0980	99.9305	
   885	-1.6928	-3.0452	-4.7382	-0.6010	-3.6380	-4.2387	-1.4267	-2.8180	-4.2452	60.3810	99.9369	
   886	-1.8681	-3.2321	-5.1004	-0.8096	-3.9328	-4.7421	-1.9838	-3.0805	-5.0647	59.9361	99.9336	
   887	-2.3014	-3.3931	-5.6947	-1.2168	-4.2212	-5.4378	-2.7093	-3.2208	-5.9305	59.2614	99.9379	
   888	-2.5932	-3.3548	-5.9482	-1.4477	-4.1360	-5.5834	-2.7428	-3.1165	-5.8597	59.4063	99.9421	
   889	-2.4836	-2.9614	-5.4452	-1.3172	-3.6636	-4.9805	-2.4402	-2.7716	-5.2122	59.6847	99.9355	
   890	-1.8869	-2.5223	-4.4094	-0.9067	-3.1904	-4.0968	-1.8625	-2.3597	-4.2226	59.7181	99.9394	
   891	-1.3620	-2.2737	-3.6358	-0.4894	-2.7272	-3.2163	-1.1585	-2.0083	-3.1671	59.8567	99.9333	
   892	-0.9895	-2.2637	-3.2534	-0.1958	-2.7464	-2.9419	-0.9167	-1.8371	-2.7541	59.3838	99.9463	
   893	-0.8022	-2.3155	-3.1179	 0.1173	-2.6835	-2.5659	-0.3930	-1.5948	-1.9882	59.3596	99.9545	
   894	-0.6339	-2.3950	-3.0291	 0.2421	-2.8189	-2.5764	-0.2426	-1.8150	-2.0580	59.7915	99.9531	
   895	-1.1689	-2.8135	-3.9826	-0.2957	-3.3268	-3.6222	-1.1590	-2.2701	-3.4295	59.2314	99.9511	
   896	-1.6579	-3.0407	-4.6989	-0.5892	-3.5606	-4.1494	-1.4777	-2.3011	-3.7792	58.9667	99.9584	
   897	-1.1828	-2.9038	-4.0868	-0.1319	-3.2980	-3.4296	-0.8845	-2.2159	-3.1008	59.4282	99.9478	
   898	-1.0205	-3.0852	-4.1059	-0.0503	-3.5438	-3.5939	-0.8850	-2.4777	-3.3632	59.5200	99.9487	
   899	-1.2506	-3.3213	-4.5721	-0.2403	-3.8976	-4.1376	-1.2885	-2.7717	-4.0605	59.3987	99.9505	
   900	-1.3124	-3.3419	-4.6544	-0.2836	-3.8816	-4.1649	-1.1983	-2.6549	-3.8536	59.3103	99.9575	
   901	-1.1391	-3.1889	-4.3282	-0.2234	-3.6064	-3.8295	-0.9813	-2.3368	-3.3185	58.9655	99.9602	
   902	-1.5923	-3.6897	-5.2822	-0.6872	-4.4912	-5.1781	-2.1628	-3.2884	-5.4516	58.8848	99.9539	
   903	-2.2766	-3.8535	-6.1303	-1.1012	-4.6432	-5.7442	-2.3539	-3.3542	-5.7085	59.3198	99.9590	
   904	-2.3623	-3.9867	-6.3492	-1.2514	-4.8183	-6.0694	-2.6698	-3.4583	-6.1285	58.8726	99.9611	
   905	-2.6073	-4.1825	-6.7901	-1.4812	-5.0979	-6.5788	-3.1508	-3.6249	-6.7761	58.3732	99.9630	
   906	-2.8922	-4.3203	-7.2127	-1.7120	-5.2656	-6.9772	-3.3011	-3.7781	-7.0795	58.6138	99.9658	
   907	-3.2747	-4.5001	-7.7750	-2.0894	-5.5501	-7.6392	-3.6644	-4.1722	-7.8370	59.1334	99.9640	
   908	-3.1791	-4.3445	-7.5238	-1.8129	-5.2283	-7.0409	-3.2777	-3.7017	-6.9798	58.8100	99.9654	
   909	-3.0098	-4.4071	-7.4170	-1.7832	-5.3508	-7.1337	-3.3625	-3.8402	-7.2031	58.6533	99.9663	
   910	-2.7996	-4.2157	-7.0154	-1.5440	-5.0375	-6.5812	-2.9664	-3.5631	-6.5299	58.7552	99.9638	
   911	-2.6581	-4.1638	-6.8221	-1.4991	-5.0244	-6.5231	-2.9751	-3.6057	-6.5812	58.7535	99.9627	
   912	-2.6890	-4.1003	-6.7895	-1.4134	-4.9444	-6.3575	-2.8455	-3.4775	-6.3234	58.8292	99.9637	
   913	-2.5336	-3.9582	-6.4919	-1.3286	-4.7526	-6.0809	-2.6398	-3.3779	-6.0181	59.0116	99.9615	
   914	-2.4629	-3.9322	-6.3953	-1.2811	-4.6958	-5.9766	-2.6078	-3.2589	-5.8671	58.7238	99.9637	
   915	-2.4250	-3.8768	-6.3020	-1.2480	-4.6336	-5.8814	-2.4381	-3.2309	-5.6694	59.0139	99.9650	
   916	-2.3035	-3.7221	-6.0258	-1.1175	-4.4141	-5.5313	-2.1662	-3.1037	-5.2703	59.3124	99.9613	
   917	-2.1531	-3.6648	-5.8181	-0.9902	-4.3793	-5.3692	-2.0981	-3.0376	-5.1361	59.1761	99.9627	
   918	-2.2576	-3.6783	-5.9361	-1.0742	-4.4301	-5.5040	-2.1662	-3.1037	-5.2703	59.3346	99.9633	
   919	-2.3074	-3.6425	-5.9502	-1.1107	-4.2976	-5.4080	-2.1188	-2.9381	-5.0573	59.1396	99.9632	
   920	-2.0186	-3.4368	-5.4556	-0.7663	-3.9488	-4.7148	-1.5256	-2.7285	-4.2545	59.6691	99.9560	
   921	-2.0156	-3.5334	-5.5492	-0.9818	-4.1072	-5.0887	-1.9338	-2.8635	-4.7977	59.0997	99.9584	
   922	-2.1381	-3.5576	-5.6959	-0.9571	-4.3171	-5.2740	-2.0981	-3.0376	-5.1361	59.3604	99.9602	
   923	-2.3213	-3.4378	-5.7594	-1.0405	-3.7211	-4.7613	-1.5172	-2.1880	-3.7056	58.7579	99.9680	
   924	-1.3162	-2.6723	-3.9888	 0.0665	-2.7986	-2.7319	-0.2907	-1.7446	-2.0357	59.8992	99.9400	
   925	-1.3979	-2.4426	-3.8407	-0.2340	-2.6431	-2.8767	-0.5882	-1.2399	-1.8285	58.7055	99.9635	
   926	-1.0502	-2.1198	-3.1702	-0.1000	-2.3653	-2.4650	-0.4224	-1.4135	-1.8363	59.5503	99.9461	
   927	-1.4935	-2.4507	-3.9444	-0.6582	-2.8434	-3.5013	-1.5774	-1.8510	-3.4288	58.5666	99.9418	
   928	-2.0503	-2.5054	-4.5559	-1.1808	-3.0892	-4.2697	-2.3068	-2.1929	-4.5001	58.7549	99.9370	
   929	-2.8661	-2.9937	-5.8600	-1.8491	-3.9432	-5.7919	-3.5974	-2.7498	-6.3476	57.9774	99.9485	
   930	-3.1679	-3.1252	-6.2933	-2.0790	-4.0963	-6.1749	-3.6147	-2.8350	-6.4502	58.3293	99.9581	
   931	-2.9278	-3.1618	-6.0899	-1.8270	-4.0703	-5.8970	-3.2199	-2.7081	-5.9285	58.3328	99.9646	
   932	-2.6121	-3.0875	-5.6998	-1.3595	-3.8859	-5.2451	-2.2338	-2.6591	-4.8934	59.6973	99.9636	
   933	-2.0613	-2.9872	-5.0487	-0.7571	-3.6621	-4.4190	-1.5171	-2.4370	-3.9544	59.8643	99.9613	
   934	-1.6499	-2.9048	-4.5550	-0.3728	-3.3876	-3.7601	-1.0802	-2.2473	-3.3279	59.7723	99.9517	
   935	-1.4418	-2.7474	-4.1894	-0.1583	-3.1172	-3.2752	-0.7723	-2.0485	-2.8211	59.8392	99.9457	
   936	-1.2824	-2.6848	-3.9674	-0.0353	-3.0288	-3.0638	-0.5792	-2.0685	-2.6481	60.1306	99.9406	
   937	-1.1728	-2.5865	-3.7595	 0.1072	-2.8583	-2.7508	-0.4577	-1.8456	-2.3037	59.8357	99.9399	
   938	-0.9377	-2.4130	-3.3509	 0.2895	-2.5091	-2.2193	-0.1144	-1.5880	-1.7028	59.8147	99.9322	
   939	-0.8371	-2.3200	-3.1573	 0.3811	-2.4537	-2.0723	-0.1532	-1.4621	-1.6157	59.4866	99.9350	
   940	-0.8690	-2.2735	-3.1427	 0.3404	-2.3940	-2.0534	-0.1532	-1.4621	-1.6157	59.6128	99.9319	
   941	-0.9945	-2.3486	-3.3433	 0.2072	-2.5308	-2.3233	-0.4564	-1.5710	-2.0278	59.3799	99.9315	
   942	-1.0851	-2.4193	-3.5046	 0.1564	-2.6459	-2.4892	-0.4811	-1.6731	-2.1546	59.5722	99.9342	
   943	-1.2047	-2.5400	-3.7448	 0.0207	-2.8263	-2.8054	-0.6508	-1.8255	-2.4767	59.5827	99.9378	
   944	-1.3999	-2.6241	-4.0242	-0.1940	-2.9702	-3.1639	-0.9627	-1.9770	-2.9401	59.5110	99.9373	
   945	-1.6061	-2.7475	-4.3538	-0.3653	-3.1300	-3.4951	-1.1765	-2.1063	-3.2832	59.4959	99.9388	
   946	-1.6479	-2.8709	-4.5190	-0.5002	-3.2959	-3.7958	-1.4055	-2.2823	-3.6883	59.3531	99.9389	
   947	-1.7974	-2.9111	-4.7087	-0.6325	-3.4181	-4.0503	-1.5171	-2.4370	-3.9544	59.6620	99.9405	
   948	-1.8900	-3.0158	-4.9060	-0.7572	-3.5357	-4.2926	-1.6580	-2.5347	-4.1931	59.5820	99.9423	
   949	-1.9607	-3.0417	-5.0026	-0.8004	-3.6462	-4.4463	-1.8049	-2.6236	-4.4290	59.5894	99.9437	
   950	-2.0753	-3.0775	-5.1530	-0.9616	-3.6313	-4.5926	-1.9700	-2.5617	-4.5321	59.2267	99.9452	
   951	-2.0414	-3.0900	-5.1316	-0.8751	-3.6632	-4.5380	-1.9613	-2.5191	-4.4808	59.0671	99.9473	
   952	-1.9279	-3.0712	-4.9993	-0.8318	-3.5527	-4.3843	-1.7723	-2.4918	-4.2645	59.2190	99.9440	
   953	-1.9438	-3.0480	-4.9920	-0.8318	-3.5527	-4.3843	-1.7723	-2.4918	-4.2645	59.2841	99.9446	
   954	-1.9617	-3.0587	-5.0206	-0.8777	-3.5805	-4.4578	-1.8357	-2.4680	-4.3041	59.1160	99.9484	
   955	-1.9886	-3.0748	-5.0636	-0.9065	-3.5698	-4.4760	-1.7876	-2.5385	-4.3265	59.3817	99.9446	
   956	-2.0225	-3.0623	-5.0850	-0.9591	-3.5876	-4.5464	-1.8892	-2.5003	-4.3899	59.1758	99.9481	
   957	-2.0583	-3.0838	-5.1423	-1.0024	-3.5716	-4.5737	-2.0034	-2.4574	-4.4613	58.8732	99.9465	
   958	-2.0912	-3.0543	-5.1457	-0.9905	-3.6206	-4.6108	-1.9526	-2.4765	-4.4295	59.1106	99.9515	
   959	-2.1071	-3.0310	-5.1384	-1.0338	-3.6046	-4.6381	-2.0542	-2.4384	-4.4930	58.9002	99.9520	
   960	-2.1241	-3.0248	-5.1490	-1.0745	-3.5449	-4.6192	-2.0008	-2.4060	-4.4072	58.9495	99.9512	
   961	-1.9916	-2.9783	-4.9700	-0.9066	-3.4433	-4.3496	-1.9019	-2.2466	-4.1490	58.6413	99.9501	
   962	-1.9109	-2.9300	-4.8411	-0.8319	-3.4263	-4.2579	-1.7456	-2.3512	-4.0972	59.1611	99.9465	
   963	-1.9109	-2.9300	-4.8411	-0.9159	-3.3506	-4.2663	-1.7877	-2.2895	-4.0776	58.9336	99.9452	
   964	-1.8940	-2.9362	-4.8304	-0.9159	-3.3506	-4.2663	-1.9501	-2.1762	-4.1266	58.3289	99.9477	
   965	-1.9338	-2.8781	-4.8121	-0.9787	-3.2903	-4.2687	-1.7723	-2.2429	-4.0156	58.9735	99.9467	
   966	-1.9308	-2.8272	-4.7582	-0.9474	-3.2572	-4.2043	-1.9768	-2.0679	-4.0451	58.2679	99.9493	
   967	-1.9537	-2.7753	-4.7292	-0.9448	-3.2135	-4.1581	-1.9107	-2.0403	-3.9514	58.4464	99.9498	
   968	-1.9706	-2.7691	-4.7399	-0.9881	-3.1976	-4.1854	-1.9742	-2.0165	-3.9910	58.3085	99.9498	
   969	-2.0155	-2.7959	-4.8116	-1.0195	-3.2306	-4.2498	-1.9768	-2.0679	-4.0451	58.4405	99.9495	
   970	-2.0393	-2.7611	-4.8006	-0.9906	-3.2412	-4.2316	-2.0223	-1.9460	-3.9687	58.1563	99.9559	
   971	-1.9238	-2.7083	-4.6323	-0.9041	-3.1468	-4.0506	-1.7784	-1.9851	-3.7640	58.6319	99.9513	
   972	-1.8551	-2.7163	-4.5716	-0.8583	-3.1190	-3.9771	-1.7758	-1.9337	-3.7099	58.4033	99.9506	
   973	-1.8959	-2.6752	-4.5713	-0.8991	-3.0594	-3.9581	-1.7123	-1.9576	-3.6703	58.7062	99.9477	
   974	-1.9118	-2.6520	-4.5640	-0.8991	-3.0594	-3.9581	-1.8900	-1.8908	-3.7813	58.2901	99.9477	
   975	-1.9626	-2.6332	-4.5960	-0.9424	-3.0434	-3.9854	-1.8419	-1.9613	-3.8036	58.6528	99.9450	
   976	-1.9228	-2.6913	-4.6143	-0.9882	-3.0711	-4.0590	-1.8266	-1.9147	-3.7416	58.4033	99.9510	
   977	-2.0314	-2.6252	-4.6567	-1.0289	-3.0114	-4.0400	-1.8927	-1.9423	-3.8353	58.6223	99.9444	
   978	-2.0483	-2.6189	-4.6674	-1.0603	-3.0445	-4.1045	-2.0043	-1.8480	-3.8527	58.2253	99.9516	
   979	-2.0762	-2.6520	-4.7284	-1.0628	-3.0882	-4.1507	-2.0704	-1.8755	-3.9464	58.1501	99.9509	
   980	-2.0483	-2.6189	-4.6674	-1.0170	-3.0604	-4.0772	-1.8900	-1.8908	-3.7813	58.5348	99.9517	
   981	-1.9447	-2.6225	-4.5674	-0.9398	-2.9997	-3.9392	-1.8747	-1.8442	-3.7193	58.3022	99.9473	
   982	-1.9796	-2.6269	-4.6067	-0.9856	-3.0274	-4.0127	-1.8900	-1.8908	-3.7813	58.4278	99.9481	
   983	-1.9835	-2.5474	-4.5311	-0.9399	-2.8733	-3.8128	-1.8387	-1.6481	-3.4872	58.0783	99.9496	
   984	-1.8142	-2.3149	-4.1293	-0.7381	-2.3156	-3.0534	-1.2737	-0.9825	-2.2566	57.6756	99.9514	
   985	-1.1527	-1.6568	-2.8097	 0.0727	-1.4176	-1.3446	 0.0156	-0.7002	-0.6850	59.5561	99.9134	
   986	-1.3041	-1.7310	-3.0353	-0.2700	-1.7373	-2.0070	-0.8249	-0.6860	-1.5112	58.1427	99.9361	
   987	-1.8051	-1.8671	-3.6724	-0.8189	-2.0552	-2.8738	-1.3913	-0.8794	-2.2712	58.0248	99.9504	
   988	-2.3171	-2.0424	-4.3597	-1.3431	-2.4566	-3.7994	-2.1996	-1.2441	-3.4441	57.8315	99.9543	
   989	-2.7026	-2.1257	-4.8285	-1.7333	-2.7067	-4.4397	-2.7941	-1.6039	-4.3983	58.0099	99.9495	
   990	-3.2514	-2.4870	-5.7386	-2.3678	-3.3574	-5.7249	-4.0445	-2.2610	-6.3059	57.4165	99.9443	
   991	-3.8750	-2.7947	-6.6699	-2.9777	-3.8388	-6.8162	-4.7138	-2.6910	-7.4052	57.5361	99.9522	
   992	-4.1828	-3.0281	-7.2111	-3.2084	-4.1329	-7.3410	-5.0337	-2.8722	-7.9063	57.3757	99.9567	
   993	-4.2406	-3.1283	-7.3690	-3.1795	-4.1435	-7.3228	-4.9108	-2.7480	-7.6592	57.1799	99.9617	
   994	-3.7405	-2.8617	-6.6024	-2.5926	-3.5496	-6.1419	-3.8635	-2.1391	-6.0029	57.4175	99.9613	
   995	-2.7992	-2.4458	-5.2452	-1.6111	-2.8857	-4.4965	-2.4968	-1.6107	-4.1078	58.0941	99.9543	
   996	-2.1996	-2.2507	-4.4505	-1.1004	-2.5909	-3.6909	-1.9169	-1.4092	-3.3265	58.1953	99.9488	
   997	-2.0811	-2.2944	-4.3757	-1.0163	-2.6665	-3.6826	-1.9022	-1.6243	-3.5269	58.5083	99.9406	
   998	-2.1538	-2.5019	-4.6559	-1.1036	-3.0285	-4.1318	-2.2535	-1.9116	-4.1655	58.2966	99.9443	
   999	-2.2077	-2.6816	-4.8894	-1.2622	-3.2228	-4.4847	-2.4324	-2.2440	-4.6768	58.5338	99.9375	
  1000	-2.3641	-2.8407	-5.2050	-1.4326	-3.4945	-4.9269	-2.7557	-2.3650	-5.1211	58.1585	99.9474	
  1001	-2.4806	-2.9105	-5.3913	-1.4996	-3.6334	-5.1327	-2.9408	-2.4396	-5.3808	58.0336	99.9496	
  1002	-2.5633	-2.9927	-5.5562	-1.5836	-3.6842	-5.2675	-2.9521	-2.5336	-5.4861	58.2061	99.9478	
  1003	-2.6599	-3.0178	-5.6779	-1.6583	-3.7013	-5.3592	-3.1131	-2.5190	-5.6325	57.9585	99.9463	
  1004	-2.7117	-3.0160	-5.7279	-1.7058	-3.7581	-5.4635	-3.1218	-2.5616	-5.6838	58.1249	99.9507	
  1005	-2.7476	-3.0375	-5.7853	-1.6939	-3.8071	-5.5007	-3.3162	-2.4427	-5.7594	57.4746	99.9545	
  1006	-2.7296	-3.0268	-5.7566	-1.6532	-3.7403	-5.3932	-3.0536	-2.4955	-5.5495	58.0880	99.9514	
  1007	-2.6450	-3.0580	-5.7032	-1.5810	-3.7670	-5.3477	-2.9521	-2.5336	-5.4861	58.1937	99.9517	
  1008	-2.7087	-3.1126	-5.8215	-1.6650	-3.8178	-5.4825	-3.1725	-2.5425	-5.7155	57.7944	99.9504	
  1009	-2.7446	-3.1340	-5.8788	-1.7371	-3.7911	-5.5280	-3.1218	-2.5616	-5.6838	57.9447	99.9500	
  1010	-2.7446	-3.1340	-5.8788	-1.6939	-3.8071	-5.5007	-3.2147	-2.4809	-5.6959	57.5707	99.9515	
  1011	-2.7446	-3.1340	-5.8788	-1.6939	-3.8071	-5.5007	-3.1131	-2.5190	-5.6325	57.8539	99.9523	
  1012	-2.7784	-3.1215	-5.9002	-1.7346	-3.7474	-5.4817	-3.1639	-2.4999	-5.6642	57.7832	99.9478	
  1013	-2.7794	-3.1385	-5.9182	-1.7320	-3.8302	-5.5619	-3.1218	-2.5616	-5.6838	57.9843	99.9528	
  1014	-2.7615	-3.1278	-5.8895	-1.7058	-3.7581	-5.4635	-3.1018	-2.4250	-5.5272	57.6750	99.9537	
  1015	-2.6450	-3.0580	-5.7032	-1.5836	-3.6842	-5.2675	-2.8900	-2.4587	-5.3490	58.1196	99.9498	
  1016	-2.5583	-3.0553	-5.6138	-1.5429	-3.6174	-5.1600	-2.7584	-2.4164	-5.1751	58.1406	99.9493	
  1017	-2.5643	-3.0097	-5.5742	-1.5429	-3.6174	-5.1600	-2.8573	-2.3268	-5.1845	57.8313	99.9534	
  1018	-2.5822	-3.0205	-5.6029	-1.5429	-3.6174	-5.1600	-2.7557	-2.3650	-5.1211	58.1160	99.9532	
  1019	-2.5464	-2.9990	-5.5456	-1.5455	-3.5347	-5.0798	-2.6836	-2.3462	-5.0302	58.1922	99.9499	
  1020	-2.5643	-3.0097	-5.5742	-1.5769	-3.5677	-5.1443	-2.7076	-2.4354	-5.1434	58.3751	99.9479	
  1021	-2.6101	-3.0535	-5.6639	-1.6150	-3.5908	-5.2055	-2.8573	-2.3268	-5.1845	57.8114	99.9516	
  1022	-2.6440	-3.0410	-5.6852	-1.6583	-3.5748	-5.2328	-2.8065	-2.3459	-5.1528	58.0216	99.9521	
  1023	-2.5961	-2.9633	-5.5596	-1.5794	-3.4849	-5.0641	-2.7230	-2.2331	-4.9566	57.9750	99.9525	
  1024	-2.4826	-2.9444	-5.4272	-1.4666	-3.4448	-4.9111	-2.6001	-2.2334	-4.8339	58.0796	99.9497	
  1025	-2.4308	-2.9462	-5.3772	-1.4233	-3.4608	-4.8838	-2.5467	-2.2011	-4.7482	58.0225	99.9534	
  1026	-2.4467	-2.9230	-5.3699	-1.4980	-3.3514	-4.8491	-2.5440	-2.1497	-4.6941	57.9656	99.9498	
  1027	-2.4696	-2.8711	-5.3410	-1.3919	-3.4277	-4.8194	-2.5440	-2.1497	-4.6941	58.0943	99.9541	
  1028	-2.4517	-2.8604	-5.3123	-1.4547	-3.3674	-4.8218	-2.5861	-2.0880	-4.6746	57.8611	99.9542	
  1029	-2.4796	-2.8935	-5.3733	-1.4547	-3.3674	-4.8218	-2.5861	-2.0880	-4.6746	57.8370	99.9525	
  1030	-2.5204	-2.8524	-5.3730	-1.4980	-3.3514	-4.8491	-2.5226	-2.1119	-4.6349	58.1435	99.9539	
  1031	-2.4676	-2.8372	-5.3050	-1.4641	-3.2747	-4.7385	-2.4478	-2.0417	-4.4899	58.0623	99.9526	
  1032	-2.3880	-2.8059	-5.1940	-1.3801	-3.2239	-4.6037	-2.3944	-2.0094	-4.4042	58.0298	99.9500	
  1033	-2.3362	-2.8076	-5.1440	-1.3080	-3.2505	-4.5582	-2.3791	-1.9627	-4.3422	57.8691	99.9533	
  1034	-2.4039	-2.7826	-5.1867	-1.3801	-3.2239	-4.6037	-2.3944	-2.0094	-4.4042	58.0949	99.9506	
  1035	-2.4218	-2.7934	-5.2154	-1.3827	-3.2675	-4.6499	-2.4452	-1.9903	-4.4359	57.9604	99.9539	
  1036	-2.4557	-2.7809	-5.2367	-1.3827	-3.2675	-4.6499	-2.3944	-2.0094	-4.4042	58.1683	99.9540	
  1037	-2.4895	-2.7684	-5.2581	-1.4208	-3.2906	-4.7112	-2.5594	-1.9474	-4.5072	57.7868	99.9569	
  1038	-2.5174	-2.8014	-5.3191	-1.5074	-3.2587	-4.7658	-2.5113	-2.0179	-4.5296	58.0235	99.9531	
  1039	-2.5334	-2.7782	-5.3118	-1.4981	-3.2249	-4.7227	-2.4960	-1.9712	-4.4676	58.0014	99.9532	
  1040	-2.4377	-2.7701	-5.2081	-1.4234	-3.2079	-4.6310	-2.4425	-1.9389	-4.3818	57.9038	99.9536	
  1041	-2.4487	-2.8095	-5.2584	-1.4259	-3.2516	-4.6772	-2.4452	-1.9903	-4.4359	57.9668	99.9531	
  1042	-2.4318	-2.8157	-5.2477	-1.5074	-3.1322	-4.6394	-2.4425	-1.9389	-4.3818	57.8105	99.9482	
  1043	-2.4527	-2.7299	-5.1828	-1.3776	-3.1802	-4.5575	-2.4212	-1.9011	-4.3226	57.9448	99.9530	
  1044	-2.4537	-2.7469	-5.2008	-1.4209	-3.1642	-4.5848	-2.4212	-1.9011	-4.3226	57.9144	99.9526	
  1045	-2.5045	-2.7281	-5.2328	-1.4642	-3.1482	-4.6121	-2.4846	-1.8772	-4.3623	57.8451	99.9525	
  1046	-2.5224	-2.7389	-5.2615	-1.5363	-3.1216	-4.6576	-2.5441	-1.9008	-4.4453	57.7997	99.9495	
  1047	-2.5573	-2.7433	-5.3008	-1.5388	-3.1653	-4.7038	-2.6584	-1.8579	-4.5166	57.5259	99.9525	
  1048	-2.5065	-2.7621	-5.2688	-1.5363	-3.1216	-4.6576	-2.5862	-1.8391	-4.4257	57.5067	99.9513	
  1049	-2.4537	-2.7469	-5.2008	-1.4548	-3.1145	-4.5690	-2.4846	-1.8772	-4.3623	57.7411	99.9491	
  1050	-2.4537	-2.7469	-5.2008	-1.4981	-3.0985	-4.5963	-2.4846	-1.8772	-4.3623	57.7411	99.9494	
  1051	-2.5045	-2.7281	-5.2328	-1.4642	-3.1482	-4.6121	-2.5862	-1.8391	-4.4257	57.5674	99.9521	
  1052	-2.5553	-2.7094	-5.2648	-1.5703	-3.0718	-4.6418	-2.5862	-1.8391	-4.4257	57.6717	99.9492	
  1053	-2.5393	-2.7326	-5.2721	-1.5796	-3.1056	-4.6849	-2.6497	-1.8153	-4.4654	57.4326	99.9519	
  1054	-2.5732	-2.7201	-5.2935	-1.5796	-3.1056	-4.6849	-2.6497	-1.8153	-4.4654	57.5023	99.9518	
  1055	-2.5842	-2.7594	-5.3438	-1.6229	-3.0896	-4.7122	-2.8147	-1.7533	-4.5684	56.9903	99.9497	
  1056	-2.6529	-2.7514	-5.4045	-1.6135	-3.1823	-4.7955	-2.8260	-1.8473	-4.6738	57.3098	99.9516	
  1057	-2.7236	-2.7774	-5.5012	-1.7382	-3.1734	-4.9114	-2.8287	-1.8987	-4.7278	57.4799	99.9509	
  1058	-2.6688	-2.7282	-5.3972	-1.5796	-3.1056	-4.6849	-2.7005	-1.7962	-4.4971	57.4786	99.9496	
  1059	-2.6081	-2.7246	-5.3328	-1.5703	-3.0718	-4.6418	-2.7512	-1.7771	-4.5288	57.2629	99.9468	
  1060	-2.6897	-2.7899	-5.4798	-1.6517	-3.2054	-4.8568	-2.8501	-1.9365	-4.7870	57.4641	99.9475	
  1061	-2.7874	-2.8319	-5.6195	-1.7238	-3.3052	-5.0287	-3.0264	-1.9686	-4.9954	57.2752	99.9503	
  1062	-2.8899	-2.8114	-5.7015	-1.7984	-3.3223	-5.1204	-3.0685	-1.9069	-4.9759	57.2259	99.9565	
  1063	-2.7844	-2.7810	-5.5655	-1.8104	-3.1468	-4.9569	-2.8768	-1.8283	-4.7055	57.2955	99.9530	
  1064	-2.6797	-2.6200	-5.3000	-1.6951	-2.9365	-4.6313	-2.8268	-1.4868	-4.3140	56.7081	99.9566	
  1065	-2.6359	-2.4627	-5.0988	-1.6612	-2.7333	-4.3942	-2.6385	-1.3479	-3.9868	56.9457	99.9553	
  1066	-2.6100	-2.3161	-4.9262	-1.6223	-2.4428	-4.0648	-2.5277	-0.9572	-3.4853	56.4391	99.9569	
  1067	-2.3609	-2.0523	-4.4134	-1.3560	-2.0428	-3.3985	-2.1056	-0.5523	-2.6583	56.3786	99.9556	
  1068	-2.2075	-1.7966	-4.0043	-1.2043	-1.5857	-2.7897	-1.5104	-0.4286	-1.9394	57.3997	99.9397	
  1069	-1.9873	-1.5829	-3.5704	-0.9252	-1.3466	-2.2715	-1.1837	-0.3679	-1.5520	57.9223	99.9282	
  1070	-1.9704	-1.5891	-3.5597	-1.0143	-1.3583	-2.3723	-1.3200	-0.3756	-1.6961	57.6695	99.9292	
  1071	-1.9644	-1.6347	-3.5993	-1.0576	-1.3423	-2.3996	-1.3742	-0.2964	-1.6709	57.2968	99.9312	
  1072	-1.9804	-1.6115	-3.5920	-1.0576	-1.3423	-2.3996	-1.3835	-0.3518	-1.7357	57.4745	99.9281	
  1073	-2.0252	-1.6383	-3.6637	-1.1356	-1.4177	-2.5530	-1.5646	-0.3493	-1.9143	57.1601	99.9330	
  1074	-2.1497	-1.6964	-3.8464	-1.1653	-1.5480	-2.7130	-1.7008	-0.3571	-2.0584	56.9978	99.9392	
  1075	-2.1846	-1.7009	-3.8857	-1.2493	-1.4724	-2.7214	-1.6374	-0.3810	-2.0187	57.2051	99.9343	
  1076	-2.1945	-1.7233	-3.9180	-1.2518	-1.5160	-2.7676	-1.7643	-0.3333	-2.0980	56.8401	99.9376	
  1077	-2.1507	-1.7134	-3.8643	-1.2060	-1.4883	-2.6941	-1.6374	-0.3810	-2.0187	57.1376	99.9342	
  1078	-2.2294	-1.7278	-3.9574	-1.2093	-1.6730	-2.8821	-1.8338	-0.4251	-2.2593	56.9725	99.9435	
  1079	-2.3200	-1.7984	-4.1186	-1.3205	-1.6841	-3.0043	-1.8972	-0.4013	-2.2989	56.7968	99.9446	
  1080	-2.3479	-1.8315	-4.1796	-1.3663	-1.7118	-3.0778	-2.0335	-0.4091	-2.4430	56.5492	99.9436	
  1081	-2.3938	-1.8753	-4.2693	-1.4486	-1.7334	-3.1817	-2.0302	-0.4693	-2.4999	56.6806	99.9431	
  1082	-2.4445	-1.8566	-4.3013	-1.4486	-1.7334	-3.1817	-2.0936	-0.4455	-2.5395	56.6125	99.9429	
  1083	-2.3997	-1.8297	-4.2296	-1.4096	-1.6958	-3.1051	-2.0242	-0.3536	-2.3782	56.5077	99.9464	
  1084	-2.4157	-1.8065	-4.2223	-1.4053	-1.7494	-3.1544	-2.0335	-0.4091	-2.4430	56.6854	99.9486	
  1085	-2.4445	-1.8566	-4.3013	-1.4392	-1.8261	-3.2651	-2.1691	-0.5285	-2.6980	56.6741	99.9448	
  1086	-2.4964	-2.0023	-4.4988	-1.4714	-2.0002	-3.4713	-2.2292	-0.5649	-2.7945	56.4590	99.9525	
  1087	-2.5562	-2.1364	-4.6927	-1.5519	-2.2456	-3.7973	-2.4462	-0.8830	-3.3296	56.6634	99.9498	
  1088	-2.7863	-2.3724	-5.1589	-1.7673	-2.6570	-4.4240	-2.8035	-1.2859	-4.0898	56.8667	99.9529	
  1089	-2.8799	-2.4941	-5.3742	-1.8080	-2.7238	-4.5314	-2.8215	-1.3840	-4.2059	56.9756	99.9487	
  1090	-3.1080	-2.6961	-5.8044	-2.0412	-3.0616	-5.1025	-3.1829	-1.6151	-4.7984	56.8163	99.9564	
  1091	-3.0901	-2.6854	-5.7757	-2.0319	-3.0278	-5.0594	-3.1294	-1.5828	-4.7126	56.8308	99.9567	
  1092	-3.0502	-2.4485	-5.4989	-1.9353	-2.6321	-4.5671	-2.8971	-1.0936	-3.9911	56.4538	99.9583	
  1093	-2.8480	-2.2455	-5.0937	-1.7038	-2.3234	-4.0269	-2.5004	-0.8037	-3.3045	56.5739	99.9569	
  1094	-2.7603	-2.0783	-4.8389	-1.5902	-2.1423	-3.7321	-2.3775	-0.6795	-3.0574	56.6837	99.9534	
  1095	-2.7404	-2.0336	-4.7742	-1.6326	-1.9853	-3.6176	-2.2326	-0.5047	-2.7376	56.5829	99.9553	
  1096	-2.5631	-1.8128	-4.3761	-1.4053	-1.7494	-3.1544	-2.0149	-0.2982	-2.3135	56.6431	99.9525	
  1097	-2.5182	-1.7860	-4.3044	-1.4503	-1.6361	-3.0862	-1.8913	-0.2856	-2.1773	56.8214	99.9489	
  1098	-2.5242	-1.7404	-4.2648	-1.4113	-1.5985	-3.0095	-1.8371	-0.3649	-2.2024	57.1937	99.9424	
  1099	-2.5122	-1.6841	-4.1965	-1.4063	-1.5111	-2.9171	-1.8819	-0.2302	-2.1125	56.8819	99.9429	
  1100	-2.4993	-1.6107	-4.1102	-1.3791	-1.4244	-2.8033	-1.6915	-0.3017	-1.9936	57.5003	99.9367	
  1101	-2.5232	-1.5759	-4.0993	-1.4267	-1.3548	-2.7812	-1.7517	-0.2136	-1.9657	57.2809	99.9365	
  1102	-2.4784	-1.5491	-4.0276	-1.4242	-1.3111	-2.7350	-1.6281	-0.2011	-1.8295	57.4571	99.9375	
  1103	-2.5013	-1.4972	-3.9987	-1.4760	-1.1879	-2.6635	-1.7330	-0.1027	-1.8361	57.1645	99.9323	
  1104	-2.3598	-1.4453	-3.8053	-1.3190	-1.1491	-2.4678	-1.5459	-0.1140	-1.6603	57.4258	99.9303	
  1105	-2.1965	-1.6098	-3.8065	-1.3248	-1.6304	-2.9549	-2.0548	-0.5714	-2.6266	57.0963	99.9349	
  1106	-2.8997	-1.9488	-4.8487	-1.9483	-1.9654	-3.9134	-2.8312	-0.5681	-3.3997	56.0202	99.9492	
  1107	-2.8589	-1.8424	-4.7015	-1.8415	-1.7743	-3.6155	-2.7624	-0.3647	-3.1275	55.7984	99.9447	
  1108	-2.8808	-1.7736	-4.6545	-1.8415	-1.7743	-3.6155	-2.7531	-0.3093	-3.0627	55.8382	99.9504	
  1109	-2.8011	-1.5948	-4.3960	-1.8679	-1.3406	-3.2082	-2.5514	-0.0378	-2.5896	55.7766	99.9386	
  1110	-2.9186	-1.5340	-4.4528	-1.8993	-1.3736	-3.2727	-2.6056	 0.0415	-2.5645	55.7607	99.9468	
  1111	-2.4892	-0.9984	-3.4878	-1.3048	-0.6487	-1.9531	-1.6349	 0.2928	-1.3426	57.2826	99.9164	
  1112	-2.1655	-0.7882	-2.9539	-0.9494	-0.3634	-1.3125	-0.8059	 0.4335	-0.3728	58.3373	99.9162	
  1113	-1.7849	-0.4949	-2.2801	-0.6610	-0.0906	-0.7513	-0.4465	 0.5016	 0.0547	58.8247	99.9066	
  1114	-1.6166	-0.4269	-2.0437	-0.5464	-0.0213	-0.5675	-0.2433	 0.4254	 0.1816	59.2548	99.8994	
  1115	-1.7342	-0.5137	-2.2480	-0.6610	-0.0906	-0.7513	-0.4565	 0.4333	-0.0235	58.8705	99.9013	
  1116	-1.7889	-0.5629	-2.3520	-0.7899	-0.1546	-0.9442	-0.6822	 0.3216	-0.3611	58.7327	99.8967	
  1117	-2.0559	-0.6899	-2.7460	-1.0317	-0.3851	-1.4164	-1.1045	 0.2901	-0.8147	58.1984	99.9106	
  1118	-2.0997	-0.6997	-2.7996	-1.1182	-0.3531	-1.4710	-1.2314	 0.3378	-0.8940	57.9052	99.9093	
  1119	-2.0340	-0.6112	-2.6454	-0.9579	-0.2561	-1.2137	-0.8252	 0.3097	-0.5159	58.7436	99.9053	
  1120	-1.8666	-0.5602	-2.4270	-0.8289	-0.1922	-1.0208	-0.6822	 0.3216	-0.3611	58.8368	99.9020	
  1121	-1.7800	-0.4100	-2.1901	-0.7238	 0.0962	-0.6273	-0.2240	 0.5491	 0.3247	59.2316	99.9007	
  1122	-1.4731	-0.1936	-1.6669	-0.3904	 0.2557	-0.1344	 0.1608	 0.6077	 0.7681	59.7364	99.8972	
  1123	-1.4383	-0.1891	-1.6276	-0.4337	 0.2717	-0.1617	-0.0711	 0.6292	 0.5578	59.2648	99.8931	
  1124	-1.4861	-0.1194	-1.6057	-0.4499	 0.5008	 0.0512	 0.1681	 0.7491	 0.9167	59.5652	99.8835	
  1125	-1.3118	 0.0505	-1.2614	-0.3277	 0.5747	 0.2472	 0.3204	 0.6919	 1.0119	60.0383	99.8799	
  1126	-1.4861	-0.1194	-1.6057	-0.7502	 0.2770	-0.4729	-0.4432	 0.5659	 0.1223	58.9728	99.8940	
  1127	-1.8666	-0.2652	-2.1320	-0.9937	 0.1438	-0.8496	-0.7264	 0.4691	-0.2576	58.9434	99.8923	
  1128	-2.1615	-0.7203	-2.8820	-1.4736	-0.6384	-2.1117	-2.2281	 0.0832	-2.1453	56.7879	99.9100	
  1129	-3.1277	-1.4134	-4.5413	-2.2879	-1.4681	-3.7558	-3.3423	-0.3173	-3.6600	55.7675	99.9332	
  1130	-3.0701	-2.0507	-5.1210	-2.1975	-2.5799	-4.7771	-3.8316	-1.5222	-5.3542	56.5348	99.9280	
  1131	-3.2923	-2.7409	-6.0334	-2.3966	-3.3468	-5.7431	-4.2684	-2.0853	-6.3541	56.1153	99.9361	
  1132	-3.7964	-3.3704	-7.1670	-3.0064	-4.2075	-7.2136	-4.9255	-2.7818	-7.7077	56.1263	99.9567	
  1133	-4.2516	-3.4626	-7.7144	-3.2550	-4.3016	-7.5563	-5.1119	-2.7577	-7.8700	56.1885	99.9607	
  1134	-4.0544	-3.3445	-7.3991	-3.0794	-4.0689	-7.1481	-4.8361	-2.5534	-7.3899	56.1463	99.9583	
  1135	-3.7266	-3.0664	-6.7932	-2.7894	-3.6406	-6.4297	-4.4848	-2.1416	-6.6268	55.8476	99.9543	
  1136	-3.1299	-2.4798	-5.6099	-2.1448	-2.8151	-4.9596	-3.3960	-1.4827	-4.8791	56.5313	99.9474	
  1137	-3.0721	-2.3797	-5.4520	-2.1254	-2.6065	-4.7316	-3.2284	-1.4932	-4.7220	56.9736	99.9343	
  1138	-3.9467	-3.1326	-7.0796	-3.0370	-3.9730	-7.0098	-5.4414	-2.3720	-7.8138	54.7501	99.9482	
  1139	-5.2993	-3.0410	-8.3405	-3.8298	-3.4126	-7.2421	-5.4544	-1.4960	-6.9508	54.7156	99.9604	
  1140	-4.8799	-2.8228	-7.7029	-3.6983	-3.3049	-7.0030	-5.5519	-1.5052	-7.0575	54.3455	99.9575	
  1141	-4.6209	-2.6841	-7.3053	-3.5406	-3.1252	-6.6655	-5.2567	-1.4261	-6.6832	54.6061	99.9567	
  1142	-4.8650	-2.7155	-7.5807	-3.7730	-3.1955	-6.9683	-5.5941	-1.4435	-7.0380	54.2901	99.9577	
  1143	-4.6597	-2.4616	-7.1215	-3.6807	-2.8727	-6.5530	-5.5373	-1.2225	-6.7602	54.0310	99.9506	
  1144	-4.8300	-2.2685	-7.0988	-3.8038	-2.5818	-6.3853	-5.5288	-0.9309	-6.4601	53.9457	99.9498	
  1145	-4.6566	-1.8206	-6.4775	-3.5682	-1.9474	-5.5152	-4.9664	-0.3167	-5.2836	54.1233	99.9500	
  1146	-4.0519	-1.0982	-5.1503	-3.1282	-0.9645	-4.0924	-4.2586	 0.4852	-3.7738	54.0085	99.9401	
  1147	-4.2163	-1.0982	-5.3147	-3.4310	-1.2320	-4.6627	-4.8023	 0.2308	-4.5719	53.8080	99.9475	
  1148	-4.3587	-1.3146	-5.6735	-3.5115	-1.4774	-4.9886	-5.0634	-0.0642	-5.1280	53.8221	99.9387	
  1149	-4.5231	-1.6096	-6.1330	-3.5148	-1.7886	-5.3031	-4.8168	-0.4253	-5.2425	54.8645	99.9406	
  1150	-3.9187	-2.0671	-5.9860	-3.3133	-2.6364	-5.9495	-5.3002	-1.2657	-6.5662	54.2472	99.9445	
  1151	-4.1309	-2.5874	-6.7185	-3.3623	-3.2282	-6.5902	-5.3775	-1.7606	-7.1385	54.6578	99.9487	
  1152	-4.9109	-3.3493	-8.2604	-3.8524	-4.1851	-8.0372	-6.0874	-2.4766	-8.5644	54.7533	99.9564	
  1153	-5.2466	-3.4683	-8.7151	-3.9432	-4.2260	-8.1689	-5.9966	-2.4714	-8.4684	55.1898	99.9562	
  1154	-4.9697	-3.4664	-8.4363	-3.7514	-4.2224	-7.9735	-5.8716	-2.5576	-8.4296	55.2471	99.9507	
  1155	-5.1151	-3.5862	-8.7016	-3.8795	-4.3982	-8.2774	-5.8929	-2.7199	-8.6133	55.5981	99.9569	
  1156	-4.9538	-3.4896	-8.4436	-3.7175	-4.2721	-7.9893	-5.8609	-2.4765	-8.3378	54.9967	99.9581	
  1157	-4.7993	-2.9220	-7.7214	-3.6509	-3.1216	-6.7722	-5.2915	-1.2231	-6.5150	53.8675	99.9592	
  1158	-3.9954	-2.1950	-6.1905	-3.1522	-2.3984	-5.5504	-4.8200	-0.7385	-5.5589	53.7761	99.9519	
  1159	-3.6985	-1.8534	-5.5521	-2.7765	-2.0166	-4.7928	-4.2255	-0.3787	-4.6047	54.2537	99.9539	
  1160	-3.5043	-1.7863	-5.2908	-2.7086	-1.8631	-4.5715	-4.0104	-0.3481	-4.3590	54.4350	99.9500	
  1161	-3.5371	-1.7568	-5.2941	-2.7112	-1.9068	-4.6177	-4.0612	-0.3291	-4.3907	54.3932	99.9545	
  1162	-3.4176	-1.6361	-5.0539	-2.6552	-1.7044	-4.3593	-3.8976	-0.1678	-4.0658	54.3680	99.9531	
  1163	-3.3150	-1.6566	-4.9718	-2.5398	-1.7470	-4.2865	-3.7833	-0.2107	-3.9944	54.5039	99.9537	
  1164	-3.3937	-1.6709	-5.0648	-2.5712	-1.7800	-4.3509	-3.9483	-0.1487	-4.0975	54.1284	99.9553	
  1165	-3.4634	-1.6799	-5.1435	-2.6892	-1.7811	-4.4699	-3.9958	-0.1899	-4.1861	54.2196	99.9554	
  1166	-3.6039	-1.7148	-5.3189	-2.8020	-1.6948	-4.4965	-4.0499	-0.1106	-4.1609	54.0656	99.9515	
  1167	-3.5231	-1.3715	-4.8948	-2.7182	-1.2646	-3.9825	-3.8236	 0.2629	-3.5611	54.1144	99.9487	
  1168	-3.4773	-1.1802	-4.6577	-2.7073	-1.0753	-3.7823	-3.5984	 0.2373	-3.3615	54.8776	99.9424	
  1169	-3.4942	-1.1740	-4.6684	-2.7769	-1.0050	-3.7815	-3.7668	 0.3595	-3.4077	54.3073	99.9413	
  1170	-3.5390	-1.2008	-4.7400	-2.8108	-1.0817	-3.8922	-3.9285	 0.3612	-3.5676	54.0126	99.9444	
  1171	-3.5948	-1.2670	-4.8620	-2.8048	-1.2327	-4.0371	-3.9345	 0.2456	-3.6893	54.2353	99.9483	
  1172	-3.6198	-1.5441	-5.1640	-2.8309	-1.6841	-4.5147	-4.2262	-0.2671	-4.4938	54.4360	99.9443	
  1173	-4.0471	-2.0457	-6.0930	-3.2583	-2.4485	-5.7065	-5.1760	-0.8669	-6.0433	53.7407	99.9487	
  1174	-4.8301	-2.8585	-7.6888	-3.8968	-3.4250	-7.3215	-5.8899	-1.6600	-7.5503	53.9198	99.9597	
  1175	-5.3322	-3.1590	-8.4914	-4.1792	-3.8488	-8.0277	-6.1798	-2.0096	-8.1898	54.3918	99.9632	
  1176	-5.6390	-3.3755	-9.0146	-4.4337	-4.0448	-8.4783	-6.4743	-2.2004	-8.6751	54.3293	99.9603	
  1177	-5.8810	-3.5203	-9.4016	-4.5244	-4.3386	-8.8627	-6.6566	-2.4725	-9.1296	54.7319	99.9607	
  1178	-6.1052	-3.6545	-9.7599	-4.7687	-4.4864	-9.2548	-6.8851	-2.6357	-9.5211	54.7658	99.9612	
  1179	-6.2556	-3.7118	-9.9675	-4.9231	-4.6079	-9.5307	-6.9378	-2.7796	-9.7178	55.1374	99.9655	
  1180	-6.3791	-3.7529	-10.1322	-5.0028	-4.7123	-9.7148	-7.0667	-2.8950	-9.9621	55.2782	99.9648	
  1181	-6.4090	-3.8200	-10.2291	-5.0427	-4.7645	-9.8069	-7.1595	-2.9387	-10.0987	55.1204	99.9632	
  1182	-6.4279	-3.8477	-10.2758	-5.0681	-4.8220	-9.8899	-7.1996	-2.9630	-10.1630	55.0771	99.9657	
  1183	-6.5145	-3.8504	-10.3651	-5.1564	-4.8192	-9.9753	-7.2925	-3.0067	-10.2996	55.1275	99.9630	
  1184	-6.5604	-3.8942	-10.4548	-5.2234	-4.8316	-10.0547	-7.3706	-3.0167	-10.3877	54.9811	99.9620	
  1185	-6.4648	-3.8861	-10.3511	-5.0970	-4.8114	-9.9081	-7.2758	-2.9344	-10.2106	54.8342	99.9632	
  1186	-6.3970	-3.7637	-10.1609	-4.9502	-4.6945	-9.6444	-7.1008	-2.8036	-9.9048	54.9859	99.9633	
  1187	-6.2267	-3.6617	-9.8886	-4.8935	-4.4775	-9.3706	-7.0100	-2.5495	-9.5599	54.4690	99.9647	
  1188	-5.9786	-3.4149	-9.3937	-4.6551	-4.1788	-8.8336	-6.7349	-2.2336	-8.9688	54.3261	99.9651	
  1189	-5.5881	-2.9517	-8.5400	-4.4221	-3.4616	-7.8834	-6.3764	-1.4315	-7.8083	53.3499	99.9675	
  1190	-4.8151	-2.1613	-6.9765	-3.9312	-2.3637	-6.2946	-5.7140	-0.5077	-6.2221	52.7344	99.9583	
  1191	-4.1994	-1.5469	-5.7466	-3.3240	-1.5467	-4.8703	-4.6466	 0.1134	-4.5336	53.5507	99.9530	
  1192	-3.8209	-1.2876	-5.1087	-3.0984	-1.2135	-4.3116	-4.2638	 0.2579	-4.0063	53.8650	99.9465	
  1193	-3.8029	-1.1294	-4.9325	-3.1239	-1.0181	-4.1418	-4.3093	 0.5042	-3.8055	53.4541	99.9483	
  1194	-3.7362	-1.0239	-4.7603	-3.0264	-0.8608	-3.8869	-3.9860	 0.5007	-3.4857	54.1725	99.9422	
  1195	-3.7073	-0.9738	-4.6813	-3.0239	-0.8171	-3.8407	-3.9225	 0.4769	-3.4460	54.3978	99.9404	
  1196	-3.6515	-0.7601	-4.4118	-2.9103	-0.5095	-3.4195	-3.6373	 0.6122	-3.0255	54.9180	99.9294	
  1197	-3.6365	-0.6529	-4.2896	-2.8670	-0.5255	-3.3922	-3.5865	 0.5931	-2.9938	55.2298	99.9342	
  1198	-3.5678	-0.6609	-4.2289	-2.7923	-0.5084	-3.3004	-3.4629	 0.6057	-2.8576	55.3188	99.9341	
  1199	-3.5499	-0.6501	-4.2002	-2.7491	-0.5244	-3.2731	-3.4629	 0.6057	-2.8576	55.3133	99.9346	
  1200	-3.4991	-0.6689	-4.1682	-2.7245	-0.4814	-3.2056	-3.4121	 0.5866	-2.8259	55.3481	99.9292	
  1201	-3.4672	-0.7154	-4.1828	-2.7202	-0.5350	-3.2549	-3.4722	 0.5502	-2.9224	55.1949	99.9294	
  1202	-3.4832	-0.6921	-4.1755	-2.7202	-0.5350	-3.2549	-3.4629	 0.6057	-2.8576	55.1449	99.9339	
  1203	-3.4553	-0.6591	-4.1145	-2.7287	-0.4278	-3.1562	-3.4088	 0.6509	-2.7584	55.1590	99.9291	
  1204	-3.4144	-0.7002	-4.1148	-2.7245	-0.4814	-3.2056	-3.5772	 0.6486	-2.9290	54.7199	99.9289	
  1205	-3.5948	-0.9720	-4.5669	-2.8363	-0.8863	-3.7224	-3.7575	 0.4149	-3.3429	54.6993	99.9420	
  1206	-3.7422	-1.1258	-4.8682	-2.9652	-1.0767	-4.0417	-4.1477	 0.5025	-3.6456	53.6869	99.9523	
  1207	-3.8099	-1.2483	-5.0584	-3.0695	-1.2241	-4.2934	-4.3146	 0.2769	-4.0381	53.7777	99.9478	
  1208	-4.0779	-1.5398	-5.6179	-3.3146	-1.6394	-4.9537	-4.8456	 0.0178	-4.8282	53.2285	99.9532	
  1209	-4.1925	-1.5755	-5.7682	-3.2832	-1.6064	-4.8893	-4.6432	 0.0532	-4.5905	53.6382	99.9526	
  1210	-4.0391	-1.4673	-5.5066	-3.1458	-1.5232	-4.6687	-4.4849	 0.1116	-4.3737	53.7777	99.9531	
  1211	-4.1606	-1.6220	-5.7828	-3.3077	-1.7758	-5.0832	-4.8509	-0.0850	-4.9364	53.4350	99.9551	
  1212	-4.3798	-1.8187	-6.1987	-3.4986	-2.0177	-5.5160	-5.2103	-0.2776	-5.4883	53.1567	99.9541	
  1213	-4.4883	-1.9001	-6.3887	-3.6428	-2.0909	-5.7334	-5.4161	-0.2527	-5.6692	52.7040	99.9581	
  1214	-4.5252	-1.9386	-6.4640	-3.6598	-2.1292	-5.7887	-5.4621	-0.3927	-5.8552	52.9328	99.9511	
  1215	-4.6517	-2.0307	-6.6826	-3.8328	-2.3182	-6.1507	-5.6124	-0.5458	-6.1587	53.0232	99.9584	
  1216	-4.7384	-2.0334	-6.7720	-3.9024	-2.2479	-6.1500	-5.6605	-0.4754	-6.1363	52.8821	99.9559	
  1217	-4.6726	-1.9449	-6.6177	-3.8736	-2.1321	-6.0054	-5.6145	-0.3355	-5.9503	52.7014	99.9574	
  1218	-4.5431	-1.8018	-6.3451	-3.7150	-1.9378	-5.6525	-5.3092	-0.1881	-5.4977	53.0199	99.9565	
  1219	-4.3698	-1.6489	-6.0189	-3.5581	-1.7726	-5.3304	-4.9618	-0.1023	-5.0646	53.5170	99.9571	
  1220	-4.2612	-1.5675	-5.8289	-3.4206	-1.6895	-5.1098	-5.0160	-0.0230	-5.0394	53.2115	99.9513	
  1221	-4.2612	-1.5675	-5.8289	-3.4928	-1.6628	-5.1553	-5.0641	 0.0474	-5.0171	52.9492	99.9547	
  1222	-4.2592	-1.3861	-5.6454	-3.4216	-1.3247	-4.7460	-4.7996	 0.2822	-4.5179	53.2321	99.9469	
  1223	-3.7919	-0.7950	-4.5872	-2.9264	-0.4068	-3.3330	-3.5772	 0.7730	-2.8046	54.7842	99.9270	
  1224	-3.1863	-0.2031	-3.3895	-2.4455	 0.1370	-2.3082	-2.9867	 0.9312	-2.0558	55.7213	99.9084	
