OxySoft export of:	C:\Users\TO3 TechSupport\Documents\Train2Adapt\T2A_44
Export date:	2022/09/16 17:26:02
Start of measurement:	2022-09-16 16:23:56.413

Datafile sample rate:	10.00	Hz
Datafile duration:	3508.300	s
Datafile total number of samples:	35083

Description:	

Optode-template:	PortaMon TSI Fit Factor
Optode distance (mm):	 35.00
Optode gradients (mm):	 5.00
DPF:	6.61

Device id:	291
# Receivers:	1
# Light sources:	6
# ADC:	2

Light source wavelengths:
device	index	wavelength
1	1	847	nm
1	2	761	nm
1	3	848	nm
1	4	761	nm
1	5	848	nm
1	6	762	nm

Export sample rate:	10.00	Hz
Selected time span:	0	3508.300
Selected time span (sample numbers):	0	35083


Legend:
Column	Trace (Measurement)
1	(Sample number)
2	Rx1-Tx1 O2Hb (T2A_44)
3	Rx1-Tx1 HHb (T2A_44)
4	Rx1-Tx1 tHb (T2A_44)
5	Rx1-Tx2 O2Hb (T2A_44)
6	Rx1-Tx2 HHb (T2A_44)
7	Rx1-Tx2 tHb (T2A_44)
8	Rx1-Tx3 O2Hb (T2A_44)
9	Rx1-Tx3 HHb (T2A_44)
10	Rx1-Tx3 tHb (T2A_44)
11	Rx1-Tx1,Tx2,Tx3 TSI% (T2A_44)
12	Rx1-Tx1,Tx2,Tx3 TSI Fit Factor (T2A_44)
13	(Event)


1	2	3	4	5	6	7	8	9	10	11	12	13
     0	108.8926	49.6754	158.5681	85.3266	36.2755	121.6021	69.5354	30.2480	99.7834	43.7250	98.5201	
     1	 1.6978	 1.0591	 2.7570	 1.1877	 1.3307	 2.5184	 1.0672	 1.4487	 2.5159	53.5387	99.9987	
     2	 1.8610	 1.1425	 3.0036	 1.2121	 1.4189	 2.6310	 1.1115	 1.4321	 2.5435	53.5856	99.9979	
     3	 1.8471	 1.1628	 3.0100	 1.1788	 1.3988	 2.5776	 1.0632	 1.3703	 2.4335	53.7182	99.9978	
     4	 1.7325	 1.0085	 2.7411	 1.0702	 1.1861	 2.2563	 0.8886	 1.1562	 2.0447	53.7904	99.9981	
     5	 1.4148	 0.8612	 2.2761	 0.8684	 0.9171	 1.7856	 0.6628	 0.9327	 1.5955	54.1409	99.9990	
     6	 1.0824	 0.7193	 1.8018	 0.6378	 0.7042	 1.3420	 0.4096	 0.7252	 1.1348	54.4211	99.9993	
     7	 0.8046	 0.6102	 1.4149	 0.4626	 0.5615	 1.0241	 0.2455	 0.6042	 0.8497	54.6341	99.9995	
     8	 0.5980	 0.5579	 1.1560	 0.3052	 0.5030	 0.8081	 0.1663	 0.4912	 0.6576	55.0223	99.9992	
     9	 0.4427	 0.4792	 0.9220	 0.2468	 0.3819	 0.6287	 0.1169	 0.4071	 0.5239	55.2469	99.9996	
    10	 0.3637	 0.4176	 0.7814	 0.1995	 0.3411	 0.5406	 0.0744	 0.3488	 0.4232	55.3186	99.9993	
    11	 0.2916	 0.3459	 0.6377	 0.1381	 0.2795	 0.4176	 0.0395	 0.3277	 0.3671	55.2648	99.9996	
    12	 0.3376	 0.3592	 0.6969	 0.2246	 0.3318	 0.5564	 0.1501	 0.3946	 0.5447	55.2722	99.9995	
    13	 0.3671	 0.3483	 0.7155	 0.2246	 0.3318	 0.5564	 0.2275	 0.3655	 0.5930	55.4578	99.9994	
    14	 0.3064	 0.3405	 0.6470	 0.1352	 0.3389	 0.4741	 0.0761	 0.3824	 0.4585	55.1516	99.9993	
    15	 0.2144	 0.3140	 0.5284	 0.0361	 0.2912	 0.3273	-0.0048	 0.3443	 0.3395	55.1769	99.9995	
    16	 0.1449	 0.2867	 0.4317	-0.0489	 0.2643	 0.2154	-0.0414	 0.2895	 0.2481	55.3110	99.9994	
    17	 0.1718	 0.2314	 0.4033	-0.0253	 0.2296	 0.2044	 0.0249	 0.2646	 0.2896	55.3660	99.9993	
    18	 0.1380	 0.1683	 0.3064	-0.0237	 0.1448	 0.1211	 0.0197	 0.1638	 0.1836	55.5656	99.9994	
    19	 0.0546	 0.0327	 0.0874	-0.0000	-0.0000	-0.0000	-0.0314	 0.0461	 0.0146	55.6341	99.9994	
    20	-0.0001	-0.0000	 0.0000	-0.0000	-0.0000	-0.0000	 0.0000	 0.0000	 0.0000	55.8594	99.9987	
    21	 0.0859	-0.0771	 0.0088	 0.1257	-0.0464	 0.0793	 0.1293	-0.1170	 0.0123	56.1755	99.9974	
    22	 0.0572	-0.1799	-0.1226	 0.1243	-0.2922	-0.1679	-0.0040	-0.2953	-0.2993	56.2186	99.9986	
    23	-0.1685	-0.3008	-0.4691	 0.0261	-0.5476	-0.5215	-0.1600	-0.3680	-0.5280	56.1924	99.9998	
    24	-0.2266	-0.2642	-0.4907	-0.0020	-0.5890	-0.5911	-0.2281	-0.3767	-0.6048	56.2448	99.9997	
    25	-0.5348	-0.3772	-0.9119	-0.1890	-0.8246	-1.0136	-0.4796	-0.4421	-0.9216	56.1388	99.9986	
    26	-0.3403	-0.2751	-0.6153	-0.0804	-0.6120	-0.6923	-0.2945	-0.3518	-0.6462	56.1896	99.9996	
    27	-0.4011	-0.2829	-0.6839	-0.1543	-0.5587	-0.7131	-0.3259	-0.3057	-0.6316	56.0687	99.9998	
    28	-0.3707	-0.2790	-0.6496	-0.1055	-0.6027	-0.7082	-0.2927	-0.3182	-0.6109	56.1373	99.9996	
    29	-0.2874	-0.2720	-0.5593	-0.0494	-0.5197	-0.5691	-0.2142	-0.2164	-0.4305	55.8908	99.9997	
    30	-0.2171	-0.2299	-0.4469	-0.0509	-0.4349	-0.4858	-0.1740	-0.2029	-0.3769	55.9167	99.9999	
    31	-0.2171	-0.2299	-0.4469	-0.0760	-0.4256	-0.5016	-0.2142	-0.2164	-0.4305	55.8656	100.0000	
    32	-0.2613	-0.2135	-0.4748	-0.0760	-0.4256	-0.5016	-0.2142	-0.2164	-0.4305	55.9768	99.9999	
    33	-0.2310	-0.2096	-0.4405	-0.0509	-0.4349	-0.4858	-0.1810	-0.2288	-0.4098	56.0454	99.9999	
    34	-0.1858	-0.2112	-0.3969	-0.0243	-0.4188	-0.4431	-0.1740	-0.2029	-0.3769	55.9055	99.9999	
    35	-0.1841	-0.1816	-0.3656	-0.0465	-0.3588	-0.4052	-0.1408	-0.2154	-0.3562	56.0797	99.9999	
    36	-0.1615	-0.1824	-0.3438	-0.0450	-0.3334	-0.3784	-0.1595	-0.1399	-0.2993	55.7769	100.0000	
    37	-0.1190	-0.0998	-0.2186	-0.0044	-0.1864	-0.1907	-0.0232	-0.1225	-0.1458	56.1441	99.9994	
    38	-0.0287	-0.1029	-0.1315	 0.0488	-0.1542	-0.1053	 0.0961	-0.1045	-0.0084	56.1999	99.9995	
    39	-0.0435	-0.0974	-0.1408	 0.0488	-0.1542	-0.1053	 0.0297	-0.0796	-0.0499	56.0156	99.9994	
    40	-0.0443	-0.1122	-0.1564	-0.0014	-0.1356	-0.1370	-0.0035	-0.0672	-0.0706	55.8734	99.9994	
    41	-0.0730	-0.0865	-0.1594	 0.0222	-0.1703	-0.1480	 0.0297	-0.0796	-0.0499	56.0894	99.9997	
    42	-0.0426	-0.0826	-0.1251	 0.0237	-0.1449	-0.1212	 0.0629	-0.0921	-0.0292	56.1577	99.9995	
    43	-0.0339	-0.0631	-0.0969	 0.0503	-0.1288	-0.0785	 0.0978	-0.0709	 0.0269	56.2026	99.9996	
    44	-0.0044	-0.0740	-0.0783	 0.0503	-0.1288	-0.0785	 0.0978	-0.0709	 0.0269	56.1290	99.9996	
    45	-0.0035	-0.0592	-0.0627	 0.0784	-0.0873	-0.0089	 0.1456	-0.0204	 0.1252	56.1194	99.9995	
    46	 0.1032	-0.0382	 0.0652	 0.1775	-0.0396	 0.1378	 0.2597	 0.0053	 0.2649	56.1670	99.9993	
    47	 0.1570	-0.0202	 0.1369	 0.2122	 0.0059	 0.2181	 0.2631	 0.0725	 0.3356	55.9291	99.9992	
    48	 0.1579	-0.0054	 0.1526	 0.2137	 0.0312	 0.2449	 0.2631	 0.0725	 0.3356	55.9603	99.9989	
    49	 0.1588	 0.0094	 0.1683	 0.2403	 0.0473	 0.2876	 0.3091	 0.0895	 0.3986	56.0447	99.9989	
    50	 0.1735	 0.0039	 0.1776	 0.2654	 0.0381	 0.3035	 0.3108	 0.1231	 0.4339	55.9146	99.9992	
    51	 0.3350	 0.0577	 0.3928	 0.4258	 0.1473	 0.5732	 0.4709	 0.2742	 0.7450	55.6830	99.9992	
    52	 0.6292	 0.1910	 0.8203	 0.7030	 0.3885	 1.0915	 0.7415	 0.4922	 1.2337	55.4590	99.9982	
    53	 0.8367	 0.2581	 1.0948	 0.8871	 0.4631	 1.3502	 0.8632	 0.5550	 1.4181	55.3495	99.9976	
    54	 1.0693	 0.3688	 1.4382	 1.0497	 0.6104	 1.6601	 1.1181	 0.6876	 1.8057	55.3900	99.9980	
    55	 1.3253	 0.4935	 1.8189	 1.1687	 0.7803	 1.9490	 1.2549	 0.8246	 2.0795	55.1467	99.9978	
    56	 1.5693	 0.6681	 2.2374	 1.3254	 0.9363	 2.2617	 1.3608	 1.0188	 2.3796	54.7995	99.9984	
    57	 1.7741	 0.8192	 2.5935	 1.4229	 1.1790	 2.6019	 1.4725	 1.2166	 2.6891	54.4705	99.9974	
    58	 1.8618	 0.9003	 2.7622	 1.4473	 1.2672	 2.7145	 1.4765	 1.2950	 2.7716	54.2840	99.9973	
    59	 1.8158	 0.8870	 2.7029	 1.3556	 1.2363	 2.5919	 1.3875	 1.2086	 2.5961	54.3771	99.9969	
    60	 1.7273	 0.9197	 2.6471	 1.2972	 1.2254	 2.5226	 1.3432	 1.2252	 2.5684	54.4507	99.9976	
    61	 1.6847	 0.8371	 2.5220	 1.2336	 1.1258	 2.3594	 1.2542	 1.1388	 2.3930	54.3886	99.9978	
    62	 1.6830	 0.8075	 2.4906	 1.2129	 1.1010	 2.3139	 1.2024	 1.1183	 2.3206	54.2681	99.9978	
    63	 1.6361	 0.7795	 2.4157	 1.2078	 1.0122	 2.2200	 1.1983	 1.0399	 2.2382	54.5015	99.9983	
    64	 1.6483	 0.7296	 2.3780	 1.2337	 0.9054	 2.1391	 1.1943	 0.9615	 2.1558	54.5873	99.9988	
    65	 1.6014	 0.7016	 2.3030	 1.2367	 0.8460	 2.0827	 1.2217	 0.8370	 2.0587	55.0246	99.9985	
    66	 1.4043	 0.5550	 1.9595	 1.0874	 0.5965	 1.6839	 1.0349	 0.6047	 1.6396	55.2855	99.9991	
    67	 1.1691	 0.4000	 1.5692	 0.9625	 0.4352	 1.3977	 0.8486	 0.4919	 1.3406	55.2485	99.9992	
    68	 0.9096	 0.2160	 1.1257	 0.7889	 0.2077	 0.9966	 0.6735	 0.2666	 0.9401	55.5406	99.9992	
    69	 0.7047	 0.0649	 0.7697	 0.7039	 0.0706	 0.7745	 0.6165	 0.1453	 0.7618	55.7764	99.9990	
    70	 0.5380	-0.0777	 0.4604	 0.5531	-0.0941	 0.4590	 0.4698	-0.0736	 0.3962	56.0498	99.9986	
    71	 0.3384	-0.2687	 0.0698	 0.4009	-0.3943	 0.0066	 0.2830	-0.3060	-0.0230	56.2223	99.9996	
    72	 0.0337	-0.3225	-0.2887	 0.1503	-0.6194	-0.4690	-0.1268	-0.3805	-0.5072	55.9125	99.9998	
    73	-0.2414	-0.2587	-0.5000	-0.1795	-0.4392	-0.6188	-0.5565	-0.1849	-0.7414	54.9700	99.9995	
    74	-0.5269	 0.0130	-0.5137	-0.5198	 0.0040	-0.5159	-0.8221	 0.2402	-0.5819	54.2144	99.9993	
    75	-0.4869	 0.1798	-0.3071	-0.4903	 0.0708	-0.4195	-0.6859	 0.2575	-0.4284	54.7782	99.9999	
    76	-0.3263	 0.2188	-0.1075	-0.3882	 0.0591	-0.3292	-0.5846	 0.2537	-0.3309	54.8314	100.0000	
    77	-0.2430	 0.2258	-0.0171	-0.3616	 0.0752	-0.2865	-0.6195	 0.2326	-0.3869	54.6838	99.9999	
    78	-0.2821	 0.2024	-0.0796	-0.4149	 0.0430	-0.3719	-0.6894	 0.1903	-0.4990	54.6615	99.9999	
    79	-0.4149	 0.1229	-0.2919	-0.5169	-0.0555	-0.5723	-0.8326	 0.1470	-0.6855	54.5099	99.9999	
    80	-0.5850	 0.0496	-0.5353	-0.5929	-0.2607	-0.8536	-0.9879	-0.0229	-1.0109	54.7813	99.9997	
    81	-0.7031	-0.0353	-0.7383	-0.6550	-0.4451	-1.1001	-1.0869	-0.0828	-1.1697	54.7433	99.9989	
    82	-0.7855	-0.0275	-0.8130	-0.6801	-0.4359	-1.1160	-1.1201	-0.0704	-1.1904	54.7908	99.9989	
    83	-0.5885	-0.0096	-0.5980	-0.5160	-0.3733	-0.8893	-0.8552	-0.0728	-0.9279	55.1094	99.9994	
    84	-0.2370	-0.0562	-0.2931	-0.2239	-0.3192	-0.5431	-0.4133	-0.1416	-0.5549	55.6163	100.0000	
    85	 0.1327	-0.1776	-0.0448	 0.0726	-0.2990	-0.2265	-0.0372	-0.2828	-0.3200	55.9843	99.9994	
    86	 0.1943	-0.2835	-0.0891	 0.2176	-0.4563	-0.2387	-0.0372	-0.2828	-0.3200	55.6423	99.9998	
    87	 0.2204	-0.2251	-0.0046	 0.1983	-0.3454	-0.1472	 0.0030	-0.2694	-0.2664	55.7802	99.9994	
    88	 0.1154	-0.0880	 0.0275	-0.0295	-0.1771	-0.2066	-0.1909	-0.0938	-0.2847	55.3084	99.9997	
    89	 0.0642	 0.1955	 0.2598	-0.1021	 0.1219	 0.0198	-0.3045	 0.2171	-0.0875	54.8566	99.9996	
    90	 0.1250	 0.3318	 0.4569	-0.1761	 0.2853	 0.1092	-0.3675	 0.3092	-0.0582	54.6396	99.9993	
    91	 0.1884	 0.3841	 0.5725	-0.1288	 0.3262	 0.1974	-0.2993	 0.3179	 0.0185	54.7782	99.9992	
    92	 0.1866	 0.3545	 0.5412	-0.1273	 0.2414	 0.1141	-0.4006	 0.3217	-0.0790	54.4687	99.9998	
    93	 0.1311	 0.3069	 0.4381	-0.1524	 0.1405	-0.0119	-0.4058	 0.2209	-0.1850	54.7434	99.9999	
    94	 0.0347	 0.2064	 0.2412	-0.1997	 0.0996	-0.1001	-0.3872	 0.1454	-0.2418	54.9514	99.9996	
    95	 0.1284	 0.1340	 0.2625	 0.0281	-0.0687	-0.0406	-0.1490	-0.0468	-0.1958	55.7401	99.9997	
    96	 0.1770	-0.0654	 0.1117	 0.0711	-0.2142	-0.1432	-0.0948	-0.1984	-0.2932	55.7805	99.9995	
    97	 0.2655	-0.0981	 0.1675	 0.1494	-0.1913	-0.0419	-0.0267	-0.1897	-0.2164	55.6854	99.9990	
    98	 0.3332	 0.0281	 0.3615	 0.2891	 0.0034	 0.2925	 0.1473	 0.0132	 0.1605	55.6512	99.9984	
    99	 0.5259	 0.1006	 0.6267	 0.4273	 0.0625	 0.4899	 0.2614	 0.0389	 0.3003	55.6683	99.9983	
   100	 0.5389	 0.0656	 0.6046	 0.3675	 0.0263	 0.3938	 0.2137	-0.0117	 0.2020	55.6079	99.9985	
   101	 0.3601	-0.0272	 0.3331	 0.2166	-0.0282	 0.1885	 0.0646	-0.0585	 0.0062	55.5045	99.9981	
   102	 0.3054	-0.0599	 0.2456	 0.1760	-0.0650	 0.1110	 0.0629	-0.0921	-0.0292	55.6195	99.9984	
   103	 0.2933	-0.0101	 0.2833	 0.2625	-0.0127	 0.2498	 0.0681	 0.0087	 0.0768	55.4679	99.9979	
   104	 0.3792	 0.0414	 0.4207	 0.3534	 0.1157	 0.4691	 0.1839	 0.0680	 0.2519	55.5256	99.9960	
   105	 0.4226	 0.0102	 0.4330	 0.3785	 0.1065	 0.4850	 0.2946	 0.0264	 0.3210	55.7540	99.9961	
   106	 0.4703	-0.0754	 0.3950	 0.5013	 0.0093	 0.5106	 0.4035	-0.0487	 0.3548	55.9473	99.9960	
   107	 0.4712	-0.1892	 0.2821	 0.5028	-0.0755	 0.4273	 0.4664	-0.1408	 0.3256	56.1031	99.9961	
   108	 0.4720	-0.3029	 0.1693	 0.5391	-0.2250	 0.3141	 0.5293	-0.2329	 0.2964	56.2582	99.9976	
   109	 0.5293	-0.3543	 0.1751	 0.5924	-0.3030	 0.2894	 0.5939	-0.2914	 0.3025	56.3630	99.9982	
   110	 0.6448	-0.3137	 0.3311	 0.7026	-0.2854	 0.4172	 0.7080	-0.2658	 0.4423	56.4389	99.9986	
   111	 0.6960	-0.3402	 0.3559	 0.7026	-0.3956	 0.3070	 0.6918	-0.3624	 0.3294	56.5411	99.9994	
   112	 0.6074	-0.4360	 0.1715	 0.6412	-0.4572	 0.1841	 0.6184	-0.3634	 0.2550	56.3156	99.9995	
   113	 0.6639	-0.2452	 0.4188	 0.7447	-0.2232	 0.5215	 0.6928	-0.1231	 0.5698	56.1099	99.9990	
   114	 0.7620	 0.1420	 0.9041	 0.6476	 0.2080	 0.8556	 0.5518	 0.2038	 0.7557	55.5348	99.9981	
   115	 0.6883	 0.2978	 0.9861	 0.4605	 0.3030	 0.7635	 0.2275	 0.3655	 0.5930	54.7969	99.9990	
   116	 0.5451	 0.2977	 0.8429	 0.2749	 0.3132	 0.5881	 0.0744	 0.3488	 0.4232	54.7406	99.9990	
   117	 0.5763	 0.3164	 0.8928	 0.3252	 0.2947	 0.6199	 0.1373	 0.2567	 0.3940	55.1418	99.9985	
   118	 0.2447	 0.0608	 0.3056	 0.0518	-0.1034	-0.0516	-0.2352	-0.0772	-0.3124	55.2679	99.9994	
   119	 0.0147	-0.1340	-0.1192	-0.0435	-0.3080	-0.3515	-0.2823	-0.2251	-0.5073	55.5554	99.9996	
   120	 0.1431	-0.1285	 0.0147	 0.0740	-0.1635	-0.0895	-0.0564	-0.1101	-0.1665	55.5250	99.9991	
   121	 0.4079	 0.0157	 0.4237	 0.3157	 0.0195	 0.3352	 0.1805	 0.0008	 0.1812	55.6082	99.9981	
   122	 0.4947	-0.0466	 0.4481	 0.4163	-0.1278	 0.2885	 0.3080	-0.1499	 0.1582	56.0521	99.9989	
   123	 0.5441	-0.2312	 0.3130	 0.4918	-0.2659	 0.2259	 0.3971	-0.2803	 0.1168	56.1401	99.9986	
   124	 0.4868	-0.3083	 0.1786	 0.4904	-0.4015	 0.0889	 0.3919	-0.3811	 0.0108	56.3487	99.9991	
   125	 0.6074	-0.4360	 0.1715	 0.6398	-0.4825	 0.1572	 0.6021	-0.4600	 0.1421	56.5622	99.9990	
   126	 0.6412	-0.5015	 0.1399	 0.7582	-0.6559	 0.1023	 0.6266	-0.5320	 0.0946	56.6254	99.9997	
   127	 0.6508	-0.4672	 0.1837	 0.7596	-0.6305	 0.1291	 0.6813	-0.4555	 0.2258	56.5830	100.0000	
   128	 0.7064	-0.4197	 0.2868	 0.7499	-0.4649	 0.2850	 0.7622	-0.4174	 0.3448	56.6641	99.9994	
   129	 0.8756	-0.4897	 0.3860	 0.7277	-0.2947	 0.4330	 0.7872	-0.2612	 0.5259	55.8272	99.9983	
   130	 0.9059	-0.6143	 0.2917	 0.8070	-0.6998	 0.1071	 0.7180	-0.4008	 0.3172	55.7510	99.9995	
   131	 0.9529	-0.3292	 0.6237	 1.0922	-0.2089	 0.8833	 1.0410	-0.1510	 0.8899	56.2963	99.9973	
   132	 1.1282	-0.0386	 1.0897	 1.2984	 0.1362	 1.4346	 1.3704	 0.1134	 1.4838	56.6046	99.9962	
   133	 1.3365	-0.0853	 1.2513	 1.3191	 0.1610	 1.4800	 1.4053	 0.1345	 1.5399	56.1758	99.9966	
   134	 1.5310	 0.0168	 1.5479	 1.5283	 0.2263	 1.7546	 1.5456	 0.2303	 1.7759	56.1112	99.9969	
   135	 1.5648	 0.0799	 1.6449	 1.5379	 0.2811	 1.8190	 1.5584	 0.2597	 1.8181	56.1368	99.9967	
   136	 1.6612	 0.1805	 1.8417	 1.5682	 0.3606	 1.9288	 1.5601	 0.2933	 1.8535	56.1045	99.9964	
   137	 1.9007	 0.2810	 2.1819	 1.6590	 0.5993	 2.2583	 1.7615	 0.4803	 2.2418	55.8343	99.9954	
   138	 2.1620	 0.4945	 2.6567	 1.8290	 0.8735	 2.7025	 1.8510	 0.7948	 2.6459	55.1626	99.9952	
   139	 2.3330	 0.7111	 3.0443	 1.8999	 1.1001	 3.0000	 1.9703	 1.0297	 3.0001	54.9426	99.9960	
   140	 2.3791	 0.8529	 3.2321	 1.8695	 1.2409	 3.1104	 1.9412	 1.1206	 3.0618	54.8484	99.9954	
   141	 2.3808	 0.8825	 3.2634	 1.8444	 1.2502	 3.0946	 1.8527	 1.1538	 3.0065	54.6159	99.9958	
   142	 2.2905	 0.8856	 3.1763	 1.7194	 1.1991	 2.9185	 1.7118	 1.0469	 2.7587	54.7628	99.9956	
   143	 2.1126	 0.8077	 2.9204	 1.5893	 1.0592	 2.6486	 1.5559	 0.8657	 2.4216	55.0623	99.9953	
   144	 1.9772	 0.6838	 2.6611	 1.4733	 0.9401	 2.4133	 1.3841	 0.8160	 2.2001	54.7751	99.9960	
   145	 1.9754	 0.6542	 2.6297	 1.4984	 0.9308	 2.4292	 1.4208	 0.7623	 2.1831	54.9513	99.9949	
   146	 1.9286	 0.6261	 2.5548	 1.4637	 0.8853	 2.3490	 1.3673	 0.7082	 2.0755	55.0041	99.9947	
   147	 1.8834	 0.6276	 2.5112	 1.4430	 0.8605	 2.3035	 1.3230	 0.7248	 2.0478	54.9360	99.9956	
   148	 1.8696	 0.6479	 2.5176	 1.3801	 0.8837	 2.2639	 1.3265	 0.6835	 2.0101	55.1314	99.9951	
   149	 1.8392	 0.6440	 2.4833	 1.3550	 0.8930	 2.2480	 1.3265	 0.6835	 2.0101	55.1744	99.9949	
   150	 1.8583	 0.7125	 2.5709	 1.4104	 0.9633	 2.3737	 1.3527	 0.8621	 2.2147	54.8368	99.9964	
   151	 2.0215	 0.7959	 2.8175	 1.5390	 1.0778	 2.6168	 1.4784	 0.8948	 2.3732	54.9325	99.9947	
   152	 2.1161	 0.8669	 2.9831	 1.6026	 1.1775	 2.7801	 1.6193	 1.0017	 2.6210	54.9381	99.9951	
   153	 2.2888	 0.9845	 3.2735	 1.8148	 1.2935	 3.1083	 1.8009	 1.1333	 2.9342	54.9346	99.9951	
   154	 2.4242	 0.9799	 3.4042	 1.8732	 1.3044	 3.1776	 1.9261	 1.0464	 2.9724	55.2266	99.9938	
   155	 2.4381	 0.9597	 3.3979	 1.9109	 1.2905	 3.2013	 1.8818	 1.0630	 2.9448	55.0118	99.9935	
   156	 2.4086	 0.9706	 3.3793	 1.8776	 1.2703	 3.1480	 1.8376	 1.0796	 2.9171	54.9381	99.9947	
   157	 2.3522	 0.9082	 3.2605	 1.8155	 1.1960	 3.0116	 1.7485	 0.9931	 2.7417	54.9447	99.9945	
   158	 2.2732	 0.8467	 3.1199	 1.7157	 1.1357	 2.8514	 1.6927	 0.8943	 2.5869	55.1023	99.9941	
   159	 2.2159	 0.7695	 2.9855	 1.7779	 0.9896	 2.7675	 1.7218	 0.8034	 2.5252	55.3577	99.9953	
   160	 2.2428	 0.5857	 2.8286	 1.8246	 0.6872	 2.5118	 1.6881	 0.5877	 2.2759	55.4557	99.9976	
   161	 1.9806	 0.3574	 2.3381	 1.6835	 0.4671	 2.1506	 1.6544	 0.3721	 2.0265	55.9429	99.9976	
   162	 1.8886	 0.3309	 2.2196	 1.7456	 0.3210	 2.0667	 1.6690	 0.2182	 1.8872	56.5173	99.9978	
   163	 1.7914	 0.2156	 2.0070	 1.5098	 0.3498	 1.8595	 1.5124	 0.2427	 1.7552	56.0053	99.9973	
   164	 1.6160	 0.1820	 1.7981	 1.3508	 0.2659	 1.6167	 1.3390	 0.1595	 1.4984	56.0799	99.9977	
   165	 1.4945	 0.1664	 1.6610	 1.2658	 0.2390	 1.5048	 1.2394	 0.0884	 1.3278	56.2340	99.9969	
   166	 1.4034	 0.1547	 1.5582	 1.2355	 0.1594	 1.3949	 1.1160	 0.1005	 1.2165	56.0498	99.9981	
   167	 1.3748	 0.1804	 1.5552	 1.1822	 0.2374	 1.4197	 1.0845	 0.1465	 1.2311	55.9501	99.9973	
   168	 1.4399	 0.2622	 1.7021	 1.2125	 0.3170	 1.5295	 1.1841	 0.2176	 1.4017	56.0376	99.9978	
   169	 1.6482	 0.3440	 1.9923	 1.4313	 0.4371	 1.8684	 1.3721	 0.3639	 1.7360	55.8640	99.9976	
   170	 1.8339	 0.4267	 2.2607	 1.5156	 0.5615	 2.0771	 1.4995	 0.4302	 1.9298	55.8272	99.9970	
   171	 1.8912	 0.5038	 2.3951	 1.5222	 0.6757	 2.1979	 1.4721	 0.5547	 2.0268	55.4790	99.9967	
   172	 1.8938	 0.5482	 2.4421	 1.4630	 0.7624	 2.2254	 1.4407	 0.6007	 2.0414	55.3683	99.9960	
   173	 1.9416	 0.5911	 2.5327	 1.5014	 0.8713	 2.3728	 1.4907	 0.6961	 2.1868	55.2190	99.9950	
   174	 1.9746	 0.6394	 2.6140	 1.5221	 0.8961	 2.4182	 1.5350	 0.6795	 2.2144	55.4168	99.9948	
   175	 1.9442	 0.6355	 2.5798	 1.5014	 0.8713	 2.3728	 1.4575	 0.7086	 2.1661	55.2012	99.9956	
   176	 1.9138	 0.6316	 2.5455	 1.4637	 0.8853	 2.3490	 1.4133	 0.7252	 2.1384	55.0963	99.9954	
   177	 1.8982	 0.6222	 2.5205	 1.4933	 0.8419	 2.3352	 1.4575	 0.7086	 2.1661	55.2500	99.9962	
   178	 1.9581	 0.6152	 2.5734	 1.5221	 0.8961	 2.4182	 1.4983	 0.7332	 2.2315	55.1542	99.9951	
   179	 1.9581	 0.6152	 2.5734	 1.5266	 0.8621	 2.3886	 1.4983	 0.7332	 2.2315	55.1542	99.9961	
   180	 2.0197	 0.6378	 2.6576	 1.5568	 0.9416	 2.4984	 1.5518	 0.7873	 2.3391	55.0645	99.9952	
   181	 2.0683	 0.6955	 2.7639	 1.6485	 0.9726	 2.6211	 1.6077	 0.8862	 2.4939	54.9502	99.9963	
   182	 2.1256	 0.7726	 2.8983	 1.6869	 1.0815	 2.7684	 1.6560	 0.9480	 2.6039	54.9532	99.9953	
   183	 2.2332	 0.8085	 3.0418	 1.7157	 1.1357	 2.8514	 1.6600	 1.0264	 2.6864	54.6336	99.9957	
   184	 2.2133	 0.8537	 3.0670	 1.6610	 1.1883	 2.8493	 1.6525	 0.9893	 2.6417	54.8551	99.9944	
   185	 2.1838	 0.8645	 3.0484	 1.6861	 1.1790	 2.8652	 1.6600	 1.0264	 2.6864	54.8396	99.9952	
   186	 2.2897	 0.8708	 3.1606	 1.7482	 1.2533	 3.0015	 1.7601	 1.1087	 2.8688	54.6647	99.9948	
   187	 2.3773	 0.9519	 3.3293	 1.8436	 1.3477	 3.1913	 1.8969	 1.1372	 3.0341	54.9190	99.9936	
   188	 2.4208	 1.0492	 3.4701	 1.8805	 1.4313	 3.3118	 1.9010	 1.2156	 3.1166	54.8425	99.9935	
   189	 2.4668	 1.0625	 3.5294	 1.8805	 1.4313	 3.3118	 1.8678	 1.2281	 3.0958	54.6830	99.9939	
   190	 2.3513	 1.0220	 3.3734	 1.7852	 1.3369	 3.1220	 1.8044	 1.0920	 2.8964	55.0366	99.9940	
   191	 2.3044	 0.9939	 3.2984	 1.7896	 1.3028	 3.0924	 1.7159	 1.1253	 2.8411	54.7597	99.9945	
   192	 2.3044	 0.9939	 3.2984	 1.7268	 1.3260	 3.0528	 1.7159	 1.1253	 2.8411	54.7597	99.9945	
   193	 2.2498	 0.9612	 3.2110	 1.6558	 1.3198	 2.9756	 1.6309	 1.1172	 2.7481	54.6118	99.9940	
   194	 2.2437	 0.9861	 3.2299	 1.6639	 1.3493	 3.0131	 1.7159	 1.1253	 2.8411	54.8458	99.9940	
   195	 2.2732	 0.9752	 3.2485	 1.7186	 1.2966	 3.0153	 1.7083	 1.0881	 2.7965	54.8613	99.9944	
   196	 2.2940	 0.9448	 3.2389	 1.6890	 1.3400	 3.0290	 1.7968	 1.0549	 2.8517	55.0546	99.9927	
   197	 2.2593	 0.9954	 3.2549	 1.6890	 1.3400	 3.0290	 1.7159	 1.1253	 2.8411	54.8396	99.9942	
   198	 2.3044	 0.9939	 3.2984	 1.7304	 1.3895	 3.1199	 1.7677	 1.1458	 2.9134	54.8181	99.9929	
   199	 2.3513	 1.0220	 3.3734	 1.7260	 1.4235	 3.1495	 1.8084	 1.1704	 2.9788	54.8211	99.9932	
   200	 2.3774	 1.0804	 3.4579	 1.7570	 1.5158	 3.2728	 1.8678	 1.2281	 3.0958	54.8732	99.9921	
   201	 2.4503	 1.1669	 3.6173	 1.8442	 1.5808	 3.4250	 2.0069	 1.3014	 3.3083	55.0410	99.9929	
   202	 2.5058	 1.2144	 3.7204	 1.9440	 1.6411	 3.5852	 2.1437	 1.3299	 3.4736	55.2749	99.9921	
   203	 2.6369	 1.2643	 3.9013	 2.0630	 1.7009	 3.7639	 2.4080	 1.3163	 3.7243	55.7890	99.9912	
   204	 2.6951	 1.2277	 3.9229	 2.0971	 1.6235	 3.7206	 2.2322	 1.2967	 3.5289	55.2794	99.9920	
   205	 2.4373	 1.0734	 3.5107	 1.8140	 1.3910	 3.2050	 1.8451	 1.1167	 2.9618	55.0246	99.9937	
   206	 2.2732	 0.9752	 3.2485	 1.7186	 1.2966	 3.0153	 1.7159	 1.1253	 2.8411	54.7720	99.9951	
   207	 2.2645	 0.9557	 3.2203	 1.6602	 1.2858	 2.9460	 1.6751	 1.1006	 2.7757	54.7227	99.9950	
   208	 2.1430	 0.9401	 3.0832	 1.5730	 1.2208	 2.7938	 1.5750	 1.0183	 2.5933	54.9046	99.9952	
   209	 2.0805	 0.9027	 2.9833	 1.5109	 1.1465	 2.6574	 1.5710	 0.9399	 2.5109	55.1452	99.9958	
   210	 2.0423	 0.8941	 2.9365	 1.5065	 1.1806	 2.6870	 1.4976	 1.0474	 2.5450	54.7165	99.9961	
   211	 2.1447	 0.9697	 3.1145	 1.5722	 1.3183	 2.8905	 1.6751	 1.1006	 2.7757	54.9562	99.9946	
   212	 2.2003	 1.0172	 3.2176	 1.6602	 1.2858	 2.9460	 1.7083	 1.0881	 2.7965	55.0764	99.9955	
   213	 2.2055	 0.9775	 3.1831	 1.6647	 1.2518	 2.9164	 1.6676	 1.0635	 2.7311	54.9598	99.9954	
   214	 2.1907	 0.9830	 3.1738	 1.6018	 1.2750	 2.8768	 1.6676	 1.0635	 2.7311	54.9967	99.9953	
   215	 2.1708	 1.0281	 3.1990	 1.6270	 1.2657	 2.8926	 1.7118	 1.0469	 2.7587	55.2765	99.9957	
   216	 2.1994	 1.0024	 3.2020	 1.5974	 1.3090	 2.9064	 1.6676	 1.0635	 2.7311	55.0246	99.9945	
   217	 2.1760	 0.9884	 3.1645	 1.5767	 1.2842	 2.8609	 1.6600	 1.0264	 2.6864	55.1232	99.9945	
   218	 2.1109	 1.0351	 3.1461	 1.5767	 1.2842	 2.8609	 1.6233	 1.0801	 2.7034	55.0983	99.9956	
   219	 2.1725	 1.0577	 3.2304	 1.6055	 1.3384	 2.9439	 1.6716	 1.1419	 2.8135	54.9749	99.9956	
   220	 2.2767	 1.0344	 3.3112	 1.7268	 1.3260	 3.0528	 1.7677	 1.1458	 2.9134	54.9532	99.9956	
   221	 2.2611	 1.0250	 3.2862	 1.7564	 1.2827	 3.0391	 1.7601	 1.1087	 2.8688	55.0486	99.9957	
   222	 2.2298	 1.0063	 3.2362	 1.6935	 1.3059	 2.9994	 1.7159	 1.1253	 2.8411	54.9134	99.9953	
   223	 2.2940	 1.0733	 3.3675	 1.7260	 1.4235	 3.1495	 1.7717	 1.2242	 2.9959	54.7935	99.9946	
   224	 2.3930	 1.2183	 3.6114	 1.8442	 1.5808	 3.4250	 2.0476	 1.3261	 3.3737	55.2691	99.9941	
   225	 2.5649	 1.3211	 3.8861	 1.9750	 1.7334	 3.7084	 2.2077	 1.4772	 3.6848	55.1309	99.9937	
   226	 2.6343	 1.3484	 3.9829	 2.0002	 1.7241	 3.7243	 2.2863	 1.3620	 3.6483	55.5768	99.9925	
   227	 2.5336	 1.3024	 3.8362	 1.9189	 1.6504	 3.5693	 2.0552	 1.3632	 3.4184	55.1271	99.9936	
   228	 2.5328	 1.2876	 3.8205	 1.9714	 1.6699	 3.6413	 2.1536	 1.4119	 3.5654	55.1773	99.9937	
   229	 2.6673	 1.2682	 3.9356	 2.0675	 1.6668	 3.7343	 2.3748	 1.3288	 3.7036	55.6385	99.9926	
   230	 2.6239	 1.2994	 3.9233	 2.0298	 1.6808	 3.7105	 2.2886	 1.4068	 3.6954	55.3651	99.9938	
   231	 2.6630	 1.3227	 3.9858	 2.0335	 1.7442	 3.7777	 2.3736	 1.4149	 3.7885	55.5161	99.9927	
   232	 2.7237	 1.3305	 4.0544	 2.0689	 1.8024	 3.8713	 2.3812	 1.4520	 3.8332	55.3432	99.9915	
   233	 2.7107	 1.3656	 4.0764	 2.0689	 1.8024	 3.8713	 2.3369	 1.4686	 3.8055	55.2953	99.9921	
   234	 2.6491	 1.3430	 3.9922	 1.9706	 1.7674	 3.7380	 2.2001	 1.4400	 3.6402	55.1260	99.9924	
   235	 2.5944	 1.3102	 3.9047	 1.9418	 1.7133	 3.6550	 2.1536	 1.4119	 3.5654	55.1231	99.9930	
   236	 2.5926	 1.2806	 3.8734	 1.9462	 1.6792	 3.6254	 2.1978	 1.3952	 3.5931	55.2079	99.9935	
   237	 2.6534	 1.2885	 3.9420	 2.0379	 1.7102	 3.7481	 2.3329	 1.3902	 3.7231	55.4378	99.9927	
   238	 2.6517	 1.2589	 3.9106	 2.0342	 1.6467	 3.6810	 2.2421	 1.3786	 3.6207	55.2079	99.9938	
   239	 2.5666	 1.2222	 3.7889	 1.9404	 1.5777	 3.5180	 2.0552	 1.3632	 3.4184	54.8974	99.9948	
   240	 2.5258	 1.1692	 3.6951	 1.8191	 1.5901	 3.4091	 1.9626	 1.3180	 3.2806	54.7720	99.9932	
   241	 2.4650	 1.1614	 3.6266	 1.8110	 1.5607	 3.3716	 1.9626	 1.3180	 3.2806	54.8577	99.9939	
   242	 2.4911	 1.2199	 3.7110	 1.8523	 1.6102	 3.4625	 2.0109	 1.3798	 3.3907	54.8729	99.9942	
   243	 2.5822	 1.2316	 3.8139	 1.9189	 1.6504	 3.5693	 2.1018	 1.3914	 3.4931	54.9156	99.9935	
   244	 2.5770	 1.2713	 3.8484	 1.9418	 1.7133	 3.6550	 2.1093	 1.4285	 3.5378	54.9216	99.9925	
   245	 2.6074	 1.2752	 3.8827	 2.0046	 1.6901	 3.6947	 2.2001	 1.4400	 3.6402	55.0491	99.9936	
   246	 2.6812	 1.2480	 3.9292	 2.1340	 1.7071	 3.8411	 2.4277	 1.4802	 3.9079	55.2589	99.9937	
   247	 2.7975	 1.3033	 4.1009	 2.2028	 1.7854	 3.9882	 2.6181	 1.4544	 4.0725	55.6778	99.9920	
   248	 2.8374	 1.3415	 4.1790	 2.2005	 1.8575	 4.0580	 2.5814	 1.5081	 4.0895	55.4614	99.9911	
   249	 2.8522	 1.3360	 4.1883	 2.2005	 1.8575	 4.0580	 2.5814	 1.5081	 4.0895	55.4253	99.9911	
   250	 2.7524	 1.3048	 4.0573	 2.1022	 1.8225	 3.9247	 2.3835	 1.4968	 3.8803	55.1181	99.9912	
   251	 2.5814	 1.2168	 3.7982	 1.9404	 1.5777	 3.5180	 1.9702	 1.3551	 3.3253	54.6922	99.9942	
   252	 2.2906	 1.0141	 3.3048	 1.6854	 1.2765	 2.9619	 1.6751	 1.1006	 2.7757	54.8059	99.9959	
   253	 2.0232	 0.8255	 2.8489	 1.4437	 0.9834	 2.4271	 1.3766	 0.7789	 2.1555	55.0983	99.9963	
   254	 1.7941	 0.6455	 2.4397	 1.3166	 0.7840	 2.1006	 1.3097	 0.5757	 1.8854	55.5290	99.9964	
   255	 1.7749	 0.5770	 2.3520	 1.3788	 0.6380	 2.0167	 1.3132	 0.5344	 1.8476	55.5377	99.9981	
   256	 1.7775	 0.4929	 2.2705	 1.3943	 0.5739	 1.9682	 1.3686	 0.4052	 1.7738	55.8477	99.9972	
   257	 1.8036	 0.4228	 2.2264	 1.4868	 0.5073	 1.9941	 1.4588	 0.4056	 1.8644	55.8500	99.9978	
   258	 1.9086	 0.4142	 2.3229	 1.6080	 0.4950	 2.1030	 1.6544	 0.3721	 2.0265	56.1885	99.9979	
   259	 1.9363	 0.3737	 2.3102	 1.6080	 0.4950	 2.1030	 1.6911	 0.3184	 2.0095	56.2903	99.9970	
   260	 1.9363	 0.3737	 2.3102	 1.6635	 0.5652	 2.2287	 1.7615	 0.4803	 2.2418	55.9778	99.9975	
   261	 2.0093	 0.4602	 2.4696	 1.7899	 0.6417	 2.4316	 1.9076	 0.5796	 2.4871	56.0830	99.9978	
   262	 2.0987	 0.4423	 2.5411	 1.8542	 0.6439	 2.4981	 2.0293	 0.5339	 2.5631	56.2950	99.9973	
   263	 2.1898	 0.4540	 2.6439	 1.8830	 0.6980	 2.5810	 2.0828	 0.5880	 2.6708	56.1327	99.9971	
   264	 2.2358	 0.4673	 2.7032	 1.9163	 0.7181	 2.6344	 2.1271	 0.5714	 2.6984	56.2306	99.9966	
   265	 2.2497	 0.4471	 2.6968	 1.9459	 0.6748	 2.6207	 2.1271	 0.5714	 2.6984	56.1635	99.9972	
   266	 2.2809	 0.4658	 2.7468	 1.9496	 0.7383	 2.6878	 2.1346	 0.6085	 2.7431	56.0630	99.9965	
   267	 2.2818	 0.4806	 2.7624	 1.9496	 0.7383	 2.6878	 2.1678	 0.5960	 2.7638	56.2024	99.9966	
   268	 2.2800	 0.4510	 2.7311	 1.9459	 0.6748	 2.6207	 2.0828	 0.5880	 2.6708	55.9769	99.9974	
   269	 2.2340	 0.4377	 2.6718	 1.9126	 0.6547	 2.5673	 2.0735	 0.5173	 2.5908	56.2067	99.9969	
   270	 2.3087	 0.4253	 2.7340	 1.9710	 0.6655	 2.6366	 2.1713	 0.5547	 2.7261	56.1635	99.9971	
   271	 2.3417	 0.4736	 2.8153	 2.0376	 0.7058	 2.7433	 2.2121	 0.5794	 2.7915	56.2332	99.9969	
   272	 2.3998	 0.4370	 2.8369	 2.0390	 0.7311	 2.7702	 2.2196	 0.6165	 2.8361	55.9678	99.9966	
   273	 2.3877	 0.4868	 2.8746	 2.0723	 0.7513	 2.8236	 2.2679	 0.6783	 2.9462	56.0257	99.9973	
   274	 2.4649	 0.5188	 2.9838	 2.1344	 0.8256	 2.9599	 2.3640	 0.6822	 3.0462	56.1673	99.9962	
   275	 2.4797	 0.5133	 2.9931	 2.1011	 0.8054	 2.9066	 2.3197	 0.6988	 3.0185	55.9868	99.9968	
   276	 2.4502	 0.5242	 2.9745	 2.1011	 0.8054	 2.9066	 2.3122	 0.6617	 2.9739	56.1487	99.9964	
   277	 2.4953	 0.5227	 3.0181	 2.1092	 0.8348	 2.9441	 2.3715	 0.7193	 3.0908	56.0364	99.9966	
   278	 2.5960	 0.5687	 3.1648	 2.2652	 0.8680	 3.1332	 2.6486	 0.7351	 3.3838	56.5294	99.9965	
   279	 2.6567	 0.5765	 3.2333	 2.2689	 0.9314	 3.2003	 2.7004	 0.7556	 3.4561	56.5013	99.9956	
   280	 2.6741	 0.6154	 3.2897	 2.3022	 0.9515	 3.2537	 2.7854	 0.7637	 3.5491	56.7179	99.9956	
   281	 2.7201	 0.6287	 3.3489	 2.3902	 0.9190	 3.3092	 2.8297	 0.7471	 3.5768	56.8148	99.9962	
   282	 2.7314	 0.6926	 3.4241	 2.4020	 1.0119	 3.4139	 2.8524	 0.8584	 3.7108	56.6666	99.9961	
   283	 2.7930	 0.7152	 3.5083	 2.4559	 1.0568	 3.5127	 2.9595	 0.8582	 3.8177	56.8467	99.9955	
   284	 2.8225	 0.7043	 3.5269	 2.4559	 1.0568	 3.5127	 3.0037	 0.8416	 3.8453	56.9176	99.9951	
   285	 2.7939	 0.7300	 3.5240	 2.4641	 1.0862	 3.5503	 3.0503	 0.8697	 3.9200	57.0381	99.9950	
   286	 2.8243	 0.7339	 3.5583	 2.4641	 1.0862	 3.5503	 3.0503	 0.8697	 3.9200	56.9980	99.9950	
   287	 2.7904	 0.7993	 3.5899	 2.4596	 1.1202	 3.5798	 3.0579	 0.9069	 3.9647	57.1040	99.9953	
   288	 2.8503	 0.7923	 3.6428	 2.4929	 1.1404	 3.6332	 3.1097	 0.9274	 4.0370	57.0453	99.9950	
   289	 2.8364	 0.8126	 3.6491	 2.4337	 1.2270	 3.6607	 3.1539	 0.9108	 4.0647	57.2521	99.9930	
   290	 2.8069	 0.8235	 3.6305	 2.4381	 1.1930	 3.6311	 3.0654	 0.9440	 4.0094	57.0405	99.9944	
   291	 2.7904	 0.7993	 3.5899	 2.4300	 1.1636	 3.5936	 2.9693	 0.9401	 3.9094	56.8210	99.9949	
   292	 2.6898	 0.7533	 3.4432	 2.3095	 1.0784	 3.3880	 2.7563	 0.8545	 3.6108	56.6697	99.9953	
   293	 2.5847	 0.6333	 3.2181	 2.2105	 0.9206	 3.1311	 2.5601	 0.7684	 3.3285	56.4015	99.9964	
   294	 2.5821	 0.5889	 3.1711	 2.1772	 0.9005	 3.0777	 2.5526	 0.7312	 3.2838	56.3989	99.9960	
   295	 2.5526	 0.5998	 3.1525	 2.1772	 0.9005	 3.0777	 2.5159	 0.7850	 3.3009	56.2377	99.9967	
   296	 2.5847	 0.6333	 3.2181	 2.2105	 0.9206	 3.1311	 2.5677	 0.8055	 3.3732	56.3120	99.9967	
   297	 2.5847	 0.6333	 3.2181	 2.1809	 0.9639	 3.1448	 2.5159	 0.7850	 3.3009	56.2578	99.9958	
   298	 2.5543	 0.6294	 3.1839	 2.1809	 0.9639	 3.1448	 2.5234	 0.8221	 3.3455	56.2097	99.9962	
   299	 2.6160	 0.6520	 3.2681	 2.2393	 0.9748	 3.2141	 2.7080	 0.7928	 3.5008	56.6416	99.9957	
   300	 2.6611	 0.6505	 3.3117	 2.2726	 0.9949	 3.2675	 2.7487	 0.8174	 3.5662	56.5828	99.9956	
   301	 2.7010	 0.6887	 3.3898	 2.3310	 1.0057	 3.3367	 2.8081	 0.8750	 3.6832	56.5649	99.9962	
   302	 2.6707	 0.6848	 3.3555	 2.3310	 1.0057	 3.3367	 2.8006	 0.8379	 3.6385	56.6947	99.9959	
   303	 2.6568	 0.7050	 3.3619	 2.3391	 1.0351	 3.3742	 2.8006	 0.8379	 3.6385	56.7609	99.9956	
   304	 2.7175	 0.7128	 3.4305	 2.3428	 1.0986	 3.4414	 2.9152	 0.8748	 3.7900	56.8210	99.9947	
   305	 2.7496	 0.7463	 3.4961	 2.4012	 1.1094	 3.5106	 2.9175	 0.9196	 3.8371	56.7195	99.9953	
   306	 2.7167	 0.6980	 3.4148	 2.3391	 1.0351	 3.3742	 2.8006	 0.8379	 3.6385	56.6491	99.9955	
   307	 2.6559	 0.6902	 3.3462	 2.3310	 1.0057	 3.3367	 2.8524	 0.8584	 3.7108	56.7831	99.9960	
   308	 2.7488	 0.7315	 3.4804	 2.3761	 1.1187	 3.4947	 3.0503	 0.8697	 3.9200	57.1135	99.9941	
   309	 2.8191	 0.7736	 3.5928	 2.4973	 1.1063	 3.6036	 3.1464	 0.8736	 4.0200	57.2850	99.9949	
   310	 2.8347	 0.7830	 3.6178	 2.4300	 1.1636	 3.5936	 3.1097	 0.9274	 4.0370	57.0500	99.9942	
   311	 2.8347	 0.7830	 3.6178	 2.4633	 1.1837	 3.6470	 3.1172	 0.9645	 4.0817	56.9610	99.9944	
   312	 2.8660	 0.8017	 3.6677	 2.4714	 1.2131	 3.6845	 3.1615	 0.9479	 4.1093	57.0924	99.9937	
   313	 2.8946	 0.7760	 3.6707	 2.5091	 1.1992	 3.7083	 3.1615	 0.9479	 4.1093	56.9914	99.9939	
   314	 2.8807	 0.7962	 3.6770	 2.5091	 1.1992	 3.7083	 3.2633	 0.9553	 4.2186	57.2517	99.9938	
   315	 2.8955	 0.7908	 3.6863	 2.5639	 1.1466	 3.7104	 3.2057	 0.9313	 4.1370	57.1628	99.9949	
   316	 2.8790	 0.7666	 3.6457	 2.4929	 1.1404	 3.6332	 3.1539	 0.9108	 4.0647	57.0853	99.9944	
   317	 2.8399	 0.7432	 3.5833	 2.4300	 1.1636	 3.5936	 3.0654	 0.9440	 4.0094	56.8149	99.9942	
   318	 2.7809	 0.7650	 3.5460	 2.4596	 1.1202	 3.5798	 3.0212	 0.9606	 3.9817	56.8149	99.9956	
   319	 2.7948	 0.7448	 3.5397	 2.4345	 1.1295	 3.5640	 2.9769	 0.9772	 3.9541	56.6076	99.9955	
   320	 2.7644	 0.7409	 3.5054	 2.4012	 1.1094	 3.5106	 2.9251	 0.9567	 3.8818	56.5950	99.9956	
   321	 2.7627	 0.7113	 3.4740	 2.4012	 1.1094	 3.5106	 2.9693	 0.9401	 3.9094	56.6759	99.9952	
   322	 2.7939	 0.7300	 3.5240	 2.4641	 1.0862	 3.5503	 3.1097	 0.9274	 4.0370	57.0010	99.9953	
   323	 2.7948	 0.7448	 3.5397	 2.4596	 1.1202	 3.5798	 3.0579	 0.9069	 3.9647	56.9795	99.9949	
   324	 2.7800	 0.7502	 3.5304	 2.4263	 1.1001	 3.5265	 3.0579	 0.9069	 3.9647	57.0147	99.9950	
   325	 2.7505	 0.7611	 3.5117	 2.4263	 1.1001	 3.5265	 2.9693	 0.9401	 3.9094	56.8027	99.9958	
   326	 2.7488	 0.7315	 3.4804	 2.3679	 1.0893	 3.4572	 2.9175	 0.9196	 3.8371	56.6890	99.9954	
   327	 2.7184	 0.7276	 3.4461	 2.3383	 1.1326	 3.4710	 2.9175	 0.9196	 3.8371	56.7294	99.9946	
   328	 2.7054	 0.7627	 3.4682	 2.3465	 1.1620	 3.5085	 2.9693	 0.9401	 3.9094	56.8783	99.9945	
   329	 2.7896	 0.7845	 3.5742	 2.4381	 1.1930	 3.6311	 3.1172	 0.9645	 4.0817	57.0362	99.9942	
   330	 2.8816	 0.8110	 3.6927	 2.4988	 1.2419	 3.7406	 3.2500	 0.9146	 4.1646	57.3691	99.9927	
   331	 2.9102	 0.7853	 3.6956	 2.4736	 1.2512	 3.7248	 3.2080	 0.9760	 4.1841	57.0058	99.9929	
   332	 2.8660	 0.8017	 3.6677	 2.4714	 1.2131	 3.6845	 3.1615	 0.9479	 4.1093	57.0924	99.9937	
   333	 2.8651	 0.7869	 3.6521	 2.4633	 1.1837	 3.6470	 3.1615	 0.9479	 4.1093	57.0619	99.9940	
   334	 2.8347	 0.7830	 3.6178	 2.4085	 1.2363	 3.6449	 3.1097	 0.9274	 4.0370	57.0500	99.9928	
   335	 2.8191	 0.7736	 3.5928	 2.4049	 1.1729	 3.5777	 3.0579	 0.9069	 3.9647	57.0028	99.9939	
   336	 2.7792	 0.7354	 3.5147	 2.3716	 1.1527	 3.5243	 2.9251	 0.9567	 3.8818	56.5596	99.9947	
   337	 2.7488	 0.7315	 3.4804	 2.3383	 1.1326	 3.4710	 2.9175	 0.9196	 3.8371	56.6890	99.9946	
   338	 2.7496	 0.7463	 3.4961	 2.3716	 1.1527	 3.5243	 3.0579	 0.9069	 3.9647	57.0548	99.9940	
   339	 2.7653	 0.7557	 3.5211	 2.4263	 1.1001	 3.5265	 2.9693	 0.9401	 3.9094	56.7673	99.9957	
   340	 2.7175	 0.7128	 3.4305	 2.3051	 1.1125	 3.4176	 2.8599	 0.8955	 3.7555	56.6435	99.9946	
   341	 2.6438	 0.7401	 3.3839	 2.3095	 1.0784	 3.3880	 2.8157	 0.9122	 3.7278	56.6791	99.9958	
   342	 2.6429	 0.7253	 3.3683	 2.2467	 1.1017	 3.3483	 2.7714	 0.9288	 3.7002	56.5063	99.9953	
   343	 2.6576	 0.7198	 3.3776	 2.2718	 1.0924	 3.3642	 2.8157	 0.9122	 3.7278	56.6130	99.9952	
   344	 2.6134	 0.7362	 3.3496	 2.2763	 1.0583	 3.3346	 2.7196	 0.9083	 3.6279	56.5242	99.9961	
   345	 2.5674	 0.7229	 3.2904	 2.2430	 1.0382	 3.2812	 2.6346	 0.9002	 3.5348	56.4095	99.9964	
   346	 2.5570	 0.6738	 3.2309	 2.1765	 0.9980	 3.1744	 2.5753	 0.8426	 3.4178	56.3557	99.9961	
   347	 2.5066	 0.5866	 3.0933	 2.1048	 0.8689	 2.9737	 2.3273	 0.7359	 3.0632	56.0122	99.9966	
   348	 2.3547	 0.4385	 2.7933	 1.9910	 0.5674	 2.5584	 2.0660	 0.4801	 2.5461	56.0991	99.9981	
   349	 2.0795	 0.2452	 2.3249	 1.7738	 0.2523	 2.0261	 1.7907	 0.1725	 1.9632	56.4128	99.9988	
   350	 1.8373	 0.1003	 1.9377	 1.5549	 0.1322	 1.6871	 1.6342	-0.0199	 1.6143	56.7084	99.9980	
   351	 1.6828	 0.0364	 1.7193	 1.4507	-0.0043	 1.4464	 1.4887	-0.1079	 1.3807	56.7586	99.9988	
   352	 1.4702	-0.1195	 1.3508	 1.3451	-0.2764	 1.0687	 1.3711	-0.3092	 1.0619	57.0947	99.9996	
   353	 1.2662	-0.2559	 1.0104	 1.2446	-0.4596	 0.7850	 1.2484	-0.5029	 0.7455	57.4266	99.9997	
   354	 1.0032	-0.4990	 0.5043	 1.1213	-0.8159	 0.3054	 1.1210	-0.7861	 0.3349	57.8710	100.0000	
   355	 0.7558	-0.7328	 0.0231	 1.0571	-1.2588	-0.2017	 0.9516	-1.0079	-0.0563	58.0376	99.9985	
   356	 0.4927	-0.9759	-0.4831	 0.9619	-1.5736	-0.6117	 0.8021	-1.1744	-0.3723	58.0872	99.9968	
   357	 0.4866	-1.0795	-0.5928	 0.9767	-1.6504	-0.6737	 0.8877	-1.2636	-0.3759	58.3134	99.9969	
   358	 0.4788	-1.0842	-0.6052	 1.0506	-1.7036	-0.6530	 0.9610	-1.2626	-0.3015	58.4704	99.9958	
   359	 0.5379	-1.1060	-0.5680	 1.0773	-1.6875	-0.6102	 1.0385	-1.2916	-0.2532	58.5785	99.9966	
   360	 0.4484	-1.2166	-0.7681	 0.9405	-1.8314	-0.8909	 0.9715	-1.3864	-0.4148	58.6105	99.9941	
   361	 0.4389	-1.2509	-0.8119	 0.9287	-1.9243	-0.9956	 0.9099	-1.4888	-0.5789	58.7204	99.9938	
   362	 0.2818	-1.2307	-0.9488	 0.7956	-1.8946	-1.0990	 0.8033	-1.4773	-0.6740	58.7565	99.9943	
   363	 0.2818	-1.2307	-0.9488	 0.7779	-1.8686	-1.0907	 0.7189	-1.4742	-0.7553	58.5656	99.9957	
   364	 0.3903	-1.0515	-0.6611	 0.9885	-1.5575	-0.5690	 0.8684	-1.1993	-0.3308	58.3005	99.9983	
   365	 0.5856	-1.0631	-0.4774	 1.0876	-1.6200	-0.5324	 0.9034	-1.1781	-0.2748	57.9705	99.9969	
   366	 0.8599	-0.8846	-0.0247	 1.2583	-1.3331	-0.0748	 1.1688	-1.0609	 0.1079	58.1538	99.9991	
   367	 0.8816	-0.9002	-0.0185	 1.2612	-1.2823	-0.0211	 1.1886	-1.0055	 0.1830	57.9630	99.9993	
   368	 0.8668	-0.8948	-0.0278	 1.2597	-1.3077	-0.0480	 1.1688	-1.0609	 0.1079	58.1198	99.9994	
   369	 0.8651	-0.9244	-0.0592	 1.3056	-1.4024	-0.0968	 1.1688	-1.0609	 0.1079	58.0561	99.9985	
   370	 0.8798	-0.9298	-0.0499	 1.2820	-1.3678	-0.0858	 1.1688	-1.0609	 0.1079	58.0199	99.9989	
   371	 0.8816	-0.9002	-0.0185	 1.3086	-1.3517	-0.0431	 1.2462	-1.0900	 0.1563	58.3366	99.9991	
   372	 0.9102	-0.9259	-0.0156	 1.2834	-1.3424	-0.0590	 1.2393	-1.1159	 0.1234	58.2942	99.9994	
   373	 0.8703	-0.9641	-0.0937	 1.3027	-1.4532	-0.1505	 1.1950	-1.0993	 0.0957	58.1284	99.9981	
   374	 0.8981	-1.0046	-0.1064	 1.3544	-1.4464	-0.0919	 1.2794	-1.1024	 0.1770	58.1839	99.9986	
   375	 0.9571	-1.0264	-0.0692	 1.4173	-1.4696	-0.0523	 1.3569	-1.1315	 0.2254	58.2919	99.9986	
   376	 0.9414	-1.0357	-0.0942	 1.4033	-1.4903	-0.0871	 1.3126	-1.1149	 0.1977	58.1521	99.9982	
   377	 0.9041	-1.0295	-0.1253	 1.3959	-1.5070	-0.1112	 1.2724	-1.1283	 0.1441	58.1796	99.9982	
   378	 0.8737	-1.0334	-0.1596	 1.3693	-1.5231	-0.1539	 1.2707	-1.1619	 0.1088	58.3153	99.9982	
   379	 0.9137	-0.9952	-0.0815	 1.3796	-1.4557	-0.0761	 1.2794	-1.1024	 0.1770	58.1796	99.9984	
   380	 0.9371	-0.9812	-0.0440	 1.3936	-1.4349	-0.0413	 1.2812	-1.0688	 0.2123	58.0779	99.9984	
   381	 0.9545	-0.9423	 0.0123	 1.3477	-1.3402	 0.0075	 1.2992	-1.0471	 0.2521	58.1118	99.9991	
   382	 0.9701	-0.9329	 0.0373	 1.3758	-1.2987	 0.0771	 1.3324	-1.0595	 0.2729	58.2156	99.9996	
   383	 1.0387	-0.9204	 0.1184	 1.3802	-1.2226	 0.1576	 1.3871	-0.9830	 0.4041	58.0253	99.9997	
   384	 1.0916	-0.9173	 0.1744	 1.4668	-1.2805	 0.1863	 1.4133	-1.0214	 0.3919	58.1161	99.9995	
   385	 1.0691	-0.9165	 0.1526	 1.4431	-1.2458	 0.1973	 1.4779	-1.0799	 0.3980	58.4654	99.9999	
   386	 1.0543	-0.9111	 0.1433	 1.4054	-1.2319	 0.1735	 1.4133	-1.0214	 0.3919	58.1903	99.9998	
   387	 1.0916	-0.9173	 0.1744	 1.3639	-1.1712	 0.1927	 1.4133	-1.0214	 0.3919	58.1161	100.0000	
   388	 1.1081	-0.8931	 0.2151	 1.4031	-1.1598	 0.2434	 1.4645	-1.0121	 0.4524	58.2263	100.0000	
   389	 1.1185	-0.8440	 0.2746	 1.4061	-1.1090	 0.2971	 1.4994	-0.9910	 0.5085	58.3321	100.0000	
   390	 1.1394	-0.8744	 0.2650	 1.4046	-1.1344	 0.2702	 1.4645	-1.0121	 0.4524	58.2178	100.0000	
   391	 1.1099	-0.8635	 0.2464	 1.4031	-1.1598	 0.2434	 1.4663	-0.9785	 0.4878	58.1946	99.9998	
   392	 1.1940	-0.8417	 0.3525	 1.4970	-1.0907	 0.4063	 1.5210	-0.9020	 0.6190	58.0002	99.9999	
   393	 1.2782	-0.8198	 0.4585	 1.4733	-0.9459	 0.5274	 1.6182	-0.8757	 0.7425	58.0449	99.9999	
   394	 1.2644	-0.7996	 0.4649	 1.4984	-0.9552	 0.5433	 1.6112	-0.9016	 0.7096	58.1735	99.9998	
   395	 1.1923	-0.8713	 0.3211	 1.4830	-1.1115	 0.3715	 1.5769	-1.0200	 0.5569	58.4039	100.0000	
   396	 0.8659	-1.1666	-0.3006	 1.2533	-1.7525	-0.4992	 1.1887	-1.4394	-0.2506	58.6742	99.9972	
   397	 0.4085	-1.2548	-0.8462	 0.9139	-1.8475	-0.9336	 0.8522	-1.4044	-0.5522	58.3857	99.9955	
   398	 0.2523	-1.2198	-0.9674	 0.6773	-1.8314	-1.1542	 0.5041	-1.4849	-0.9808	58.2042	99.9972	
   399	-0.0037	-1.2160	-1.2196	 0.3512	-1.9184	-1.5672	 0.0605	-1.6665	-1.6060	58.2078	99.9978	
   400	-0.1617	-1.2106	-1.3722	 0.2174	-2.0116	-1.7942	-0.0698	-1.7888	-1.8586	58.5661	99.9973	
   401	-0.0376	-1.1506	-1.1880	 0.3246	-1.9345	-1.6099	 0.2073	-1.6645	-1.4573	58.7307	99.9955	
   402	 0.3148	-1.1824	-0.8675	 0.6692	-1.9710	-1.3018	 0.4797	-1.7383	-1.2585	58.8983	99.9966	
   403	 0.0691	-1.2580	-1.1888	 0.4843	-1.9481	-1.4638	 0.3277	-1.6241	-1.2964	58.4501	99.9965	
   404	 0.1325	-1.2058	-1.0732	 0.5538	-1.8571	-1.3033	 0.4307	-1.4859	-1.0551	58.2752	99.9960	
   405	 0.1959	-1.1536	-0.9576	 0.6307	-1.8596	-1.2289	 0.5373	-1.4973	-0.9600	58.5566	99.9952	
   406	 0.3018	-1.1473	-0.8455	 0.6936	-1.8828	-1.1893	 0.6700	-1.5472	-0.8771	58.8357	99.9942	
   407	 0.4580	-1.1823	-0.7242	 0.9213	-1.9410	-1.0197	 0.8295	-1.5157	-0.6862	58.7527	99.9931	
   408	 0.6290	-1.2228	-0.5937	 1.0308	-1.9361	-0.9053	 0.9873	-1.5179	-0.5306	58.7305	99.9929	
   409	 0.6021	-1.0390	-0.4368	 0.9745	-1.7986	-0.8241	 0.9785	-1.3605	-0.3819	58.7024	99.9904	
   410	 0.6412	-0.7585	-0.1172	 0.9500	-1.4461	-0.4961	 1.0779	-0.9640	 0.1139	58.3089	99.9879	
   411	 1.0110	-0.6229	 0.3882	 1.2131	-1.1155	 0.0976	 1.3969	-0.7926	 0.6043	58.1967	99.9942	
   412	 1.1107	-0.7202	 0.3906	 1.3522	-1.2641	 0.0881	 1.5454	-0.9740	 0.5715	58.6706	99.9943	
   413	 1.1385	-0.8892	 0.2494	 1.4684	-1.5857	-0.1173	 1.5868	-1.1550	 0.4318	58.8699	99.9897	
   414	 1.0768	-1.0404	 0.0366	 1.4551	-1.7039	-0.2488	 1.5141	-1.2533	 0.2608	58.7642	99.9915	
   415	 0.9458	-1.0903	-0.1444	 1.3294	-1.6575	-0.3281	 1.3056	-1.1408	 0.1648	58.0844	99.9930	
   416	 0.9692	-0.9477	 0.0216	 1.3773	-1.2734	 0.1040	 1.4331	-0.9660	 0.4670	58.1253	99.9991	
   417	 1.0881	-0.9765	 0.1118	 1.4232	-1.3681	 0.0551	 1.6975	-1.1966	 0.5009	59.1109	99.9983	
   418	 1.1593	-0.7911	 0.3684	 1.6213	-1.1625	 0.4587	 1.5239	-1.0629	 0.4610	58.6505	99.9994	
   419	 1.3025	-0.7910	 0.5116	 1.6145	-0.9462	 0.6684	 1.7730	-0.9338	 0.8392	58.5717	99.9996	
   420	 1.2383	-0.8580	 0.3804	 1.5961	-1.1532	 0.4429	 1.5967	-0.9647	 0.6320	58.2390	99.9999	
   421	 1.1819	-0.9204	 0.2616	 1.4949	-1.2390	 0.2559	 1.4779	-1.0799	 0.3980	58.2750	99.9999	
   422	 1.0274	-0.9843	 0.0432	 1.4942	-1.4721	 0.0221	 1.4145	-1.2159	 0.1986	58.6465	99.9990	
   423	 0.9076	-1.0988	-0.1912	 1.4447	-1.5510	-0.1063	 1.3965	-1.2377	 0.1588	58.6069	99.9988	
   424	 0.9171	-1.0646	-0.1473	 1.4942	-1.4721	 0.0221	 1.4494	-1.1948	 0.2547	58.6548	99.9993	
   425	 0.9310	-1.0848	-0.1537	 1.4927	-1.4974	-0.0047	 1.3831	-1.1699	 0.2132	58.3722	99.9990	
   426	 0.9527	-1.1004	-0.1476	 1.5194	-1.4813	 0.0380	 1.5007	-1.1855	 0.3152	58.5993	99.9993	
   427	 1.0664	-1.0894	-0.0229	 1.6118	-1.4377	 0.1741	 1.5886	-1.1214	 0.4671	58.4410	99.9993	
   428	 1.0647	-1.1190	-0.0543	 1.6088	-1.4885	 0.1204	 1.6130	-1.1934	 0.4196	58.6410	99.9993	
   429	 1.0091	-1.1666	-0.1574	 1.5667	-1.5507	 0.0160	 1.5601	-1.2363	 0.3238	58.6370	99.9992	
   430	 1.0143	-1.2063	-0.1919	 1.5578	-1.5928	-0.0349	 1.5601	-1.2363	 0.3238	58.5400	99.9988	
   431	 0.9848	-1.1954	-0.2105	 1.5578	-1.5928	-0.0349	 1.5583	-1.2699	 0.2884	58.7064	99.9990	
   432	 0.9614	-1.2094	-0.2480	 1.5786	-1.6782	-0.0996	 1.5071	-1.2792	 0.2279	58.6310	99.9981	
   433	 0.9067	-1.2422	-0.3354	 1.4817	-1.6878	-0.2061	 1.4984	-1.3387	 0.1597	58.8017	99.9985	
   434	 0.9449	-1.2336	-0.2886	 1.5786	-1.6782	-0.0996	 1.5141	-1.2533	 0.2608	58.5420	99.9981	
   435	 1.0456	-1.1876	-0.1419	 1.6584	-1.6299	 0.0285	 1.6462	-1.2059	 0.4404	58.6254	99.9979	
   436	 1.0838	-1.1790	-0.0952	 1.6813	-1.5671	 0.1142	 1.6643	-1.1841	 0.4802	58.5582	99.9987	
   437	 1.0994	-1.1697	-0.0702	 1.6340	-1.4977	 0.1362	 1.6992	-1.1630	 0.5362	58.5663	99.9992	
   438	 1.0994	-1.1697	-0.0702	 1.6340	-1.4977	 0.1362	 1.7306	-1.2090	 0.5216	58.7676	99.9994	
   439	 1.0985	-1.1845	-0.0858	 1.6813	-1.5671	 0.1142	 1.6905	-1.2225	 0.4680	58.6906	99.9990	
   440	 1.0751	-1.1985	-0.1233	 1.6799	-1.5925	 0.0874	 1.6462	-1.2059	 0.4404	58.5542	99.9987	
   441	 1.0308	-1.1821	-0.1512	 1.6347	-1.5952	 0.0395	 1.6445	-1.2395	 0.4050	58.7559	99.9987	
   442	 1.0829	-1.1938	-0.1108	 1.6325	-1.5231	 0.1094	 1.7306	-1.2090	 0.5216	58.7400	99.9992	
   443	 1.1679	-1.1572	 0.0109	 1.7360	-1.5095	 0.2265	 1.7964	-1.1367	 0.6597	58.6138	99.9988	
   444	 1.2140	-1.1439	 0.0701	 1.7796	-1.4219	 0.3577	 1.8884	-1.1027	 0.7857	58.6651	99.9995	
   445	 1.3476	-1.0496	 0.2981	 1.8209	-1.1520	 0.6689	 2.0071	-0.9875	 1.0196	58.5769	99.9999	
   446	 1.4292	-0.9437	 0.4857	 1.7698	-0.9257	 0.8441	 1.9459	-0.8618	 1.0842	58.1869	99.9990	
   447	 1.4970	-0.8174	 0.6796	 1.8008	-0.7233	 1.0775	 1.9802	-0.7434	 1.2369	58.0866	99.9974	
   448	 1.5942	-0.7021	 0.8922	 1.7993	-0.6385	 1.1608	 2.0076	-0.6509	 1.3567	57.9755	99.9985	
   449	 1.4952	-0.7185	 0.7768	 1.7364	-0.7255	 1.0110	 1.9470	-0.7309	 1.2161	58.2014	99.9990	
   450	 1.4918	-0.7777	 0.7141	 1.7350	-0.7509	 0.9841	 1.9470	-0.7309	 1.2161	58.0759	99.9990	
   451	 1.4978	-0.8026	 0.6953	 1.7823	-0.8202	 0.9621	 1.9342	-0.7604	 1.1739	58.0695	99.9992	
   452	 1.4796	-0.8564	 0.6233	 1.7461	-0.8911	 0.8550	 1.9127	-0.8493	 1.0634	58.1930	99.9993	
   453	 1.4388	-0.9094	 0.5295	 1.7765	-1.0319	 0.7446	 1.8854	-0.9418	 0.9436	58.3525	99.9997	
   454	 1.3893	-0.9818	 0.4076	 1.7706	-1.1334	 0.6372	 1.8324	-0.9847	 0.8478	58.2832	99.9998	
   455	 1.3346	-1.0146	 0.3201	 1.7596	-1.2136	 0.5460	 1.7865	-1.0017	 0.7848	58.2496	99.9999	
   456	 1.3042	-1.0185	 0.2859	 1.7329	-1.2297	 0.5033	 1.7667	-1.0570	 0.7097	58.4094	99.9998	
   457	 1.2183	-1.0699	 0.1485	 1.6834	-1.3086	 0.3748	 1.7190	-1.1076	 0.6114	58.4788	99.9998	
   458	 1.2174	-1.0847	 0.1328	 1.7337	-1.3272	 0.4065	 1.7650	-1.0906	 0.6743	58.4951	99.9998	
   459	 1.2634	-1.0715	 0.1921	 1.6701	-1.2065	 0.4636	 1.8179	-1.0477	 0.7702	58.4382	99.9999	
   460	 1.3086	-1.0730	 0.2357	 1.7832	-1.2483	 0.5350	 1.8441	-1.0861	 0.7580	58.5307	99.9997	
   461	 1.2955	-1.1665	 0.1292	 1.7515	-1.4634	 0.2881	 1.8011	-1.2640	 0.5371	58.7738	99.9998	
   462	 1.0898	-1.2039	-0.1140	 1.6289	-1.6968	-0.0679	 1.5071	-1.2792	 0.2279	58.4377	99.9977	
   463	 0.9544	-1.1993	-0.2448	 1.4654	-1.6364	-0.1710	 1.3633	-1.2252	 0.1381	58.1988	99.9981	
   464	 0.9657	-1.1354	-0.1696	 1.4587	-1.5303	-0.0715	 1.3831	-1.1699	 0.2132	58.2031	99.9988	
   465	 1.1411	-0.9733	 0.1678	 1.5932	-1.2040	 0.3892	 1.5437	-1.0076	 0.5361	58.1505	99.9996	
   466	 1.9431	-0.7931	 1.1500	 1.9458	-0.8805	 1.0652	 2.0891	-0.8185	 1.2706	57.8761	99.9997	
   467	 1.3085	-1.3301	-0.0214	 1.5196	-2.1425	-0.6229	 1.1738	-2.0559	-0.8821	59.4119	99.9984	
   468	 0.3329	-1.7713	-1.4383	 0.6421	-2.5508	-1.9087	 0.3659	-2.5232	-2.1573	59.6542	99.9991	
   469	-0.7954	-1.9897	-2.7851	-0.3768	-2.7384	-3.1152	-0.4986	-2.6667	-3.1652	59.5467	99.9989	
   470	-0.9108	-1.5162	-2.4268	-0.3851	-2.3270	-2.7121	-0.5814	-2.0876	-2.6691	58.8811	99.9970	
   471	-0.1887	-1.4123	-1.6009	 0.1717	-2.3577	-2.1859	-0.0545	-2.2569	-2.3114	59.6117	99.9970	
   472	 0.2436	-1.4963	-1.2527	 0.6155	-2.5669	-1.9514	 0.4736	-2.5122	-2.0386	60.6484	99.9955	
   473	 0.4545	-1.4986	-1.0440	 0.8484	-2.5362	-1.6879	 0.8345	-2.5107	-1.6762	61.0709	99.9955	
   474	 0.4484	-1.4737	-1.0252	 0.9238	-2.4539	-1.5301	 0.9271	-2.3571	-1.4300	60.8595	99.9955	
   475	 0.5951	-1.4144	-0.8192	 0.8675	-2.3165	-1.4490	 0.7156	-2.0837	-1.3680	59.4691	99.9939	
   476	 0.4233	-1.2602	-0.8369	 0.8341	-2.0060	-1.1719	 0.8413	-1.7256	-0.8843	59.2865	99.9950	
   477	 0.5352	-1.4074	-0.8721	 0.9835	-2.0871	-1.1036	 0.9321	-1.8225	-0.8904	59.2559	99.9970	
   478	 0.6792	-1.5211	-0.8418	 1.2845	-2.1010	-0.8166	 1.2104	-1.8927	-0.6823	59.5700	99.9989	
   479	 0.7842	-1.6582	-0.8738	 1.2483	-2.3923	-1.1439	 1.0615	-2.2649	-1.2034	59.8958	99.9986	
   480	 0.3059	-2.2301	-1.9241	 0.6541	-3.1191	-2.4649	 0.2951	-3.2386	-2.9435	60.6905	99.9988	
   481	-0.6784	-2.8193	-3.4976	-0.3919	-3.6660	-4.0580	-0.4881	-4.2116	-4.6998	62.2770	99.9976	
   482	-1.4283	-2.8826	-4.3108	-1.1543	-3.7475	-4.9017	-1.1780	-4.2495	-5.4275	61.9695	99.9990	
   483	-1.3249	-2.2781	-3.6029	-0.8638	-3.2779	-4.1418	-0.8599	-3.3301	-4.1900	61.0156	99.9976	
   484	-0.1098	-1.9934	-2.1031	 0.4138	-2.9461	-2.5323	 0.4609	-2.9755	-2.5145	61.4531	99.9978	
   485	 0.6558	-1.7922	-1.1363	 1.0910	-2.7814	-1.6904	 1.0407	-2.7765	-1.7358	61.3197	99.9971	
   486	 0.8372	-1.6550	-0.8178	 1.2455	-2.6634	-1.4179	 1.1594	-2.6612	-1.5018	61.2485	99.9970	
   487	 0.6948	-1.7688	-1.0739	 0.8507	-2.7185	-1.8679	 0.6082	-2.7454	-2.1372	60.2877	99.9979	
   488	-0.2035	-1.9210	-2.1244	 0.0329	-2.8702	-2.8373	-0.0118	-2.8494	-2.8612	60.3700	99.9960	
   489	-0.0664	-2.0246	-2.0908	 0.4876	-2.6687	-2.1811	 0.4805	-2.3778	-1.8973	59.5164	99.9972	
   490	 0.4266	-1.7151	-1.2884	 1.1492	-2.3298	-1.1805	 1.1546	-1.9916	-0.8370	59.7071	99.9975	
   491	 1.0194	-1.6316	-0.6121	 1.4332	-2.4152	-0.9820	 1.2798	-2.2955	-1.0156	60.1401	99.9982	
   492	 0.0923	-2.5293	-2.4368	 0.3755	-3.4958	-3.1202	 0.1626	-3.9480	-3.7853	62.2912	99.9988	
   493	-1.4692	-3.4497	-4.9188	-1.1407	-4.2904	-5.4311	-1.2774	-4.8629	-6.1402	62.4167	99.9962	
   494	-2.0533	-3.2567	-5.3099	-1.5704	-4.0604	-5.6308	-1.4306	-4.4457	-5.8763	62.1525	99.9996	
   495	-0.6263	-2.5739	-3.2001	-0.0267	-3.5676	-3.5943	 0.0880	-3.7544	-3.6664	62.5476	99.9991	
   496	 0.6192	-2.1568	-1.5374	 1.1215	-3.1426	-2.0211	 1.0845	-3.1297	-2.0452	61.7067	99.9972	
   497	 1.1045	-1.8520	-0.7475	 1.5058	-2.8244	-1.3185	 1.5175	-2.8242	-1.3067	61.6204	99.9967	
   498	 1.2347	-1.8169	-0.5822	 1.6567	-2.7699	-1.1132	 1.6281	-2.7573	-1.1291	61.5223	99.9972	
   499	 1.1036	-1.8668	-0.7631	 1.3535	-2.7940	-1.4405	 1.1525	-2.6872	-1.5347	60.3876	99.9963	
   500	 0.2556	-2.0603	-1.8046	 0.4803	-3.0160	-2.5357	 0.3393	-2.9298	-2.5906	60.3041	99.9955	
   501	 0.0803	-2.2224	-2.1420	 0.7842	-2.8690	-2.0848	 0.7944	-2.6327	-1.8382	60.2655	99.9982	
   502	 0.6974	-1.8529	-1.1554	 1.3918	-2.3545	-0.9627	 1.5295	-2.0467	-0.5172	59.9187	99.9982	
   503	 1.1913	-1.7858	-0.5944	 1.6810	-2.5715	-0.8905	 1.5425	-2.5596	-1.0171	60.8739	99.9991	
   504	 0.1531	-2.7785	-2.6254	 0.4311	-3.7561	-3.3250	 0.2873	-4.2630	-3.9757	62.8676	99.9989	
   505	-1.3226	-3.6475	-4.9700	-0.9728	-4.4950	-5.4678	-1.0927	-5.1091	-6.2018	62.8939	99.9955	
   506	-1.8728	-3.5200	-5.3927	-1.4180	-4.3111	-5.7291	-1.2419	-4.7221	-5.9639	62.5128	99.9997	
   507	-0.4102	-2.7444	-3.1545	 0.3076	-3.6716	-3.3640	 0.5165	-3.7555	-3.2390	62.6942	99.9986	
   508	 1.1131	-2.2181	-1.1050	 1.6302	-3.1166	-1.4864	 1.6521	-3.0574	-1.4053	61.7475	99.9972	
   509	 1.5393	-1.8916	-0.3522	 1.9887	-2.8018	-0.8131	 2.0694	-2.8373	-0.7679	62.0356	99.9978	
   510	 1.6538	-1.8659	-0.2119	 2.1107	-2.8014	-0.6908	 2.1550	-2.8181	-0.6631	62.0356	99.9975	
   511	 1.5254	-1.9999	-0.4744	 1.7972	-3.0033	-1.2060	 1.4652	-2.8559	-1.3908	60.5888	99.9955	
   512	 0.5767	-2.2393	-1.6625	 0.9166	-3.1317	-2.2151	 0.7969	-3.0217	-2.2248	60.6331	99.9966	
   513	 0.4309	-2.4123	-1.9814	 1.1148	-3.0364	-1.9216	 1.1595	-2.7697	-1.6102	60.4571	99.9979	
   514	 0.8623	-2.1255	-1.2632	 1.6633	-2.6557	-0.9924	 1.7986	-2.4046	-0.6060	60.6689	99.9988	
   515	 0.9794	-2.3124	-1.3329	 1.5296	-3.0794	-1.5498	 1.4408	-3.1093	-1.6685	61.4554	99.9993	
   516	-0.0692	-3.2257	-3.2948	 0.3735	-4.0848	-3.7113	 0.2875	-4.6969	-4.4094	63.5265	99.9953	
   517	-1.2384	-3.7542	-4.9925	-0.8145	-4.5340	-5.3485	-0.8249	-5.0555	-5.8805	62.8909	99.9971	
   518	-0.9163	-3.1473	-4.0635	-0.3519	-3.9725	-4.3244	-0.1208	-4.1954	-4.3162	62.5829	99.9998	
   519	 1.0497	-2.3989	-1.3491	 1.7071	-3.2292	-1.5221	 1.9077	-3.1305	-1.2228	62.1733	99.9969	
   520	 2.1294	-1.9810	 0.1486	 2.6165	-2.8262	-0.2097	 2.7529	-2.7058	 0.0471	61.9153	99.9957	
   521	 2.3421	-1.8251	 0.5171	 2.8449	-2.6513	 0.1936	 3.0096	-2.5396	 0.4700	61.9671	99.9960	
   522	 2.3707	-1.8508	 0.5200	 2.8442	-2.7742	 0.0700	 2.8885	-2.6996	 0.1889	62.1059	99.9962	
   523	 1.7345	-2.1603	-0.4257	 1.9230	-3.1599	-1.2369	 1.6853	-3.1783	-1.4930	61.3502	99.9973	
   524	 0.6495	-2.5384	-1.8888	 1.0276	-3.3218	-2.2942	 1.0240	-3.2097	-2.1857	60.8784	99.9972	
   525	 0.6773	-2.4504	-1.7730	 1.4216	-2.9488	-1.5272	 1.6089	-2.6930	-1.0841	60.6882	99.9987	
   526	 1.0471	-2.0577	-1.0104	 1.8747	-2.5523	-0.6776	 2.1322	-2.3871	-0.2550	61.1689	99.9994	
   527	 0.9464	-2.3607	-1.4142	 1.5636	-3.1568	-1.5931	 1.5160	-3.2916	-1.7757	62.1154	99.9993	
   528	-0.1508	-3.2031	-3.3538	 0.3875	-3.9539	-3.5663	 0.4289	-4.4703	-4.0414	63.2722	99.9964	
   529	-0.9441	-3.4924	-4.4364	-0.4243	-4.2244	-4.6487	-0.3570	-4.7289	-5.0859	62.9998	99.9968	
   530	-0.2167	-2.9142	-3.1308	 0.4030	-3.6874	-3.2844	 0.5841	-3.7580	-3.1739	62.1371	99.9994	
   531	 1.4316	-2.3131	-0.8814	 2.0036	-3.0989	-1.0953	 2.1510	-3.0049	-0.8539	61.8995	99.9974	
   532	 2.2614	-1.9163	 0.3452	 2.7214	-2.6770	 0.0444	 2.8792	-2.5534	 0.3257	61.6569	99.9965	
   533	 2.5730	-1.7440	 0.8290	 3.0230	-2.4578	 0.5652	 3.2348	-2.3273	 0.9074	61.6165	99.9964	
   534	 2.7336	-1.7050	 1.0286	 3.1376	-2.4742	 0.6634	 3.3041	-2.2963	 1.0078	61.5079	99.9947	
   535	 2.3603	-1.8999	 0.4605	 2.5979	-2.7027	-0.1048	 2.4722	-2.5719	-0.0997	60.7544	99.9968	
   536	 1.1808	-2.2204	-1.0396	 1.4541	-2.9414	-1.4872	 1.4058	-2.8051	-1.3993	60.3401	99.9974	
   537	 0.8605	-2.2836	-1.4230	 1.4732	-2.6114	-1.1382	 1.6868	-2.2770	-0.5902	59.7030	99.9987	
   538	 1.0394	-1.8053	-0.7658	 1.9108	-2.2610	-0.3502	 2.1268	-1.9456	 0.1811	60.4288	99.9987	
   539	 0.8528	-1.9027	-1.0499	 1.6544	-2.5876	-0.9332	 1.7736	-2.4523	-0.6787	61.2845	99.9988	
   540	 0.0542	-2.5378	-2.4836	 0.7577	-3.3258	-2.5681	 0.6608	-3.4729	-2.8121	61.8757	99.9985	
   541	-0.8347	-3.1699	-4.0045	-0.2247	-3.8833	-4.1081	-0.1551	-4.4223	-4.5774	63.0529	99.9950	
   542	-1.0065	-3.0157	-4.0221	-0.4636	-3.7951	-4.2587	-0.3654	-4.0180	-4.3834	61.9653	99.9998	
   543	 0.4699	-2.3889	-1.9189	 1.0786	-3.1073	-2.0287	 1.1805	-2.9089	-1.7284	60.9165	99.9972	
   544	 1.8066	-1.8315	-0.0248	 2.2799	-2.5399	-0.2600	 2.4011	-2.3112	 0.0899	60.8391	99.9958	
   545	 2.2059	-1.5782	 0.6277	 2.6111	-2.2539	 0.3572	 2.7620	-2.0928	 0.6692	60.8870	99.9967	
   546	 2.2858	-1.5019	 0.7840	 2.6983	-2.1889	 0.5094	 2.7573	-1.9654	 0.7918	60.5455	99.9964	
   547	 2.0800	-1.6679	 0.4123	 2.2392	-2.3563	-0.1172	 2.1455	-2.1296	 0.0159	59.6991	99.9959	
   548	 1.0506	-1.8700	-0.8192	 1.2884	-2.6987	-1.4103	 0.9201	-2.3830	-1.4629	59.0251	99.9951	
   549	 0.4136	-1.9372	-1.5235	 0.9592	-2.3957	-1.4365	 0.9165	-2.0164	-1.0999	58.7926	99.9981	
   550	 0.3026	-1.5181	-1.2154	 1.2415	-1.8454	-0.6039	 1.3680	-1.3526	 0.0154	58.9077	99.9984	
   551	 0.2905	-1.3397	-1.0492	 1.1631	-1.8683	-0.7052	 1.2662	-1.4684	-0.2023	59.4499	99.9977	
   552	-0.3093	-1.6702	-1.9794	 0.5089	-2.4109	-1.9020	 0.3600	-2.3098	-1.9497	60.2601	99.9982	
   553	-1.2833	-2.3389	-3.6220	-0.5593	-3.0080	-3.5673	-0.7313	-3.0245	-3.7558	60.1238	99.9980	
   554	-1.5462	-2.3249	-3.8711	-0.9660	-2.9356	-3.9016	-1.0883	-2.8391	-3.9274	59.2356	99.9992	
   555	-0.4213	-1.7801	-2.2013	 0.1629	-2.3998	-2.2369	 0.1224	-1.9979	-1.8756	58.7346	99.9961	
   556	 1.2452	-1.2537	-0.0085	 1.6821	-1.6646	 0.0175	 1.8785	-1.2931	 0.5855	58.9077	99.9965	
   557	 2.0490	-0.7869	 1.2622	 2.0774	-0.8254	 1.2519	 2.5182	-0.8083	 1.7099	58.6043	99.9986	
   558	 2.1618	-0.6622	 1.4997	 2.1734	-0.7183	 1.4551	 2.5123	-0.7034	 1.8089	58.3835	99.9991	
   559	 2.0602	-0.7230	 1.3373	 1.9879	-0.8183	 1.1696	 2.2568	-0.8472	 1.4096	58.2875	99.9991	
   560	 1.4041	-0.9873	 0.4169	 1.3027	-1.4532	-0.1505	 0.9895	-1.1477	-0.1582	56.8856	99.9978	
   561	 0.0587	-1.1786	-1.1197	 0.1870	-1.6504	-1.4634	-0.0968	-1.1109	-1.2077	56.1721	99.9949	
   562	-0.5644	-1.0090	-1.5732	 0.0049	-1.2462	-1.2413	-0.1564	-0.6262	-0.7826	56.0463	99.9979	
   563	-0.8542	-0.5541	-1.4082	-0.1292	-0.5680	-0.6972	-0.0250	-0.1561	-0.1811	56.4552	99.9996	
   564	-1.4149	-0.6042	-2.0189	-0.5689	-1.1769	-1.7458	-0.7495	-0.8658	-1.6154	57.7502	99.9980	
   565	-2.2968	-1.2463	-3.5430	-1.5994	-1.8981	-3.4975	-1.8909	-1.7844	-3.6753	57.9848	99.9978	
   566	-2.9226	-1.6352	-4.5578	-2.3734	-2.2928	-4.6662	-2.8036	-2.0981	-4.9017	57.0325	99.9978	
   567	-2.2213	-1.1154	-3.3366	-1.7267	-1.6567	-3.3833	-1.9586	-1.1311	-3.0897	56.0332	99.9961	
   568	-0.5183	-0.4816	-0.9998	-0.2363	-0.7553	-0.9916	-0.2927	-0.3182	-0.6109	55.9354	99.9984	
   569	 0.4383	 0.0196	 0.4579	 0.3282	 0.1250	 0.4533	 0.5151	 0.2575	 0.7727	55.5732	99.9992	
   570	 0.8705	 0.3212	 1.1918	 0.6815	 0.5714	 1.2529	 0.9668	 0.7044	 1.6712	55.2342	99.9986	
   571	 0.9964	 0.4108	 1.4073	 0.7429	 0.6330	 1.3758	 0.9318	 0.7918	 1.7236	54.8910	99.9988	
   572	 0.6344	 0.2798	 0.9144	 0.2217	 0.3912	 0.6129	 0.0208	 0.6201	 0.6408	53.6362	99.9997	
   573	-0.6327	 0.1353	-0.4973	-0.9569	 0.2172	-0.7397	-1.2781	 0.5826	-0.6955	52.6077	99.9999	
   574	-1.4789	 0.2285	-1.2503	-1.4710	 0.5431	-0.9278	-1.6624	 1.0008	-0.6616	52.2137	99.9996	
   575	-1.9770	 0.7300	-1.2469	-1.7219	 1.3098	-0.4121	-1.7082	 1.8627	 0.1546	51.6474	99.9989	
   576	-2.5411	 1.2634	-1.2776	-2.0326	 1.5995	-0.4331	-1.9387	 1.9835	 0.0448	52.8777	99.9983	
   577	-3.0766	 1.2570	-1.8195	-2.5472	 1.4720	-1.0752	-2.4445	 1.6883	-0.7563	53.4517	99.9971	
   578	-3.4299	 0.8884	-2.5414	-3.0018	 1.0501	-1.9517	-3.1587	 1.2886	-1.8702	52.7454	99.9959	
   579	-3.5410	 0.7933	-2.7475	-3.2311	 1.1931	-2.0380	-3.4674	 1.6442	-1.8232	51.0011	99.9966	
   580	-3.0748	 1.2866	-1.7882	-2.9666	 1.7694	-1.1972	-3.2150	 2.2743	-0.9407	50.0585	99.9980	
   581	-2.7137	 1.5313	-1.1823	-2.8018	 2.0650	-0.7368	-3.1865	 2.6061	-0.5805	49.0646	99.9980	
   582	-2.5427	 1.7479	-0.7947	-2.7391	 2.3724	-0.3667	-3.1442	 2.9897	-0.1545	48.2546	99.9986	
   583	-2.3691	 2.0089	-0.3601	-2.6009	 2.7621	 0.1611	-2.9574	 3.3306	 0.3731	48.0105	99.9973	
   584	-2.2936	 2.1398	-0.1537	-2.6240	 3.0298	 0.4058	-2.9034	 3.6128	 0.7094	47.5146	99.9973	
   585	-2.2996	 2.2932	-0.0063	-2.6773	 3.2180	 0.5407	-2.9908	 3.7769	 0.7861	47.1824	99.9964	
   586	-2.4297	 2.5152	 0.0856	-2.7942	 3.5269	 0.7326	-3.1131	 4.1367	 1.0236	46.6148	99.9960	
   587	-2.6380	 2.6904	 0.0525	-3.0502	 3.7640	 0.7138	-3.3961	 4.3343	 0.9381	46.1270	99.9944	
   588	-2.8315	 2.8601	 0.0287	-3.2647	 4.0506	 0.7859	-3.5639	 4.5799	 1.0160	45.7648	99.9922	
   589	-3.2828	 3.0041	-0.2786	-3.5058	 4.2109	 0.7051	-3.7858	 4.7602	 0.9745	45.8747	99.9903	
   590	-3.5223	 3.2891	-0.2331	-3.6302	 4.6133	 0.9831	-3.7748	 5.1899	 1.4151	45.8013	99.9895	
   591	-3.7028	 3.5524	-0.1503	-3.5231	 4.9107	 1.3876	-3.5223	 5.4946	 1.9724	46.4885	99.9879	
   592	-3.4215	 3.7207	 0.2993	-3.4700	 5.2735	 1.8035	-3.3157	 5.7824	 2.4667	46.0725	99.9866	
   593	-3.9735	 4.0757	 0.1023	-3.7704	 5.7409	 1.9704	-3.3129	 6.0553	 2.7424	47.0685	99.9787	
   594	-3.7556	 4.3204	 0.5649	-3.6285	 5.9736	 2.3451	-3.0888	 6.1367	 3.0479	47.4773	99.9756	
   595	-3.8337	 4.4022	 0.5686	-3.7159	 6.1290	 2.4131	-3.1441	 6.2659	 3.1218	47.3155	99.9729	
   596	-4.0237	 4.6311	 0.6075	-3.7943	 6.3265	 2.5322	-3.1658	 6.5023	 3.3366	47.4440	99.9752	
   597	-3.8692	 4.8236	 0.9545	-3.6643	 6.5766	 2.9123	-2.8305	 6.5534	 3.7230	48.1963	99.9691	
   598	-3.5506	 4.9857	 1.4352	-3.5084	 6.8301	 3.3217	-2.5947	 6.6418	 4.0471	48.2771	99.9620	
   599	-3.4916	 5.2209	 1.7295	-3.4729	 6.9985	 3.5255	-2.6157	 6.8895	 4.2737	47.9525	99.9675	
   600	-3.5740	 5.4858	 1.9119	-3.6047	 7.2739	 3.6693	-2.7113	 7.1137	 4.4024	47.8170	99.9661	
   601	-3.8829	 5.8720	 1.9892	-3.9095	 7.6652	 3.7557	-3.0636	 7.4971	 4.4335	47.3102	99.9644	
   602	-4.1597	 6.2918	 2.1322	-4.1285	 7.9858	 3.8574	-3.2751	 7.7705	 4.4955	47.4172	99.9648	
   603	-4.3844	 6.6999	 2.3156	-4.3504	 8.3659	 4.0155	-3.4574	 8.1700	 4.7126	47.1621	99.9675	
   604	-4.4919	 7.0496	 2.5578	-4.5406	 8.7407	 4.2001	-3.5542	 8.4803	 4.9262	47.0143	99.9665	
   605	-4.6663	 7.2879	 2.6217	-4.7485	 8.9212	 4.1727	-3.7388	 8.6181	 4.8793	46.9966	99.9672	
   606	-4.9319	 7.3860	 2.4542	-5.0251	 9.0233	 3.9983	-4.0596	 8.7386	 4.6790	46.5938	99.9672	
   607	-5.0256	 7.4584	 2.4329	-5.1227	 9.1112	 3.9885	-4.2494	 8.8840	 4.6346	46.0829	99.9677	
   608	-5.1150	 7.6048	 2.4899	-5.2551	 9.2638	 4.0087	-4.3455	 8.9886	 4.6431	46.0304	99.9665	
   609	-5.1974	 7.7411	 2.5438	-5.3750	 9.4117	 4.0368	-4.5301	 9.1264	 4.5963	45.6497	99.9648	
   610	-5.2417	 7.8860	 2.6444	-5.3846	 9.5773	 4.1927	-4.5983	 9.4431	 4.8447	45.0536	99.9697	
   611	-5.1783	 8.0667	 2.8885	-5.3788	 9.7891	 4.4102	-4.6718	 9.7675	 5.0957	44.3005	99.9731	
   612	-5.2294	 8.2217	 2.9923	-5.5549	10.0744	 4.5195	-4.8134	 9.9747	 5.1614	43.8298	99.9677	
   613	-5.3865	 8.3704	 2.9840	-5.7213	10.1942	 4.4729	-5.0084	10.1279	 5.1194	43.5421	99.9697	
   614	-5.4577	 8.4421	 2.9845	-5.8818	10.3053	 4.4235	-5.1983	10.2733	 5.0750	42.9826	99.9705	
   615	-5.5878	 8.5355	 2.9478	-6.0482	10.4251	 4.3769	-5.4597	10.4514	 4.9917	42.3136	99.9710	
   616	-5.8239	 8.6227	 2.7989	-6.2590	10.4446	 4.1856	-5.6961	10.4602	 4.7641	42.3026	99.9718	
   617	-5.9332	 8.6857	 2.7526	-6.3655	10.6006	 4.2351	-5.8097	10.6627	 4.8530	41.8512	99.9708	
   618	-5.8343	 8.8306	 2.9965	-6.3087	10.8064	 4.4978	-5.7201	10.8688	 5.1487	41.6615	99.9701	
   619	-5.7683	 8.9273	 3.1591	-6.3021	10.9206	 4.6186	-5.7947	11.0623	 5.2676	41.0609	99.9723	
   620	-5.8690	 9.0098	 3.1409	-6.4056	11.0172	 4.6116	-5.9455	11.1988	 5.2533	40.6939	99.9728	
   621	-5.9609	 9.1118	 3.1510	-6.4685	11.0404	 4.5719	-6.1016	11.3430	 5.2414	40.3131	99.9780	
   622	-5.9739	 9.1468	 3.1730	-6.4308	11.0265	 4.5957	-6.1348	11.3555	 5.2207	40.2862	99.9787	
   623	-5.9297	 9.1305	 3.2009	-6.4840	11.1045	 4.6205	-6.2134	11.4706	 5.2572	39.6968	99.9782	
   624	-6.1189	 9.2457	 3.1270	-6.6815	11.2422	 4.5607	-6.4924	11.7466	 5.2542	38.9006	99.9815	
   625	-6.1388	 9.4194	 3.2807	-6.5743	11.3193	 4.7450	-6.5024	12.0985	 5.5961	38.4076	99.9893	
   626	-5.9739	 9.5324	 3.5587	-6.4886	11.4691	 4.9805	-6.4774	12.3631	 5.8857	37.7409	99.9914	
   627	-5.9183	 9.5800	 3.6617	-6.4886	11.4691	 4.9805	-6.5881	12.4046	 5.8166	37.3256	99.9925	
   628	-6.2777	 9.4934	 3.2158	-6.7976	11.3434	 4.5458	-6.7778	12.1163	 5.3385	38.0450	99.9901	
   629	-6.5007	 9.2884	 2.7878	-7.0845	11.2679	 4.1834	-6.9447	11.8308	 4.8860	38.3436	99.9833	
   630	-6.8280	 9.1068	 2.2790	-7.4875	11.1834	 3.6959	-7.1997	11.5897	 4.3901	38.5563	99.9782	
   631	-7.1240	 8.9439	 1.8201	-7.6922	10.9738	 3.2816	-7.4097	11.3432	 3.9335	38.8730	99.9769	
   632	-7.3262	 8.8372	 1.5110	-7.7898	10.8413	 3.0516	-7.4802	11.2898	 3.8096	39.0222	99.9798	
   633	-7.1865	 8.6495	 1.4631	-7.6640	10.6847	 3.0207	-7.2891	11.0582	 3.7691	39.4561	99.9773	
   634	-7.1423	 8.5046	 1.3624	-7.7201	10.6018	 2.8816	-7.2914	10.9050	 3.6136	39.4638	99.9748	
   635	-7.2048	 8.5957	 1.3911	-7.7172	10.6525	 2.9353	-7.4661	11.1247	 3.6586	38.7744	99.9789	
   636	-7.1388	 8.4353	 1.2966	-7.7201	10.6018	 2.8816	-7.4003	10.8717	 3.4714	39.1242	99.9693	
   637	-7.0295	 8.2437	 1.2143	-7.5692	10.3257	 2.7565	-7.4025	10.7184	 3.3159	38.9178	99.9738	
   638	-6.9939	 8.0793	 1.0855	-7.5780	10.1734	 2.5954	-7.3308	10.4689	 3.1380	39.3305	99.9714	
   639	-7.0504	 8.0170	 0.9667	-7.5994	10.0257	 2.4264	-7.4065	10.4231	 3.0166	39.2380	99.9768	
   640	-7.0122	 8.0256	 1.0135	-7.6438	10.1458	 2.5020	-7.4322	10.5811	 3.1490	38.7363	99.9765	
   641	-6.8464	 8.0249	 1.1786	-7.5026	10.1455	 2.6430	-7.2569	10.5895	 3.3326	38.8507	99.9777	
   642	-6.8082	 8.0334	 1.2253	-7.5248	10.2056	 2.6808	-7.2238	10.5771	 3.3533	38.9074	99.9749	
   643	-6.8464	 8.0249	 1.1786	-7.6002	10.2334	 2.6332	-7.4025	10.7184	 3.3159	38.1607	99.9772	
   644	-6.9531	 8.1323	 1.1793	-7.6949	10.3721	 2.6772	-7.4707	10.8182	 3.3475	38.1509	99.9750	
   645	-7.0295	 8.2437	 1.2143	-7.7704	10.5101	 2.7397	-7.7188	11.1453	 3.4265	37.0761	99.9788	
   646	-7.0885	 8.3940	 1.3056	-7.8932	10.7175	 2.8243	-7.8603	11.3526	 3.4922	36.5992	99.9777	
   647	-7.1892	 8.4765	 1.2875	-7.9909	10.8054	 2.8146	-7.8865	11.2825	 3.3960	37.0389	99.9723	
   648	-7.1623	 8.4213	 1.2591	-7.9657	10.7961	 2.8304	-7.7829	11.3235	 3.5406	37.0736	99.9745	
   649	-6.9947	 8.4501	 1.4555	-7.7675	10.7813	 3.0137	-7.6863	11.4471	 3.7608	36.7628	99.9791	
   650	-6.9982	 8.5195	 1.5214	-7.8209	10.9695	 3.1486	-7.7999	11.6495	 3.8496	36.1212	99.9760	
   651	-7.0277	 8.6589	 1.6313	-7.8460	11.0889	 3.2429	-7.8815	11.9256	 4.0441	35.5762	99.9814	
   652	-7.0086	 8.8560	 1.8475	-7.8646	11.3226	 3.4580	-7.9736	12.2170	 4.2434	34.9690	99.9818	
   653	-6.9443	 8.9230	 1.9788	-7.9179	11.4006	 3.4827	-8.0056	12.1434	 4.1378	35.0267	99.9777	
   654	-7.0025	 8.8310	 1.8287	-7.9245	11.1762	 3.2518	-8.0585	11.9920	 3.9335	35.1835	99.9824	
   655	-7.0580	 8.7835	 1.7256	-8.0502	11.2227	 3.1725	-8.1691	12.0336	 3.8644	34.8176	99.9808	
   656	-6.9999	 8.8754	 1.8757	-7.9778	11.3644	 3.3866	-8.0388	12.1559	 4.1171	34.9410	99.9796	
   657	-6.9261	 8.8482	 1.9222	-7.9245	11.2864	 3.3619	-8.0044	12.0573	 4.0530	35.0574	99.9801	
   658	-7.0164	 8.7228	 1.7065	-7.9939	11.0852	 3.0913	-8.0503	11.8234	 3.7731	35.4291	99.9810	
   659	-7.0980	 8.6168	 1.5189	-8.0693	11.0029	 2.9336	-8.1539	11.7824	 3.6285	35.2217	99.9813	
   660	-7.2013	 8.6549	 1.4538	-8.1729	11.0995	 2.9266	-8.2203	11.8073	 3.5871	35.2617	99.9778	
   661	-7.2542	 8.6518	 1.3977	-8.1825	11.0447	 2.8622	-8.2796	11.7497	 3.4701	35.3322	99.9777	
   662	-7.3601	 8.5170	 1.1570	-8.2327	10.8429	 2.6102	-8.3762	11.6262	 3.2499	35.3315	99.9810	
   663	-7.4018	 8.4492	 1.0475	-8.2356	10.7921	 2.5565	-8.3431	11.6137	 3.2707	35.4210	99.9820	
   664	-7.2273	 8.4680	 1.2407	-8.1321	10.9159	 2.7838	-8.2465	11.7373	 3.4908	35.0800	99.9801	
   665	-7.2100	 8.6354	 1.4256	-8.1477	11.0902	 2.9424	-8.3059	12.0050	 3.6991	34.5652	99.9829	
   666	-7.2429	 8.7157	 1.4729	-8.2202	11.1688	 2.9486	-8.3059	12.0050	 3.6991	34.7706	99.9817	
   667	-6.9930	 8.7368	 1.7439	-7.9747	11.1948	 3.2201	-8.0376	12.0698	 4.0322	34.8860	99.9832	
   668	-6.6484	 8.7003	 2.0520	-7.7137	11.1567	 3.4430	-7.9392	12.1185	 4.1793	34.2716	99.9847	
   669	-6.8315	 8.7906	 1.9592	-7.9526	11.3551	 3.4025	-7.9072	12.1921	 4.2849	34.7307	99.9820	
   670	-6.9452	 8.6511	 1.7060	-8.1448	11.1409	 2.9961	-8.1691	12.0336	 3.8644	34.3565	99.9850	
   671	-6.8653	 8.9845	 2.1193	-7.8484	11.4916	 3.6432	-7.9218	12.4544	 4.5326	34.5066	99.9848	
   672	-6.6622	 8.9776	 2.3155	-7.6724	11.4266	 3.7542	-7.8287	12.5108	 4.6821	34.2072	99.9886	
   673	-6.6119	 8.9363	 2.3245	-7.6724	11.4266	 3.7542	-7.7448	12.3880	 4.6431	34.5364	99.9857	
   674	-6.6119	 8.9363	 2.3245	-7.6724	11.4266	 3.7542	-7.7117	12.3755	 4.6639	34.6555	99.9857	
   675	-6.5763	 8.9005	 2.3243	-7.7508	11.5139	 3.7631	-7.8287	12.5108	 4.6821	33.8994	99.9849	
   676	-6.6414	 8.9472	 2.3059	-7.7227	11.4452	 3.7225	-7.8619	12.5233	 4.6613	33.9936	99.9882	
   677	-6.6206	 8.9168	 2.2964	-7.7257	11.5046	 3.7790	-7.8742	12.6135	 4.7393	33.6677	99.9874	
   678	-6.4088	 8.9294	 2.5207	-7.4898	11.4759	 3.9861	-7.5487	12.5826	 5.0339	34.2171	99.9887	
   679	-6.3142	 8.8718	 2.5576	-7.4018	11.4434	 4.0416	-7.5819	12.5951	 5.0132	33.8064	99.9884	
   680	-6.3871	 8.7853	 2.3982	-7.5090	11.3663	 3.8573	-7.6075	12.4277	 4.8203	34.1088	99.9868	
   681	-6.4601	 8.6988	 2.2388	-7.5659	11.2706	 3.7048	-7.5101	12.1286	 4.6185	35.0423	99.9826	
   682	-6.5095	 8.6263	 2.1169	-7.5851	11.1611	 3.5760	-7.6196	12.0841	 4.4645	34.8197	99.9842	
   683	-6.5885	 8.5648	 1.9763	-7.7137	11.1567	 3.4430	-7.6393	11.9203	 4.2810	35.1888	99.9794	
   684	-6.6207	 8.5313	 1.9107	-7.6604	11.0787	 3.4183	-7.6061	11.9078	 4.3017	35.3165	99.9817	
   685	-6.3967	 8.4939	 2.0973	-7.4623	11.0639	 3.6016	-7.3197	11.8859	 4.5662	35.6254	99.9821	
   686	-6.2405	 8.4589	 2.2185	-7.2988	11.0035	 3.7047	-7.2877	11.9595	 4.6718	35.1699	99.9853	
   687	-6.2284	 8.4091	 2.1808	-7.3084	10.9488	 3.6403	-7.2079	11.7583	 4.5505	35.7270	99.9821	
   688	-6.2457	 8.3701	 2.1245	-7.3054	10.8893	 3.5839	-7.1956	11.6681	 4.4725	35.9315	99.9815	
   689	-6.2249	 8.3398	 2.1149	-7.2551	10.7606	 3.5055	-7.1997	11.5897	 4.3901	36.0025	99.9844	
   690	-6.2597	 8.2619	 2.0023	-7.3527	10.7383	 3.3856	-7.1914	11.4211	 4.2297	36.3425	99.9802	
   691	-6.1833	 8.2790	 2.0958	-7.2300	10.7513	 3.5213	-7.0558	11.5357	 4.4799	36.3251	99.9832	
   692	-5.9299	 8.2308	 2.3011	-6.9660	10.6538	 3.6878	-6.8235	11.4485	 4.6250	36.5533	99.9843	
   693	-5.8587	 8.1592	 2.3006	-6.9127	10.5758	 3.6631	-6.7449	11.3334	 4.5885	36.7586	99.9836	
   694	-5.8613	 8.1148	 2.2536	-6.8846	10.5071	 3.6225	-6.7489	11.2550	 4.5061	36.8541	99.9834	
   695	-5.8353	 8.0447	 2.2095	-6.8594	10.3876	 3.5282	-6.6796	11.0691	 4.3895	37.2904	99.9829	
   696	-5.8405	 7.9559	 2.1155	-6.9252	10.3601	 3.4349	-6.7570	11.0982	 4.3412	36.8714	99.9835	
   697	-5.8553	 7.9613	 2.1062	-6.8150	10.2675	 3.4526	-6.6796	11.0691	 4.3895	37.1852	99.9863	
   698	-5.6079	 7.9380	 2.3302	-6.5199	10.2623	 3.7423	-6.3437	11.0229	 4.6793	37.6522	99.9849	
   699	-5.4456	 7.8781	 2.4326	-6.4193	10.2251	 3.8058	-6.2220	10.9773	 4.7553	37.6522	99.9848	
   700	-5.4066	 7.7730	 2.3665	-6.4001	10.1143	 3.7142	-6.1194	10.7789	 4.6595	38.1176	99.9832	
   701	-5.4101	 7.7138	 2.3038	-6.3720	10.0456	 3.6737	-6.1235	10.7006	 4.5771	38.1904	99.9827	
   702	-5.4066	 7.6444	 2.2379	-6.3527	 9.9348	 3.5821	-6.0926	10.5348	 4.4423	38.5262	99.9819	
   703	-5.4101	 7.5852	 2.1752	-6.3401	 9.8200	 3.4799	-6.0524	10.4398	 4.3875	38.7550	99.9838	
   704	-5.2678	 7.5705	 2.3028	-6.1767	 9.8698	 3.6931	-5.8510	10.5183	 4.6674	38.7959	99.9835	
   705	-4.9614	 7.5254	 2.5641	-5.8972	 9.8184	 3.9213	-5.5372	10.4804	 4.9433	39.0240	99.9844	
   706	-4.8520	 7.4623	 2.6104	-5.7995	 9.7305	 3.9310	-5.4638	10.3730	 4.9092	39.1392	99.9843	
   707	-4.8495	 7.3782	 2.5289	-5.7240	 9.5925	 3.8685	-5.3665	10.1824	 4.8159	39.6819	99.9837	
   708	-4.8104	 7.2731	 2.4627	-5.7270	 9.5417	 3.8148	-5.3466	10.0208	 4.6742	39.8480	99.9796	
   709	-4.8287	 7.2193	 2.3908	-5.6729	 9.3662	 3.6933	-5.2767	 9.8462	 4.5694	40.3792	99.9820	
   710	-4.7905	 7.0994	 2.3090	-5.6788	 9.2647	 3.5859	-5.2860	 9.7754	 4.4894	40.2323	99.9828	
   711	-4.6247	 7.0986	 2.4740	-5.4688	 9.3427	 3.8739	-4.9577	 9.8006	 4.8429	40.6969	99.9803	
   712	-4.3036	 7.0481	 2.7446	-5.1642	 9.2821	 4.1179	-4.6276	 9.7509	 5.1233	40.9512	99.9812	
   713	-4.1674	 6.9298	 2.7625	-5.0317	 9.1295	 4.0977	-4.5594	 9.6511	 5.0917	40.8871	99.9830	
   714	-4.0997	 6.7989	 2.6993	-4.9748	 9.0047	 4.0300	-4.5116	 9.4847	 4.9731	41.0369	99.9817	
   715	-4.0884	 6.7343	 2.6459	-4.9526	 8.9447	 3.9921	-4.4085	 9.2976	 4.8891	41.6047	99.9782	
   716	-4.0858	 6.6501	 2.5644	-4.9237	 8.7785	 3.8548	-4.3991	 9.1514	 4.7523	41.8195	99.9803	
   717	-4.0772	 6.5411	 2.4640	-4.8792	 8.6584	 3.7791	-4.3752	 9.0682	 4.6930	41.8638	99.9814	
   718	-3.8732	 6.5489	 2.6758	-4.6093	 8.6624	 4.0531	-4.0248	 9.0851	 5.0603	42.3348	99.9822	
   719	-3.5842	 6.4649	 2.8808	-4.3579	 8.5696	 4.2117	-3.7814	 8.9937	 5.2123	42.4668	99.9826	
   720	-3.4879	 6.3084	 2.8206	-4.3512	 8.4634	 4.1122	-3.7668	 8.8398	 5.0730	42.4055	99.9806	
   721	-3.5296	 6.2406	 2.7111	-4.3282	 8.3059	 3.9776	-3.6945	 8.6015	 4.9070	43.1134	99.9801	
   722	-3.5417	 6.1619	 2.6203	-4.3274	 8.2084	 3.8809	-3.6904	 8.4630	 4.7726	43.3368	99.9792	
   723	-3.5548	 6.0684	 2.5138	-4.2919	 8.0462	 3.7543	-3.7305	 8.3411	 4.6105	43.3846	99.9811	
   724	-3.5964	 6.0006	 2.4043	-4.2970	 7.9573	 3.6603	-3.7153	 8.1984	 4.4830	43.7222	99.9798	
   725	-3.4402	 5.9656	 2.5255	-4.1122	 7.9344	 3.8223	-3.4429	 8.2331	 4.7902	43.9562	99.9819	
   726	-3.1208	 5.8855	 2.7648	-3.8992	 7.9530	 4.0538	-3.1739	 8.2006	 5.0267	43.9590	99.9792	
   727	-3.0566	 5.8240	 2.7675	-3.8104	 7.8230	 4.0126	-3.0924	 8.0330	 4.9406	44.3355	99.9794	
   728	-3.0697	 5.7305	 2.6610	-3.7682	 7.6649	 3.8966	-3.0935	 7.9021	 4.8087	44.5029	99.9810	
   729	-3.0671	 5.6464	 2.5794	-3.7963	 7.6234	 3.8271	-2.9985	 7.6667	 4.6682	45.1521	99.9748	
   730	-3.0862	 5.5778	 2.4918	-3.7852	 7.4832	 3.6980	-3.0957	 7.6404	 4.5447	44.8859	99.9793	
   731	-3.1426	 5.5155	 2.3730	-3.8095	 7.3950	 3.5854	-3.0392	 7.4251	 4.3860	45.5433	99.9761	
   732	-3.0897	 5.5186	 2.4291	-3.7127	 7.4045	 3.6919	-2.9111	 7.5026	 4.5915	45.5705	99.9783	
   733	-2.8059	 5.4743	 2.6686	-3.4834	 7.3717	 3.8883	-2.6090	 7.4577	 4.8487	45.8135	99.9785	
   734	-2.6974	 5.3965	 2.6992	-3.3732	 7.2792	 3.9060	-2.5903	 7.3822	 4.7919	45.7027	99.9788	
   735	-2.7104	 5.3030	 2.5927	-3.3872	 7.1483	 3.7611	-2.5390	 7.1746	 4.6356	46.1898	99.9776	
   736	-2.7382	 5.2150	 2.4768	-3.4338	 7.1201	 3.6863	-2.6030	 7.1358	 4.5328	46.0152	99.9758	
   737	-2.7365	 5.1160	 2.3796	-3.4226	 6.9799	 3.5573	-2.6094	 7.0126	 4.4033	46.1165	99.9771	
   738	-2.8207	 5.0942	 2.2736	-3.4529	 6.9003	 3.4474	-2.6600	 6.9061	 4.2461	46.3724	99.9771	
   739	-2.8302	 5.0599	 2.2298	-3.4781	 6.9096	 3.4316	-2.6157	 6.8895	 4.2737	46.4720	99.9759	
   740	-2.5898	 5.0468	 2.4570	-3.3006	 6.9802	 3.6796	-2.3020	 6.9600	 4.6580	46.5888	99.9752	
   741	-2.4327	 5.0266	 2.5939	-3.0580	 6.8453	 3.7872	-2.2135	 6.9268	 4.7133	46.5635	99.9797	
   742	-2.4076	 4.9417	 2.5342	-3.0669	 6.8032	 3.7363	-2.1424	 6.7746	 4.6322	46.9075	99.9760	
   743	-2.4198	 4.8630	 2.4433	-3.1135	 6.7750	 3.6615	-2.1540	 6.6590	 4.5050	47.0416	99.9721	
   744	-2.4744	 4.8302	 2.3559	-3.1275	 6.6441	 3.5166	-2.2046	 6.5525	 4.3479	47.2251	99.9748	
   745	-2.5231	 4.7726	 2.2496	-3.1578	 6.5645	 3.4068	-2.3181	 6.5380	 4.2199	46.9671	99.9768	
   746	-2.5717	 4.7149	 2.1434	-3.2043	 6.5364	 3.3320	-2.3874	 6.5069	 4.1195	46.8564	99.9758	
   747	-2.5422	 4.7040	 2.1620	-3.1415	 6.5131	 3.3717	-2.2739	 6.5214	 4.2475	47.0168	99.9776	
   748	-2.3226	 4.7212	 2.3988	-2.9640	 6.5837	 3.6197	-1.9746	 6.5289	 4.5543	47.3496	99.9755	
   749	-2.2193	 4.6831	 2.4639	-2.8095	 6.4813	 3.6718	-1.8727	 6.4279	 4.5552	47.5891	99.9764	
   750	-2.2375	 4.6294	 2.3919	-2.8397	 6.4017	 3.5620	-1.9088	 6.3844	 4.4755	47.5429	99.9782	
   751	-2.2428	 4.5405	 2.2979	-2.8508	 6.3216	 3.4708	-1.9781	 6.3533	 4.3752	47.2961	99.9792	
   752	-2.2619	 4.4720	 2.2102	-2.8493	 6.2368	 3.3875	-2.0339	 6.2544	 4.2205	47.3158	99.9785	
   753	-2.3461	 4.4502	 2.1042	-2.9424	 6.1804	 3.2380	-2.1364	 6.2358	 4.0994	47.2275	99.9805	
   754	-2.4086	 4.4127	 2.0043	-2.9661	 6.1049	 3.1388	-2.2004	 6.1970	 3.9966	47.2128	99.9819	
   755	-2.3851	 4.4268	 2.0417	-2.8692	 6.1145	 3.2453	-2.0590	 6.2067	 4.1477	47.5092	99.9820	
   756	-2.1595	 4.4191	 2.2597	-2.6696	 6.1250	 3.4555	-1.7463	 6.1464	 4.4001	47.9845	99.9804	
   757	-2.0857	 4.3918	 2.3062	-2.6696	 6.1250	 3.4555	-1.7795	 6.1589	 4.3794	47.6923	99.9803	
   758	-2.1048	 4.3233	 2.2186	-2.6555	 6.0356	 3.3801	-1.8598	 6.1319	 4.2721	47.4725	99.9819	
   759	-2.1447	 4.2851	 2.1404	-2.6480	 5.9421	 3.2940	-1.8796	 6.0766	 4.1970	47.5632	99.9837	
   760	-2.1777	 4.2368	 2.0591	-2.6843	 5.8712	 3.1870	-1.8964	 5.9688	 4.0723	47.7626	99.9832	
   761	-2.2472	 4.2095	 1.9624	-2.7205	 5.8003	 3.0799	-2.0100	 5.9543	 3.9443	47.6012	99.9850	
   762	-2.2862	 4.1861	 1.9000	-2.7729	 5.7808	 3.0079	-2.0874	 5.9834	 3.8960	47.3677	99.9861	
   763	-2.2177	 4.1986	 1.9810	-2.6739	 5.8285	 3.1546	-1.8522	 5.9521	 4.0999	47.9057	99.9840	
   764	-2.0059	 4.2111	 2.2053	-2.5371	 5.8622	 3.3251	-1.6170	 5.9209	 4.3039	48.1884	99.9826	
   765	-1.9564	 4.1551	 2.1987	-2.4328	 5.7784	 3.3456	-1.6170	 5.9209	 4.3039	47.9928	99.9847	
   766	-1.9816	 4.1114	 2.1299	-2.4439	 5.6982	 3.2543	-1.6973	 5.8940	 4.1967	47.8325	99.9864	
   767	-2.0207	 4.0880	 2.0675	-2.4586	 5.6648	 3.2061	-1.7666	 5.8629	 4.0963	47.7721	99.9862	
   768	-2.0458	 4.0444	 1.9987	-2.5200	 5.6032	 3.0832	-1.7392	 5.7385	 3.9993	48.1138	99.9855	
   769	-2.1014	 3.9969	 1.8956	-2.5311	 5.5230	 2.9920	-1.8579	 5.7317	 3.8738	47.8571	99.9872	
   770	-2.1405	 3.9735	 1.8331	-2.5458	 5.4896	 2.9437	-1.8911	 5.7442	 3.8530	47.7706	99.9883	
   771	-1.9669	 3.9775	 2.0107	-2.3817	 5.5521	 3.1704	-1.5482	 5.7239	 4.1757	48.3295	99.9862	
   772	-1.7863	 3.9713	 2.1850	-2.2345	 5.5431	 3.3086	-1.3905	 5.7217	 4.3313	48.3750	99.9865	
   773	-1.7516	 3.9207	 2.1691	-2.2183	 5.4918	 3.2735	-1.3741	 5.6014	 4.2273	48.5612	99.9850	
   774	-1.7560	 3.8467	 2.0908	-2.1665	 5.3884	 3.2219	-1.3601	 5.5448	 4.1847	48.6022	99.9863	
   775	-1.8020	 3.8334	 2.0315	-2.1834	 5.3169	 3.1334	-1.4404	 5.5179	 4.0774	48.5385	99.9880	
   776	-1.8350	 3.7851	 1.9502	-2.2196	 5.2460	 3.0264	-1.5429	 5.4993	 3.9564	48.3102	99.9893	
   777	-1.8602	 3.7415	 1.8814	-2.2596	 5.2218	 2.9623	-1.6122	 5.4682	 3.8560	48.1864	99.9887	
   778	-1.9209	 3.7337	 1.8128	-2.2869	 5.1931	 2.9062	-1.6564	 5.4848	 3.8284	48.1318	99.9899	
   779	-1.7630	 3.7283	 1.9654	-2.1065	 5.2042	 3.0977	-1.3519	 5.4847	 4.1327	48.5567	99.9898	
   780	-1.5304	 3.7104	 2.1802	-1.8943	 5.2101	 3.3158	-1.1167	 5.4534	 4.3367	48.7427	99.9888	
   781	-1.4722	 3.6738	 2.2017	-1.8588	 5.1581	 3.2993	-1.0643	 5.3767	 4.3124	48.8882	99.9886	
   782	-1.4826	 3.6247	 2.1422	-1.8425	 5.1067	 3.2642	-1.0893	 5.3290	 4.2397	48.8748	99.9886	
   783	-1.4922	 3.5905	 2.0984	-1.8343	 5.0259	 3.1916	-1.1697	 5.3021	 4.1324	48.7070	99.9900	
   784	-1.5035	 3.5266	 2.0232	-1.8705	 4.9551	 3.0845	-1.2442	 5.2787	 4.0345	48.4883	99.9910	
   785	-1.5729	 3.4993	 1.9265	-1.8875	 4.8836	 2.9961	-1.3134	 5.2476	 3.9342	48.4746	99.9921	
   786	-1.6129	 3.4611	 1.8484	-1.8919	 4.8074	 2.9155	-1.3577	 5.2642	 3.9065	48.3241	99.9939	
   787	-1.5139	 3.4775	 1.9637	-1.7492	 4.8325	 3.0833	-1.0782	 5.2164	 4.1382	48.9562	99.9929	
   788	-1.2518	 3.4488	 2.1971	-1.5311	 4.8297	 3.2986	-0.7935	 5.1609	 4.3674	49.2456	99.9919	
   789	-1.1433	 3.3709	 2.2277	-1.5059	 4.8204	 3.3145	-0.7463	 5.0918	 4.3455	49.1920	99.9901	
   790	-1.1902	 3.3429	 2.1528	-1.4852	 4.7350	 3.2498	-0.7271	 5.0275	 4.3004	49.4275	99.9911	
   791	-1.2006	 3.2938	 2.0932	-1.4667	 4.6115	 3.1448	-0.8569	 5.0249	 4.1679	49.0570	99.9937	
   792	-1.2519	 3.1917	 1.9400	-1.4733	 4.4973	 3.0240	-0.9233	 4.9413	 4.0181	49.0074	99.9942	
   793	-1.2918	 3.1535	 1.8619	-1.5405	 4.4444	 2.9038	-1.1142	 4.9559	 3.8417	48.5202	99.9951	
   794	-1.1399	 3.3016	 2.1618	-1.4415	 4.6022	 3.1607	-0.9262	 4.9938	 4.0676	48.8857	99.9935	
   795	-0.9159	 3.3928	 2.4770	-1.2922	 4.7415	 3.4493	-0.7714	 5.0441	 4.2727	48.9042	99.9915	
   796	-0.7198	 3.3960	 2.6763	-1.2937	 4.8263	 3.5326	-0.6165	 5.0944	 4.4779	48.7987	99.9902	
   797	-0.7580	 3.3874	 2.6295	-1.1510	 4.8514	 3.7004	-0.2293	 4.9491	 4.7197	50.1129	99.9868	
   798	-0.7441	 3.3672	 2.6232	-1.0513	 5.0219	 3.9707	 0.3185	 4.9660	 5.2845	51.2304	99.9808	
   799	-0.2901	 3.5247	 3.2346	-0.5952	 5.3590	 4.7639	 1.0636	 5.0915	 6.1552	52.0949	99.9723	
   800	 0.0458	 4.1113	 4.1573	-0.2456	 5.8521	 5.6065	 1.5526	 5.3874	 6.9400	52.9847	99.9686	
   801	 0.4703	 4.5368	 5.0072	-0.0587	 6.1979	 6.1392	 1.6340	 5.5452	 7.1792	52.9085	99.9639	
   802	 0.0199	 4.5670	 4.5870	-0.5408	 6.1879	 5.6472	 1.0547	 5.5743	 6.6291	52.3730	99.9658	
   803	-0.5503	 4.4827	 3.9324	-1.0214	 6.0932	 5.0718	 0.6030	 5.5613	 6.1642	52.1886	99.9686	
   804	-0.7951	 4.4218	 3.6268	-1.2942	 6.1486	 4.8544	 0.4900	 5.6665	 6.1565	51.9509	99.9679	
   805	-0.6970	 4.4234	 3.7265	-1.3408	 6.1204	 4.7796	 0.4149	 5.6319	 6.0468	51.7193	99.9680	
   806	-0.5842	 4.4196	 3.8355	-1.3800	 5.9988	 4.6188	 0.3032	 5.4341	 5.7373	51.7934	99.9677	
   807	-0.7388	 4.0986	 3.3599	-1.4522	 5.4163	 3.9641	-0.5223	 5.2817	 4.7594	49.9520	99.9839	
   808	-1.2353	 3.7300	 2.4948	-1.7115	 4.8186	 3.1071	-1.0892	 5.0036	 3.9144	49.4942	99.9926	
   809	-1.5634	 3.4051	 1.8418	-1.8614	 4.3360	 2.4746	-1.3901	 4.7456	 3.3555	49.3944	99.9965	
   810	-1.8959	 3.1346	 1.2389	-2.1754	 3.7909	 1.6155	-1.8475	 4.0782	 2.2308	50.1314	99.9974	
   811	-2.9626	 2.5532	-0.4093	-3.1378	 2.8047	-0.3330	-2.9346	 3.1165	 0.1819	50.8675	99.9987	
   812	-3.5684	 2.7618	-0.8065	-3.4574	 3.2727	-0.1847	-2.9938	 4.0462	 1.0525	49.7148	99.9958	
   813	-2.0373	 3.5498	 1.5126	-2.0035	 4.6542	 2.6507	-0.9262	 4.9938	 4.0676	50.9090	99.9937	
   814	-0.6677	 3.6414	 2.9738	-0.9884	 4.9987	 4.0103	 0.6754	 4.8891	 5.5645	52.6190	99.9820	
   815	-0.3300	 3.7435	 3.4136	-0.8791	 5.3343	 4.4552	 0.8727	 5.1061	 5.9788	52.1376	99.9759	
   816	-0.5947	 3.7279	 3.1332	-1.1505	 5.3048	 4.1544	 0.5181	 5.1194	 5.6375	51.7338	99.9773	
   817	-0.2545	 3.6174	 3.3629	-0.4443	 5.3033	 4.8590	 2.0116	 4.5587	 6.5703	55.5703	99.9609	
   818	 0.9692	 3.2789	 4.2482	 0.2304	 4.4255	 4.6560	 1.8283	 4.1766	 6.0050	53.6015	99.9787	
   819	 0.4562	 3.1432	 3.5995	-0.1252	 4.2717	 4.1465	 1.4552	 4.0484	 5.5036	53.6932	99.9809	
   820	 0.0830	 3.0769	 3.1599	-0.3647	 4.1268	 3.7621	 0.9161	 4.0910	 5.0071	52.8852	99.9870	
   821	-0.1097	 3.1329	 3.0233	-0.4298	 4.1120	 3.6822	 0.7833	 4.1408	 4.9242	52.8920	99.9893	
   822	-0.3475	 3.0619	 2.7145	-0.5791	 3.9727	 3.3936	 0.3106	 4.1585	 4.4691	52.0536	99.9936	
   823	-0.8544	 2.9013	 2.0470	-1.0256	 3.6904	 2.6648	-0.3821	 4.0647	 3.6825	51.2764	99.9963	
   824	-1.2597	 2.8015	 1.5418	-1.2518	 3.5536	 2.3018	-0.6109	 4.0022	 3.3912	51.4115	99.9973	
   825	-1.5462	 2.6728	 1.1268	-1.4728	 3.2852	 1.8124	-0.8938	 3.7659	 2.8721	51.6257	99.9978	
   826	-1.9455	 2.4196	 0.4742	-1.9400	 2.9781	 1.0381	-1.2790	 3.4025	 2.1235	51.8888	99.9966	
   827	-2.4775	 2.3438	-0.1336	-2.3547	 2.8008	 0.4460	-1.8734	 3.3574	 1.4840	51.4089	99.9978	
   828	-2.7864	 2.7301	-0.0562	-2.5450	 3.5062	 0.9611	-1.7013	 4.0690	 2.3677	51.2162	99.9967	
   829	-1.2432	 3.3397	 2.0967	-1.1404	 4.2577	 3.1173	 0.3268	 4.3636	 4.6904	53.5708	99.9904	
   830	-0.2425	 3.1819	 2.9396	-0.3034	 4.2986	 3.9952	 1.5961	 4.1554	 5.7514	54.8913	99.9827	
   831	 0.3815	 3.0271	 3.4087	 0.2800	 4.2841	 4.5641	 2.2213	 4.1432	 6.3646	54.9381	99.9816	
   832	 0.0873	 3.1509	 3.2383	 0.0055	 4.7549	 4.7604	 2.4546	 4.5123	 6.9669	55.1493	99.9727	
   833	 0.9882	 2.9619	 3.9502	 0.8583	 4.0705	 4.9289	 2.7163	 3.6834	 6.3998	56.0986	99.9809	
   834	 1.5132	 2.6622	 4.1755	 1.6104	 3.7539	 5.3644	 3.3329	 3.3949	 6.7278	56.7092	99.9836	
   835	 1.1730	 2.6441	 3.8172	 1.1084	 3.6217	 4.7302	 2.7164	 3.4665	 6.1829	55.7495	99.9869	
   836	 0.3710	 2.3354	 2.7065	 0.2672	 3.0640	 3.3311	 1.4386	 3.1814	 4.6200	54.4689	99.9920	
   837	-0.5595	 2.1497	 1.5904	-0.4810	 2.6727	 2.1917	 0.2435	 2.9679	 3.2114	53.5867	99.9971	
   838	-1.2625	 2.1144	 0.8520	-1.0983	 2.4340	 1.3357	-0.4841	 2.5276	 2.0435	54.2787	99.9980	
   839	-2.2390	 1.6584	-0.5804	-2.2167	 1.5249	-0.6918	-1.8932	 1.6639	-0.2293	54.2115	99.9982	
   840	-3.1781	 1.5818	-1.5962	-2.7513	 1.6057	-1.1457	-2.0697	 1.9585	-0.1112	54.4069	99.9966	
   841	-0.9231	 2.2462	 1.3232	-0.6408	 2.9067	 2.2659	 0.5659	 3.3149	 3.8808	54.1412	99.9933	
   842	 0.3693	 2.4343	 2.8037	 0.3595	 3.3280	 3.6875	 2.1308	 3.3724	 5.5032	55.6120	99.9848	
   843	 0.7416	 2.2288	 2.9705	 0.7196	 3.2274	 3.9470	 2.4207	 3.4177	 5.8384	55.1019	99.9856	
   844	 0.3172	 2.3175	 2.6347	 0.3195	 3.4140	 3.7336	 2.0806	 3.6025	 5.6831	54.7506	99.9854	
   845	 1.0531	 2.0155	 3.0687	 1.2603	 2.8074	 4.0677	 3.0864	 2.6598	 5.7462	57.5564	99.9873	
   846	 1.9297	 1.9262	 3.8560	 2.0211	 2.9736	 4.9948	 4.2408	 2.6317	 6.8725	58.4225	99.9800	
   847	 1.6520	 1.9456	 3.5976	 1.7425	 2.5969	 4.3395	 3.3642	 2.3615	 5.7256	57.8766	99.9887	
   848	 0.6798	 1.6921	 2.3720	 0.7622	 2.0775	 2.8398	 1.8890	 2.0762	 3.9653	56.6070	99.9938	
   849	-0.1039	 1.5656	 1.4618	 0.0887	 1.8661	 1.9548	 0.9279	 1.9176	 2.8455	55.9927	99.9970	
   850	-0.9363	 1.5101	 0.5739	-0.6994	 1.5609	 0.8615	-0.0733	 1.6371	 1.5638	55.8489	99.9983	
   851	-2.0915	 1.4754	-0.6159	-1.6563	 1.6679	 0.0117	-0.8804	 2.0600	 1.1796	54.7248	99.9967	
   852	 0.2876	 2.1998	 2.4876	 0.7198	 2.8968	 3.6166	 2.6415	 2.7812	 5.4227	57.8642	99.9882	
   853	 1.4063	 1.9985	 3.4049	 1.5117	 2.8247	 4.3365	 3.3506	 2.8631	 6.2137	56.9769	99.9852	
   854	 1.2571	 2.2804	 3.5376	 1.5123	 3.2782	 4.7905	 3.7843	 2.9629	 6.7472	58.3514	99.9813	
   855	 2.2212	 1.5010	 3.7223	 2.2922	 1.9987	 4.2908	 4.0268	 1.8730	 5.8998	58.7533	99.9858	
   856	 2.0520	 1.4425	 3.4946	 2.3003	 2.0281	 4.3283	 4.0717	 1.7591	 5.8308	59.2792	99.9885	
   857	 1.9634	 1.4752	 3.4387	 2.0407	 2.0915	 4.1322	 3.8016	 1.7692	 5.5708	58.9214	99.9868	
   858	 1.7274	 1.5623	 3.2898	 1.8477	 2.1952	 4.0429	 3.6158	 1.8846	 5.5004	58.7700	99.9871	
   859	 1.5912	 1.6807	 3.2720	 1.7471	 2.3425	 4.0896	 3.5948	 2.1322	 5.7270	58.5001	99.9863	
   860	 1.8637	 1.8296	 3.6934	 2.0900	 2.6112	 4.7012	 3.9906	 2.3718	 6.3623	58.5325	99.9866	
   861	 1.9722	 1.8802	 3.8525	 2.1551	 2.6261	 4.7812	 4.0459	 2.3510	 6.3969	58.6415	99.9862	
   862	 1.8316	 1.7961	 3.6277	 2.0021	 2.5335	 4.5356	 3.8643	 2.2194	 6.0837	58.6760	99.9863	
   863	 1.6181	 1.7539	 3.3721	 1.8409	 2.4115	 4.2525	 3.7415	 2.0258	 5.7673	59.1891	99.9862	
   864	 1.5912	 1.6807	 3.2720	 1.8077	 2.3914	 4.1991	 3.7520	 2.1189	 5.8708	58.8439	99.9858	
   865	 2.2482	 1.8313	 4.0795	 2.5470	 2.6304	 5.1774	 4.6508	 2.2723	 6.9231	59.5188	99.9845	
   866	 3.1855	 1.8783	 5.0639	 3.2664	 2.7471	 6.0135	 5.4577	 2.1749	 7.6326	60.0733	99.9798	
   867	 3.1499	 1.5285	 4.6785	 3.1986	 2.2407	 5.4393	 5.1336	 1.7943	 6.9278	59.8199	99.9840	
   868	 2.3010	 1.3203	 3.6214	 2.4843	 2.2129	 4.6972	 4.4191	 2.2623	 6.6813	57.9849	99.9851	
   869	 2.1336	 1.5485	 3.6821	 2.5175	 2.4534	 4.9709	 4.6641	 2.4214	 7.0855	58.7365	99.9848	
   870	 2.1543	 1.2610	 3.4155	 2.5494	 2.1175	 4.6669	 4.5658	 2.1558	 6.7216	58.6438	99.9866	
   871	 1.8749	 1.1223	 2.9972	 2.3299	 1.9847	 4.3146	 4.2817	 2.1140	 6.3958	58.3322	99.9878	
   872	 1.6831	 1.1931	 2.8763	 2.1287	 2.0590	 4.1877	 4.2055	 1.9486	 6.1541	59.0459	99.9867	
   873	 2.3912	 0.8031	 3.1944	 3.1353	 1.4799	 4.6152	 5.3771	 1.2691	 6.6462	61.2699	99.9878	
   874	 3.1645	 0.7519	 3.9165	 3.5494	 1.5344	 5.0838	 5.8649	 1.3256	 7.1906	60.8424	99.9824	
   875	 3.1445	 0.6686	 3.8132	 3.4999	 1.3453	 4.8452	 5.5873	 1.1901	 6.7774	60.5504	99.9852	
   876	 2.7279	 0.5049	 3.2329	 3.2442	 1.0314	 4.2756	 5.2125	 0.9199	 6.1324	60.8309	99.9883	
   877	 2.3356	 0.3700	 2.7056	 2.8265	 0.6931	 3.5196	 4.6956	 0.6288	 5.3244	60.9313	99.9874	
   878	 1.7332	 0.2521	 1.9855	 2.1996	 0.3997	 2.5993	 3.8882	 0.3897	 4.2779	60.6710	99.9875	
   879	 1.2750	 0.2777	 1.5528	 1.8041	 0.3319	 2.1359	 3.4376	 0.3990	 3.8366	60.4941	99.9868	
   880	 1.5310	 0.4024	 1.9335	 1.9171	 0.6206	 2.5377	 3.7437	 0.6494	 4.3931	60.2803	99.9831	
   881	 2.0076	 0.6877	 2.6953	 2.4596	 1.1202	 3.5798	 4.5616	 0.9816	 5.5432	60.8364	99.9840	
   882	 2.2835	 0.5102	 2.7938	 2.8161	 0.9562	 3.7723	 5.0000	 0.9540	 5.9540	60.9746	99.9816	
   883	 2.8156	 0.4574	 3.2730	 3.3647	 1.1166	 4.4812	 5.6507	 1.2177	 6.8684	60.6196	99.9809	
   884	 3.0404	 0.5634	 3.6038	 3.4748	 1.3546	 4.8293	 5.7328	 1.2782	 7.0110	60.5134	99.9833	
   885	 3.1679	 0.1685	 3.3365	 3.9638	 0.5972	 4.5610	 6.1692	 0.3381	 6.5073	62.8672	99.9886	
   886	 3.6495	-0.2286	 3.4210	 4.5401	-0.0952	 4.4449	 6.3773	-0.5448	 5.8325	64.2097	99.9936	
   887	 3.1139	-0.4921	 2.6220	 3.5273	-0.5118	 3.0154	 5.3330	-0.8947	 4.4383	63.4730	99.9880	
   888	 2.1644	-0.6178	 1.5467	 2.7909	-0.9204	 1.8705	 4.1658	-1.1130	 3.0529	62.9797	99.9931	
   889	 1.7435	-0.7270	 1.0166	 2.4656	-0.9947	 1.4709	 3.8212	-1.1263	 2.6949	62.7237	99.9941	
   890	 1.4935	-0.7481	 0.7455	 2.2364	-0.9619	 1.2745	 3.4195	-1.0439	 2.3755	62.0298	99.9966	
   891	 1.2158	-0.7287	 0.4871	 1.8341	-0.9236	 0.9106	 2.7872	-0.8408	 1.9463	60.6562	99.9965	
   892	 1.3825	-0.0720	 1.3106	 2.0237	 0.1341	 2.1578	 3.8761	 0.1545	 4.0306	61.1186	99.9871	
   893	 2.6194	 0.1971	 2.8166	 3.1608	 0.4789	 3.6398	 5.2511	 0.2490	 5.5001	62.2562	99.9855	
   894	 3.2789	 0.0065	 3.2855	 3.7731	 0.4084	 4.1815	 5.9456	 0.3764	 6.3220	61.8704	99.9812	
   895	 3.4273	-0.0332	 3.3943	 3.9719	 0.6266	 4.5985	 6.1307	 0.5752	 6.7059	61.3822	99.9858	
   896	 3.5037	-0.1445	 3.3593	 4.3329	 0.4285	 4.7614	 6.6670	 0.1513	 6.8183	63.1637	99.9877	
   897	 4.8185	-0.5998	 4.2188	 5.3727	-0.0202	 5.3524	 7.9911	-0.5228	 7.4683	64.6477	99.9802	
   898	 5.4390	-0.6853	 4.7539	 5.6094	-0.3669	 5.2425	 7.5004	-0.6353	 6.8650	63.0915	99.9849	
   899	 4.4783	-0.7464	 3.7320	 4.9802	-0.4780	 4.5022	 7.0190	-0.7856	 6.2333	63.8148	99.9870	
   900	 3.9037	-0.9047	 2.9991	 4.5382	-0.7944	 3.7438	 6.3420	-1.0109	 5.3310	63.6698	99.9907	
   901	 3.4436	-1.0372	 2.4065	 4.1442	-1.0572	 3.0870	 5.9852	-1.3679	 4.6173	64.3777	99.9908	
   902	 2.8309	-1.2041	 1.6268	 3.4936	-1.4262	 2.0674	 5.1342	-1.6877	 3.4465	64.2249	99.9909	
   903	 1.8779	-1.2605	 0.6174	 2.5369	-1.6497	 0.8872	 3.3136	-1.3467	 1.9670	61.0080	99.9926	
   904	 1.7053	-0.6071	 1.0983	 2.5083	-0.4791	 2.0292	 4.3374	-0.5210	 3.8164	62.2800	99.9902	
   905	 3.0541	-0.4851	 2.5691	 3.5686	-0.3521	 3.2165	 5.6129	-0.4975	 5.1154	62.9573	99.9827	
   906	 3.6503	-0.4709	 3.1795	 4.1925	 0.0008	 4.1933	 6.3783	-0.0885	 6.2898	62.4295	99.9838	
   907	 3.7597	-0.4054	 3.3544	 4.3226	 0.1407	 4.4633	 6.3451	 0.1408	 6.4859	61.7289	99.9872	
   908	 4.0044	-0.3446	 3.6600	 4.6272	 0.1902	 4.8174	 6.7876	-0.0253	 6.7623	62.7767	99.9875	
   909	 4.8575	-0.7049	 4.1527	 5.5244	-0.3938	 5.1306	 7.7263	-0.8457	 6.8806	64.8142	99.9877	
   910	 5.9719	-0.8518	 5.1202	 6.0990	-0.4504	 5.6485	 8.1839	-0.9376	 7.2463	64.0925	99.9831	
   911	 5.2802	-0.9517	 4.3285	 5.5748	-0.6328	 4.9420	 7.6199	-1.0512	 6.5687	64.1194	99.9852	
   912	 4.8167	-1.0150	 3.8018	 5.2133	-0.7780	 4.4353	 7.0913	-1.1324	 5.9588	63.8904	99.9885	
   913	 4.1414	-1.2193	 2.9222	 4.7165	-1.1519	 3.5646	 6.4702	-1.4758	 4.9945	64.2201	99.9914	
   914	 3.5121	-1.4103	 2.1019	 4.1473	-1.4472	 2.7001	 5.8288	-1.7772	 4.0516	64.3636	99.9925	
   915	 2.9332	-1.5141	 1.4192	 3.6652	-1.6775	 1.9878	 5.3229	-1.9640	 3.3589	64.5472	99.9925	
   916	 2.6216	-1.5579	 1.0639	 3.5508	-2.1019	 1.4489	 4.7821	-2.0635	 2.7186	64.1782	99.9916	
   917	 2.1147	-1.7185	 0.3963	 3.0622	-2.4464	 0.6158	 3.6247	-1.9829	 1.6419	62.1099	99.9883	
   918	 1.8293	-1.0611	 0.7683	 2.7156	-1.0028	 1.7128	 4.4347	-0.7116	 3.7231	61.8555	99.9859	
   919	 3.1721	-0.6572	 2.5150	 3.8156	-0.4109	 3.4047	 5.8307	-0.5393	 5.2913	62.9432	99.9870	
   920	 3.4802	-0.6727	 2.8076	 4.1202	-0.2512	 3.8690	 6.2253	-0.3222	 5.9031	62.6045	99.9863	
   921	 3.5461	-0.5761	 2.9702	 4.1593	-0.0194	 4.1399	 6.3341	-0.0719	 6.2622	62.2267	99.9857	
   922	 3.5349	-0.5114	 3.0236	 4.2339	 0.0503	 4.2842	 6.2974	-0.0182	 6.2792	62.1631	99.9891	
   923	 3.8386	-0.7294	 3.1093	 4.5653	-0.3248	 4.2405	 6.6242	-0.6774	 5.9468	63.7012	99.9901	
   924	 4.9642	-0.9409	 4.0234	 5.4823	-0.5662	 4.9161	 7.6390	-0.8986	 6.7405	64.1687	99.9861	
   925	 4.9764	-0.9908	 3.9857	 5.3951	-0.6312	 4.7639	 7.4056	-1.0507	 6.3550	64.0594	99.9876	
   926	 4.8584	-0.9472	 3.9113	 5.3574	-0.6173	 4.7401	 7.3689	-0.9969	 6.3720	64.0938	99.9883	
   927	 5.0328	-0.7999	 4.2330	 5.5459	-0.4666	 5.0793	 7.5651	-0.9108	 6.6543	64.2813	99.9886	
   928	 5.1865	-0.7508	 4.4358	 5.6175	-0.3375	 5.2801	 7.5971	-0.8372	 6.7599	64.0317	99.9882	
   929	 5.2273	-0.6978	 4.5296	 5.6257	-0.3081	 5.3176	 7.5418	-0.8164	 6.7254	63.9333	99.9886	
   930	 5.0033	-0.7890	 4.2144	 5.3617	-0.4310	 4.9308	 7.2955	-0.8895	 6.4061	63.8044	99.9881	
   931	 4.9443	-0.7672	 4.1772	 5.3536	-0.4604	 4.8932	 7.3136	-0.9762	 6.3374	64.2071	99.9882	
   932	 4.8211	-0.8125	 4.0087	 5.2272	-0.5368	 4.6904	 7.1471	-1.0335	 6.1136	64.1403	99.9887	
   933	 4.8367	-0.8031	 4.0337	 5.2353	-0.5074	 4.7279	 7.0918	-1.0128	 6.0790	63.9813	99.9894	
   934	 4.9113	-0.8155	 4.0959	 5.2982	-0.5306	 4.7675	 7.0918	-1.0128	 6.0790	63.8536	99.9900	
   935	 5.0528	-0.7166	 4.3363	 5.3995	-0.4449	 4.9546	 7.1477	-0.9139	 6.2338	63.6954	99.9902	
   936	 4.9243	-0.8506	 4.0738	 5.1637	-0.6365	 4.5271	 6.8992	-1.1402	 5.7589	63.7735	99.9893	
   937	 4.4391	-1.0268	 3.4124	 4.8968	-0.8102	 4.0866	 6.5964	-1.1065	 5.4899	63.4093	99.9915	
   938	 4.3237	-0.9388	 3.3850	 4.8361	-0.6387	 4.1974	 6.6417	-0.8838	 5.7580	63.2101	99.9907	
   939	 4.3871	-0.8866	 3.5006	 4.8575	-0.4910	 4.3664	 6.8268	-0.7934	 6.0334	63.3168	99.9884	
   940	 4.3454	-0.8259	 3.5197	 4.8500	-0.3976	 4.4525	 6.7796	-0.6159	 6.1637	62.9220	99.9892	
   941	 4.2847	-0.7051	 3.5797	 4.7790	-0.1834	 4.5956	 6.8122	-0.4226	 6.3895	62.7819	99.9879	
   942	 4.3524	-0.5789	 3.7736	 4.8085	-0.0063	 4.8021	 6.8208	-0.2547	 6.5662	62.5068	99.9880	
   943	 4.4037	-0.4769	 3.9269	 4.8365	 0.1453	 4.9819	 6.8295	-0.0867	 6.7428	62.2041	99.9881	
   944	 4.4618	-0.3849	 4.0770	 4.8564	 0.2676	 5.1240	 6.9279	-0.0380	 6.8899	62.3615	99.9867	
   945	 4.5243	-0.3475	 4.1769	 4.9000	 0.3552	 5.2552	 6.9733	 0.0762	 7.0495	62.1234	99.9865	
   946	 4.6363	-0.2376	 4.3988	 5.0138	 0.5465	 5.5603	 7.2282	 0.2088	 7.4370	62.2981	99.9846	
   947	 4.8568	-0.2056	 4.6512	 5.1787	 0.6217	 5.8004	 7.4564	 0.2602	 7.7166	62.3372	99.9830	
   948	 4.8898	-0.1573	 4.7325	 5.2326	 0.6666	 5.8992	 7.4412	 0.4029	 7.8441	61.9780	99.9844	
   949	 4.8898	-0.1573	 4.7325	 5.2326	 0.6666	 5.8992	 7.3859	 0.4236	 7.8095	61.8220	99.9852	
   950	 4.7995	-0.1542	 4.6453	 5.1572	 0.6944	 5.8517	 7.3859	 0.4236	 7.8095	61.9507	99.9843	
   951	 4.8568	-0.0771	 4.7798	 5.2385	 0.7681	 6.0066	 7.4982	 0.5241	 8.0224	61.9622	99.9841	
   952	 4.9184	-0.0545	 4.8640	 5.2488	 0.8356	 6.0844	 7.5116	 0.5648	 8.0764	61.8398	99.9835	
   953	 4.9905	 0.0172	 5.0078	 5.3153	 0.9860	 6.3014	 7.6903	 0.6404	 8.3307	62.0064	99.9817	
   954	 5.2526	 0.1170	 5.3697	 5.6022	 1.0616	 6.6638	 7.9627	 0.7836	 8.7463	61.9607	99.9824	
   955	 5.3889	 0.1271	 5.5161	 5.7235	 1.0492	 6.7726	 8.1088	 0.7744	 8.8832	62.0839	99.9818	
   956	 5.3437	 0.1287	 5.4725	 5.7235	 1.0492	 6.7726	 8.0617	 0.8434	 8.9051	61.8788	99.9831	
   957	 5.3429	 0.1139	 5.4568	 5.7235	 1.0492	 6.7726	 8.1088	 0.7744	 8.8832	62.1182	99.9824	
   958	 5.2830	 0.1209	 5.4040	 5.6858	 1.0631	 6.7489	 8.0617	 0.8434	 8.9051	61.9441	99.9828	
   959	 5.2986	 0.1302	 5.4289	 5.6147	 1.1671	 6.7818	 8.0145	 0.9125	 8.9270	61.6741	99.9814	
   960	 5.2700	 0.1559	 5.4260	 5.6147	 1.1671	 6.7818	 7.9481	 0.9374	 8.8855	61.5796	99.9828	
   961	 5.3698	 0.1871	 5.5570	 5.7404	 1.2309	 6.9713	 8.1990	 0.9917	 9.1906	61.8118	99.9813	
   962	 5.5442	 0.2059	 5.7502	 5.8765	 1.2519	 7.1284	 8.3701	 1.0301	 9.4003	61.8186	99.9802	
   963	 5.5590	 0.2004	 5.7595	 5.9142	 1.2380	 7.1522	 8.3509	 0.9860	 9.3369	61.8711	99.9815	
   964	 5.5139	 0.2020	 5.7159	 5.9120	 1.1999	 7.1119	 8.3981	 0.9169	 9.3150	62.2009	99.9812	
   965	 5.4982	 0.1926	 5.6909	 5.8240	 1.2324	 7.0564	 8.2654	 0.9667	 9.2321	61.8357	99.9810	
   966	 5.5034	 0.1529	 5.6564	 5.8514	 1.1510	 7.0024	 8.2462	 0.9226	 9.1687	61.8318	99.9820	
   967	 5.4158	 0.2004	 5.6163	 5.7884	 1.2844	 7.0729	 8.4173	 0.9611	 9.3784	62.2435	99.9785	
   968	 5.7899	 0.2815	 6.0715	 6.2809	 1.2516	 7.5325	 8.8348	 0.8557	 9.6905	62.9250	99.9812	
   969	 5.7638	 0.0946	 5.8584	 6.2056	 1.0591	 7.2647	 8.7999	 0.6177	 9.4176	63.1548	99.9799	
   970	 6.2220	 0.0690	 6.2911	 6.6707	 0.9975	 7.6682	 9.1354	 0.3433	 9.4787	63.8254	99.9798	
   971	 6.3852	-0.1047	 6.2806	 6.6834	 0.6623	 7.3457	 8.9836	-0.0848	 8.8987	64.1593	99.9802	
   972	 6.1387	-0.3236	 5.8151	 6.3323	 0.3642	 6.6965	 8.5557	-0.2895	 8.2662	63.8407	99.9817	
   973	 5.7871	-0.5341	 5.2532	 6.0263	 0.0689	 6.0952	 8.2479	-0.5735	 7.6744	64.1080	99.9825	
   974	 5.3201	-0.6565	 4.6637	 5.7454	-0.1255	 5.6199	 7.8311	-0.6739	 7.1572	64.0120	99.9865	
   975	 5.1422	-0.7345	 4.4079	 5.5665	-0.2214	 5.3451	 7.5976	-0.7175	 6.8801	63.7918	99.9874	
   976	 4.9434	-0.7820	 4.1615	 5.4038	-0.2586	 5.1452	 7.4498	-0.7419	 6.7079	63.7616	99.9875	
   977	 5.0207	-0.7501	 4.2707	 5.5125	-0.2663	 5.2462	 7.6343	-0.7712	 6.8631	64.1351	99.9870	
   978	 4.8783	-0.8638	 4.0146	 5.2863	-0.4031	 4.8832	 7.2769	-0.9224	 6.3545	63.8720	99.9876	
   979	 4.4739	-0.9489	 3.5251	 4.9958	-0.5421	 4.4537	 6.9812	-0.9712	 6.0099	63.8421	99.9890	
   980	 4.3662	-0.9848	 3.3816	 4.9152	-0.6031	 4.3121	 6.8444	-0.9998	 5.8446	63.7456	99.9900	
   981	 4.1597	-1.0370	 3.1228	 4.7429	-0.6950	 4.0479	 6.6150	-1.0735	 5.5415	63.7081	99.9909	
   982	 3.9774	-1.0604	 2.9171	 4.6387	-0.8315	 3.8072	 6.3234	-1.1524	 5.1710	63.6011	99.9935	
   983	 3.8750	-1.1360	 2.7390	 4.4813	-0.8900	 3.5912	 6.2105	-1.2641	 4.9464	63.6898	99.9926	
   984	 3.6849	-1.1641	 2.5209	 4.3127	-0.9185	 3.3942	 6.0189	-1.1522	 4.8667	63.2236	99.9929	
   985	 3.5799	-1.1556	 2.4244	 4.2454	-0.8613	 3.3841	 5.9455	-0.9363	 5.0092	62.6448	99.9927	
   986	 3.3733	-1.0793	 2.2941	 4.0050	-0.6882	 3.3167	 5.7964	-0.7662	 5.0302	62.3428	99.9915	
   987	 3.2275	-0.9953	 2.2324	 3.9125	-0.6217	 3.2908	 5.7230	-0.6587	 5.0643	62.2881	99.9914	
   988	 3.1208	-0.8878	 2.2331	 3.8437	-0.4796	 3.3641	 5.7125	-0.5349	 5.1776	62.2989	99.9914	
   989	 3.0896	-0.7780	 2.3117	 3.8252	-0.3561	 3.4690	 5.6653	-0.3574	 5.3079	61.9953	99.9916	
   990	 3.1078	-0.7242	 2.3837	 3.8133	-0.2286	 3.5847	 5.7467	-0.3081	 5.4387	62.0963	99.9908	
   991	 3.1139	-0.6206	 2.4934	 3.8783	-0.1036	 3.7748	 5.8125	-0.1272	 5.6852	61.9277	99.9913	
   992	 3.3092	-0.5037	 2.8056	 4.0291	 0.0611	 4.0902	 6.0022	 0.0527	 6.0549	61.7574	99.9904	
   993	 3.4030	-0.4476	 2.9555	 4.1119	 0.1602	 4.2720	 6.1029	 0.1461	 6.2490	61.6742	99.9903	
   994	 3.4438	-0.3946	 3.0493	 4.1000	 0.2877	 4.3877	 6.1791	 0.2031	 6.3823	61.7119	99.9890	
   995	 3.5228	-0.3330	 3.1898	 4.1828	 0.3867	 4.5695	 6.2431	 0.3503	 6.5935	61.4483	99.9893	
   996	 3.6165	-0.2769	 3.3397	 4.2404	 0.4951	 4.7355	 6.2832	 0.4723	 6.7555	61.1791	99.9893	
   997	 3.6504	-0.2138	 3.4366	 4.2463	 0.5966	 4.8429	 6.4206	 0.5120	 6.9326	61.4053	99.9873	
   998	 3.7363	-0.1624	 3.5740	 4.2995	 0.7390	 5.0384	 6.4718	 0.6298	 7.1016	61.1696	99.9872	
   999	 3.8318	-0.0767	 3.7552	 4.3866	 0.9142	 5.3008	 6.6604	 0.7873	 7.4477	61.1348	99.9858	
  1000	 4.1009	 0.0130	 4.1140	 4.6247	 1.0337	 5.6583	 7.0021	 0.8531	 7.8552	61.3932	99.9840	
  1001	 4.2258	 0.0878	 4.3138	 4.7141	 1.1367	 5.8509	 7.1616	 0.8845	 8.0461	61.5786	99.9825	
  1002	 4.2788	 0.0910	 4.3698	 4.7518	 1.1228	 5.8746	 7.1144	 0.9536	 8.0680	61.2450	99.9837	
  1003	 4.2345	 0.1073	 4.3419	 4.7141	 1.1367	 5.8509	 7.0480	 0.9785	 8.0266	61.1521	99.9842	
  1004	 4.1798	 0.0746	 4.2545	 4.6409	 1.0925	 5.7334	 6.9182	 0.9759	 7.8941	60.9323	99.9848	
  1005	 4.0297	 0.0846	 4.1144	 4.4945	 1.1141	 5.6086	 6.8495	 0.9560	 7.8055	61.0854	99.9837	
  1006	 3.9854	 0.1010	 4.0865	 4.4568	 1.1281	 5.5849	 6.7412	 1.0423	 7.7836	60.7528	99.9847	
  1007	 3.9724	 0.1360	 4.1086	 4.4923	 1.1862	 5.6785	 6.8955	 1.0815	 7.9769	61.0169	99.9836	
  1008	 4.1651	 0.2085	 4.3738	 4.6615	 1.3376	 5.9991	 7.1324	 1.1923	 8.3247	61.0356	99.9824	
  1009	 4.3101	 0.2382	 4.5483	 4.7554	 1.4066	 6.1621	 7.2150	 1.2640	 8.4790	60.8589	99.9820	
  1010	 4.2997	 0.3176	 4.6174	 4.7473	 1.4874	 6.2347	 7.2948	 1.2797	 8.5745	61.1336	99.9806	
  1011	 4.3396	 0.3558	 4.6955	 4.8685	 1.4750	 6.3436	 7.2196	 1.4621	 8.6817	60.5419	99.9846	
  1012	 4.4160	 0.3730	 4.7891	 4.8811	 1.5806	 6.4616	 7.4269	 1.4356	 8.8625	60.9147	99.9810	
  1013	 4.4446	 0.4758	 4.9205	 4.9690	 1.6583	 6.6273	 7.5206	 1.5032	 9.0238	61.0713	99.9817	
  1014	 4.5896	 0.5055	 5.0951	 5.0888	 1.7307	 6.8195	 7.6562	 1.5093	 9.1656	61.1619	99.9810	
  1015	 4.7198	 0.5406	 5.2604	 5.1767	 1.8084	 6.9851	 7.7971	 1.5078	 9.3049	61.3123	99.9793	
  1016	 5.0036	 0.6248	 5.6285	 5.4665	 1.9347	 7.4013	 8.3001	 1.4217	 9.7219	62.2149	99.9748	
  1017	 5.2067	 0.6178	 5.8246	 5.5420	 1.9069	 7.4488	 8.2477	 1.4985	 9.7462	61.6408	99.9762	
  1018	 5.1624	 0.6342	 5.7967	 5.5043	 1.9208	 7.4250	 8.1674	 1.4715	 9.6389	61.6612	99.9764	
  1019	 5.1494	 0.6692	 5.8187	 5.5442	 1.9449	 7.4891	 8.2477	 1.4985	 9.7462	61.8191	99.9766	
  1020	 5.2284	 0.7308	 5.9593	 5.6011	 2.0406	 7.6416	 8.3997	 1.4928	 9.8925	62.1191	99.9739	
  1021	 5.2458	 0.7697	 6.0156	 5.6055	 2.1167	 7.7222	 8.3664	 1.6137	 9.9802	61.7984	99.9745	
  1022	 5.2258	 0.8149	 6.0408	 5.5700	 2.1687	 7.7387	 8.4328	 1.5888	10.0216	62.0960	99.9722	
  1023	 5.2657	 0.8531	 6.1189	 5.5685	 2.2535	 7.8220	 8.4468	 1.6406	10.0874	62.0081	99.9708	
  1024	 5.3769	 0.9482	 6.3251	 5.7096	 2.3634	 8.0731	 8.7676	 1.6287	10.3962	62.6400	99.9672	
  1025	 5.6051	 0.9848	 6.5901	 5.8383	 2.4779	 8.3162	 8.9393	 1.6783	10.6176	62.5833	99.9639	
  1026	 5.6598	 1.0176	 6.6775	 5.8870	 2.5442	 8.4312	 9.0167	 1.6493	10.6660	62.7872	99.9612	
  1027	 5.6537	 1.0425	 6.6964	 5.8892	 2.5823	 8.4715	 9.0359	 1.6934	10.7294	62.7617	99.9611	
  1028	 5.6789	 1.0861	 6.7652	 5.8537	 2.6343	 8.4880	 9.0499	 1.7453	10.7951	62.7043	99.9600	
  1029	 5.6633	 1.0768	 6.7402	 5.8123	 2.6949	 8.5072	 8.9975	 1.8220	10.8195	62.4149	99.9593	
  1030	 5.6208	 1.1227	 6.7436	 5.8123	 2.6949	 8.5072	 8.9975	 1.8220	10.8195	62.5611	99.9603	
  1031	 5.5557	 1.1694	 6.7252	 5.7746	 2.7088	 8.4834	 8.9311	 1.8469	10.7780	62.5588	99.9614	
  1032	 5.5114	 1.1858	 6.6973	 5.7391	 2.7608	 8.4999	 8.9450	 1.8988	10.8438	62.5367	99.9606	
  1033	 5.5904	 1.2474	 6.8379	 5.8218	 2.8599	 8.6817	 9.1278	 1.9443	11.0721	62.7508	99.9581	
  1034	 5.6894	 1.2637	 6.9532	 5.8706	 2.9261	 8.7967	 9.2250	 1.9706	11.1956	62.7537	99.9556	
  1035	 5.5219	 1.2349	 6.7568	 5.7841	 2.8738	 8.6579	 9.0702	 2.0288	11.0989	62.4959	99.9597	
  1036	 5.2858	 1.1935	 6.4794	 5.6111	 2.7692	 8.3803	 8.8787	 1.9237	10.8024	62.6632	99.9611	
  1037	 5.2901	 1.1390	 6.4292	 5.7273	 2.5578	 8.2851	 8.8257	 1.7723	10.5981	62.8547	99.9668	
  1038	 5.4559	 1.0097	 6.4657	 5.7496	 2.3876	 8.1371	 8.7676	 1.6287	10.3962	62.6609	99.9673	
  1039	 5.4359	 0.9264	 6.3623	 5.8110	 2.1186	 7.9296	 8.6238	 1.4657	10.0895	62.7016	99.9735	
  1040	 5.3985	 0.8041	 6.2027	 5.7519	 1.9849	 7.7368	 8.4993	 1.3470	 9.8462	62.6026	99.9742	
  1041	 5.1077	 0.6014	 5.7093	 5.4407	 1.7109	 7.1517	 8.0103	 1.2680	 9.2783	61.9285	99.9784	
  1042	 4.7362	 0.4362	 5.1725	 5.2124	 1.4258	 6.6382	 7.6709	 1.1385	 8.8094	61.8318	99.9824	
  1043	 4.4585	 0.1985	 4.6571	 4.9759	 1.1114	 6.0872	 7.3386	 0.8181	 8.1567	61.9849	99.9841	
  1044	 4.1494	-0.0579	 4.0917	 4.7032	 0.7260	 5.4292	 6.8281	 0.5417	 7.3698	61.7041	99.9878	
  1045	 3.6911	-0.2894	 3.4019	 4.2878	 0.3155	 4.6033	 6.3451	 0.1408	 6.4859	62.0634	99.9888	
  1046	 3.2658	-0.4726	 2.7934	 3.9449	-0.0633	 3.8815	 5.8049	-0.1644	 5.6406	62.1167	99.9913	
  1047	 2.9638	-0.6105	 2.3533	 3.6151	-0.2138	 3.4014	 5.5395	-0.3901	 5.1494	62.3809	99.9904	
  1048	 2.8101	-0.6597	 2.1506	 3.5013	-0.2949	 3.2064	 5.3509	-0.4391	 4.9118	62.2790	99.9916	
  1049	 2.7251	-0.6963	 2.0289	 3.4288	-0.3264	 3.1024	 5.1885	-0.4181	 4.7704	61.9610	99.9927	
  1050	 2.6912	-0.6309	 2.0605	 3.4184	-0.1735	 3.2449	 5.2222	-0.3109	 4.9113	61.9109	99.9927	
  1051	 2.8475	-0.5374	 2.3102	 3.6595	-0.1135	 3.5460	 5.4033	-0.2990	 5.1043	62.1925	99.9939	
  1052	 2.8457	-0.5670	 2.2789	 3.5323	-0.0924	 3.4398	 5.2851	-0.2946	 4.9905	61.9018	99.9929	
  1053	 2.8015	-0.5506	 2.2510	 3.4909	-0.1420	 3.3489	 5.1593	-0.3273	 4.8321	61.8555	99.9938	
  1054	 2.6912	-0.6309	 2.0605	 3.3127	-0.2252	 3.0875	 4.9818	-0.3805	 4.6013	61.6568	99.9932	
  1055	 2.6643	-0.5756	 2.0889	 3.2846	-0.1565	 3.1281	 4.9451	-0.3267	 4.6184	61.5932	99.9933	
  1056	 2.6973	-0.5273	 2.1702	 3.2631	-0.0838	 3.1793	 4.8898	-0.3060	 4.5838	61.4872	99.9931	
  1057	 2.7442	-0.4992	 2.2451	 3.3023	-0.0723	 3.2300	 4.8455	-0.2894	 4.5562	61.3503	99.9937	
  1058	 2.7555	-0.4353	 2.3203	 3.2682	 0.0051	 3.2733	 4.7646	-0.2190	 4.5456	61.1195	99.9937	
  1059	 2.8180	-0.3979	 2.4202	 3.3200	 0.0119	 3.3319	 4.8013	-0.2727	 4.5285	61.3304	99.9935	
  1060	 2.8301	-0.4478	 2.3825	 3.2431	 0.0143	 3.2574	 4.6942	-0.2725	 4.4217	61.0013	99.9930	
  1061	 2.6999	-0.4829	 2.2172	 3.2047	-0.0946	 3.1101	 4.6389	-0.2517	 4.3871	60.9495	99.9945	
  1062	 2.7234	-0.4688	 2.2546	 3.2098	-0.0058	 3.2041	 4.7017	-0.2354	 4.4663	61.0201	99.9935	
  1063	 2.6704	-0.4720	 2.1986	 3.2002	-0.0606	 3.1397	 4.6575	-0.2188	 4.4387	60.9584	99.9944	
  1064	 2.6401	-0.4759	 2.1643	 3.1514	-0.0166	 3.1348	 4.6575	-0.2188	 4.4387	60.9936	99.9937	
  1065	 2.5776	-0.5133	 2.0644	 3.0413	-0.0343	 3.0070	 4.5503	-0.2185	 4.3319	60.7983	99.9934	
  1066	 2.5029	-0.5009	 2.0022	 3.0457	-0.0683	 2.9774	 4.5503	-0.2185	 4.3319	60.9320	99.9941	
  1067	 2.6418	-0.4463	 2.1956	 3.2054	 0.0283	 3.2337	 4.7354	-0.1282	 4.6073	60.9497	99.9940	
  1068	 2.8032	-0.3925	 2.4109	 3.3584	 0.1208	 3.4792	 4.9130	-0.0750	 4.8380	61.0223	99.9935	
  1069	 2.8822	-0.3309	 2.5514	 3.4582	 0.1812	 3.6394	 4.9578	 0.0281	 4.9859	60.8385	99.9942	
  1070	 3.0046	-0.3005	 2.7042	 3.4840	 0.2948	 3.7788	 5.0649	 0.0278	 5.0927	60.9323	99.9920	
  1071	 2.9586	-0.3138	 2.6450	 3.5136	 0.2514	 3.7651	 5.0835	 0.0608	 5.1443	60.9137	99.9932	
  1072	 2.9708	-0.2351	 2.7358	 3.5350	 0.3991	 3.9341	 5.0887	 0.2700	 5.3587	60.4938	99.9934	
  1073	 2.8849	-0.1580	 2.7270	 3.4004	 0.5136	 3.9140	 4.9734	 0.4389	 5.4123	60.0945	99.9932	
  1074	 2.5872	-0.0934	 2.4939	 3.1157	 0.5863	 3.7020	 4.6747	 0.5510	 5.2257	59.7781	99.9935	
  1075	 2.4006	-0.0623	 2.3384	 2.9567	 0.6126	 3.5693	 4.5827	 0.6255	 5.2082	59.7316	99.9932	
  1076	 2.4700	-0.0351	 2.4351	 3.0269	 0.7163	 3.7432	 4.8161	 0.6692	 5.4853	60.0149	99.9915	
  1077	 2.5968	 0.0694	 2.6662	 3.1385	 0.8696	 4.0081	 4.9080	 0.8116	 5.7196	59.8378	99.9915	
  1078	 2.6575	 0.0772	 2.7348	 3.1341	 0.9036	 4.0377	 4.8713	 0.8653	 5.7367	59.5517	99.9913	
  1079	 2.6280	 0.0881	 2.7162	 3.1681	 0.8262	 3.9943	 4.9942	 0.7336	 5.7278	60.2067	99.9909	
  1080	 2.5473	-0.0031	 2.5443	 3.0861	 0.6297	 3.7158	 4.8394	 0.5748	 5.4142	60.2723	99.9917	
  1081	 2.4414	-0.1379	 2.3036	 2.9568	 0.3923	 3.3491	 4.6509	 0.3088	 4.9597	60.5140	99.9920	
  1082	 2.2218	-0.2836	 1.9382	 2.7491	 0.1319	 2.8811	 4.4554	 0.0169	 4.4723	60.9572	99.9917	
  1083	 2.0881	-0.3779	 1.7103	 2.6634	-0.0179	 2.6455	 4.3623	-0.1479	 4.2144	61.2306	99.9922	
  1084	 2.1158	-0.4184	 1.6975	 2.7263	-0.0411	 2.6852	 4.5137	-0.1648	 4.3489	61.4381	99.9914	
  1085	 2.1792	-0.3662	 1.8131	 2.8231	 0.0787	 2.9018	 4.5625	 0.0167	 4.5792	61.0470	99.9924	
  1086	 2.2955	-0.3109	 1.9848	 2.9132	 0.1945	 3.1077	 4.6958	 0.0865	 4.7823	61.0568	99.9919	
  1087	 2.3901	-0.2399	 2.1503	 3.0101	 0.3143	 3.3243	 4.8425	 0.1969	 5.0394	61.0428	99.9915	
  1088	 2.5021	-0.1301	 2.3722	 3.1312	 0.5223	 3.6535	 5.0101	 0.3852	 5.3952	60.9119	99.9911	
  1089	 2.6523	-0.0116	 2.6408	 3.2901	 0.7163	 4.0065	 5.0915	 0.6514	 5.7429	60.3729	99.9920	
  1090	 2.8085	 0.0819	 2.8905	 3.3662	 0.9216	 4.2878	 5.2387	 0.7731	 6.0118	60.2920	99.9902	
  1091	 2.8849	 0.2276	 3.1126	 3.4527	 1.0841	 4.5367	 5.3498	 0.9597	 6.3095	60.1880	99.9901	
  1092	 3.1306	 0.3032	 3.4339	 3.6108	 1.2654	 4.8763	 5.4610	 1.1462	 6.6072	59.7029	99.9895	
  1093	 3.3372	 0.4840	 3.8213	 3.6877	 1.4834	 5.1710	 5.6088	 1.2791	 6.8879	59.7013	99.9872	
  1094	 3.4596	 0.6430	 4.1026	 3.7393	 1.7105	 5.4499	 5.6099	 1.5184	 7.1283	59.2119	99.9869	
  1095	 3.6749	 0.8432	 4.5182	 3.8546	 1.9272	 5.7818	 5.7274	 1.7197	 7.4471	58.9969	99.9860	
  1096	 3.8563	 0.9804	 4.8368	 3.9403	 2.0770	 6.0173	 5.7571	 1.8570	 7.6141	58.7047	99.9856	
  1097	 3.9717	 1.0209	 4.9927	 4.0201	 2.1253	 6.1455	 5.8124	 1.8362	 7.6486	58.7822	99.9847	
  1098	 3.9162	 0.9734	 4.8897	 3.9655	 1.9576	 5.9230	 5.7082	 1.6756	 7.3838	58.9962	99.9861	
  1099	 3.8302	 0.9220	 4.7523	 3.8923	 1.9133	 5.8056	 5.6948	 1.6349	 7.3298	59.0987	99.9856	
  1100	 3.7999	 0.9180	 4.7180	 3.9278	 1.8613	 5.7891	 5.7502	 1.6142	 7.3643	59.2962	99.9865	
  1101	 3.8484	 0.8472	 4.6957	 3.9175	 1.7938	 5.7113	 5.7892	 1.4968	 7.2860	59.4722	99.9852	
  1102	 3.7616	 0.7809	 4.5427	 3.9153	 1.6456	 5.5609	 5.6571	 1.4493	 7.1064	59.3363	99.9881	
  1103	 3.6913	 0.7389	 4.4303	 3.8066	 1.6533	 5.4599	 5.5750	 1.3888	 6.9638	59.3572	99.9869	
  1104	 3.6184	 0.6524	 4.2709	 3.7357	 1.5369	 5.2726	 5.4295	 1.3008	 6.7302	59.2431	99.9879	
  1105	 3.4266	 0.4661	 3.8928	 3.6737	 1.2422	 4.9159	 5.3655	 1.0451	 6.4106	59.7069	99.9896	
  1106	 3.4274	 0.3524	 3.7799	 3.8120	 1.1912	 5.0032	 5.7550	 0.9445	 6.6996	60.4812	99.9878	
  1107	 3.8839	 0.4258	 4.3098	 4.2134	 1.3605	 5.5739	 6.2703	 0.9851	 7.2554	60.8430	99.9849	
  1108	 3.9594	 0.2996	 4.2591	 4.3001	 1.0822	 5.3823	 6.2127	 0.6357	 6.8485	61.3215	99.9864	
  1109	 3.4317	-0.0877	 3.3441	 3.8218	 0.5848	 4.4067	 5.6004	 0.2434	 5.8439	61.1881	99.9893	
  1110	 2.9308	-0.2733	 2.6577	 3.5388	 0.2422	 3.7809	 5.1831	 0.0234	 5.2065	61.3294	99.9930	
  1111	 2.6835	-0.3785	 2.3051	 3.3629	 0.0868	 3.4496	 4.9759	-0.0586	 4.9173	61.2948	99.9941	
  1112	 2.5194	-0.4767	 2.0428	 3.1514	-0.0166	 3.1348	 4.7721	-0.1819	 4.5902	61.2785	99.9937	
  1113	 2.3675	-0.4962	 1.8714	 3.0080	-0.0544	 2.9536	 4.6575	-0.2188	 4.4387	61.3387	99.9935	
  1114	 2.4648	-0.3809	 2.0839	 3.1602	 0.1357	 3.2959	 4.8763	-0.0212	 4.8551	61.3076	99.9932	
  1115	 2.7642	-0.2873	 2.4770	 3.4427	 0.2453	 3.6879	 5.0835	 0.0608	 5.1443	61.2443	99.9935	
  1116	 2.6982	-0.3839	 2.3144	 3.3000	 0.1100	 3.4100	 4.8687	-0.0583	 4.8104	61.0597	99.9938	
  1117	 2.5229	-0.4175	 2.1055	 3.1721	 0.0081	 3.1803	 4.7797	-0.1448	 4.6349	61.3097	99.9940	
  1118	 2.5186	-0.3630	 2.1557	 3.2231	 0.1125	 3.3356	 4.8320	-0.0046	 4.8274	61.1403	99.9943	
  1119	 2.7833	-0.2188	 2.5646	 3.3871	 0.3954	 3.7825	 5.0124	 0.2130	 5.2255	60.8070	99.9929	
  1120	 3.0246	-0.0886	 2.9361	 3.5756	 0.5461	 4.1218	 5.1516	 0.2864	 5.4379	60.7980	99.9920	
  1121	 2.9743	-0.1759	 2.7985	 3.3953	 0.4248	 3.8200	 4.9286	 0.1189	 5.0476	60.7264	99.9915	
  1122	 2.7781	-0.1791	 2.5992	 3.2541	 0.3149	 3.5690	 4.7325	 0.0328	 4.7652	60.8665	99.9929	
  1123	 2.7772	-0.3224	 2.4549	 3.1225	 0.1496	 3.2721	 4.5625	 0.0167	 4.5792	60.2816	99.9933	
  1124	 2.1844	-0.2774	 1.9071	 2.5989	 0.3105	 2.9095	 4.1205	 0.3024	 4.4230	59.5902	99.9930	
  1125	 1.5882	-0.1631	 1.4252	 2.1664	 0.3795	 2.5459	 3.6222	 0.3697	 3.9918	59.5459	99.9948	
  1126	 1.4814	-0.3127	 1.1688	 2.1465	 0.1471	 2.2936	 3.4732	 0.1060	 3.5792	59.8275	99.9961	
  1127	 1.8372	-0.4138	 1.4235	 2.4482	 0.0357	 2.4839	 3.8878	-0.1638	 3.7240	60.6522	99.9944	
  1128	 2.2981	-0.3950	 1.9032	 2.7691	 0.0338	 2.8029	 4.1375	-0.0236	 4.1140	60.1134	99.9949	
  1129	 2.0013	-0.4442	 1.5572	 2.5015	-0.0423	 2.4591	 3.7475	-0.1511	 3.5964	60.0396	99.9957	
  1130	 1.6906	-0.4731	 1.2176	 2.2383	-0.1525	 2.0858	 3.2125	-0.1386	 3.0739	59.3455	99.9978	
  1131	 1.4319	-0.6422	 0.7898	 2.0335	-0.3621	 1.6715	 2.8510	-0.2598	 2.5912	58.9886	99.9987	
  1132	 1.2878	-0.6570	 0.6309	 1.9189	-0.3457	 1.5732	 2.7438	-0.1510	 2.5928	58.6531	99.9990	
  1133	 1.3573	-0.5012	 0.8561	 1.9491	-0.0458	 1.9034	 2.9952	 0.1313	 3.1265	58.5973	99.9978	
  1134	 1.5908	-0.1187	 1.4722	 2.1212	 0.4869	 2.6081	 3.6116	 0.4935	 4.1051	59.2734	99.9941	
  1135	 2.0448	 0.1673	 2.2122	 2.4242	 0.8417	 3.2659	 3.8165	 0.7476	 4.5641	58.9053	99.9933	
  1136	 2.4128	 0.2734	 2.6863	 2.6896	 1.1001	 3.7897	 4.2553	 1.0566	 5.3120	58.6010	99.9913	
  1137	 2.6602	 0.2501	 2.9104	 2.8863	 1.0599	 3.9462	 4.2763	 0.9175	 5.1938	58.6078	99.9915	
  1138	 2.6211	 0.3553	 2.9765	 3.0688	 1.3295	 4.3983	 4.8322	 1.1996	 6.0319	59.1975	99.9896	
  1139	 3.1592	 0.4061	 3.5654	 3.3800	 1.4932	 4.8733	 5.0429	 1.3489	 6.3918	58.5276	99.9881	
  1140	 3.3667	 0.4731	 3.8399	 3.6661	 1.6663	 5.3324	 5.3671	 1.5125	 6.8796	58.5520	99.9870	
  1141	 3.3762	 0.2503	 3.6266	 3.7609	 1.4174	 5.1783	 5.3084	 1.2492	 6.5576	58.6760	99.9871	
  1142	 2.9352	-0.0707	 2.8646	 3.5910	 1.0330	 4.6240	 5.0133	 0.9947	 6.0080	58.7734	99.9898	
  1143	 2.8380	-0.1860	 2.6521	 3.5792	 0.9401	 4.5193	 5.1415	 0.8552	 5.9967	59.2968	99.9888	
  1144	 2.9126	-0.1985	 2.7142	 3.6006	 0.8674	 4.4680	 5.1968	 0.8345	 6.0313	59.3257	99.9910	
  1145	 2.9777	-0.1167	 2.8612	 3.6169	 0.9262	 4.5431	 5.1548	 0.8959	 6.0507	59.1547	99.9913	
  1146	 3.0506	-0.1587	 2.8920	 3.6088	 0.8968	 4.5056	 5.1968	 0.8345	 6.0313	59.2092	99.9906	
  1147	 3.0341	-0.1829	 2.8514	 3.6029	 0.7953	 4.3982	 5.1048	 0.6920	 5.7969	59.3913	99.9908	
  1148	 2.8536	-0.3052	 2.5485	 3.4418	 0.5631	 4.0049	 4.7976	 0.4193	 5.2168	59.5496	99.9911	
  1149	 2.5533	-0.4136	 2.1398	 3.1535	 0.3520	 3.5055	 4.4710	 0.2108	 4.6818	59.7001	99.9923	
  1150	 2.2929	-0.4838	 1.8092	 2.8659	 0.1536	 3.0196	 4.2522	 0.0133	 4.2655	60.0532	99.9938	
  1151	 2.0898	-0.4768	 1.6131	 2.7063	 0.0570	 2.7633	 4.0304	-0.0233	 4.0071	60.0352	99.9953	
  1152	 1.9535	-0.4870	 1.4666	 2.5614	-0.0061	 2.5552	 3.8715	-0.0436	 3.8279	59.9600	99.9959	
  1153	 1.9240	-0.4761	 1.4480	 2.4874	 0.0471	 2.5345	 3.7905	 0.0268	 3.8173	59.6727	99.9957	
  1154	 2.0160	-0.4496	 1.5665	 2.5509	 0.1468	 2.6977	 3.9128	 0.1008	 4.0135	59.6273	99.9949	
  1155	 2.1601	-0.4348	 1.7255	 2.6485	 0.1691	 2.8176	 4.1008	 0.0302	 4.1310	60.0098	99.9936	
  1156	 2.0777	-0.4270	 1.6508	 2.5842	 0.1669	 2.7511	 4.0013	 0.0675	 4.0688	59.8493	99.9941	
  1157	 2.0482	-0.4161	 1.6322	 2.5591	 0.1762	 2.7353	 3.9570	 0.0842	 4.0412	59.7832	99.9943	
  1158	 2.0325	-0.4255	 1.6072	 2.5509	 0.1468	 2.6977	 3.8610	 0.0803	 3.9412	59.6096	99.9950	
  1159	 1.8963	-0.4356	 1.4607	 2.4578	 0.0905	 2.5483	 3.6135	 0.0932	 3.7068	59.2666	99.9963	
  1160	 1.8364	-0.4286	 1.4078	 2.3994	 0.0796	 2.4790	 3.5175	 0.0893	 3.6068	59.1911	99.9966	
  1161	 1.7678	-0.4411	 1.3268	 2.2973	 0.0914	 2.3887	 3.3218	 0.1228	 3.4447	58.7845	99.9967	
  1162	 1.6784	-0.4232	 1.2553	 2.2375	 0.0552	 2.2926	 3.2205	 0.1266	 3.3472	58.7434	99.9974	
  1163	 1.6940	-0.4139	 1.2803	 2.2641	 0.0713	 2.3353	 3.3218	 0.1228	 3.4447	58.9528	99.9971	
  1164	 1.7331	-0.3905	 1.3427	 2.2973	 0.0914	 2.3887	 3.3294	 0.1599	 3.4893	58.8556	99.9973	
  1165	 1.7192	-0.3702	 1.3491	 2.2722	 0.1007	 2.3729	 3.2852	 0.1766	 3.4617	58.7845	99.9974	
  1166	 1.6897	-0.3594	 1.3305	 2.2345	 0.1146	 2.3491	 3.2409	 0.1932	 3.4341	58.7171	99.9974	
  1167	 1.6897	-0.3594	 1.3305	 2.1857	 0.1585	 2.3442	 3.1157	 0.2801	 3.3958	58.2235	99.9975	
  1168	 1.6455	-0.3430	 1.3025	 2.1228	 0.1817	 2.3046	 3.1192	 0.2389	 3.3581	58.4469	99.9969	
  1169	 1.6298	-0.3524	 1.2776	 2.0977	 0.1910	 2.2887	 2.9422	 0.3053	 3.2475	57.9074	99.9973	
  1170	 1.5561	-0.3251	 1.2310	 2.0585	 0.1796	 2.2381	 2.8904	 0.2848	 3.1752	58.0292	99.9975	
  1171	 1.5413	-0.3197	 1.2217	 2.0599	 0.2050	 2.2649	 2.9422	 0.3053	 3.2475	58.1116	99.9973	
  1172	 1.6186	-0.2877	 1.3309	 2.1265	 0.2452	 2.3717	 3.1233	 0.3172	 3.4405	58.3948	99.9970	
  1173	 1.6489	-0.2838	 1.3652	 2.0984	 0.3139	 2.4123	 3.0423	 0.3876	 3.4299	57.9982	99.9966	
  1174	 1.6203	-0.2581	 1.3623	 2.1279	 0.2706	 2.3985	 3.0091	 0.4000	 3.4092	57.9941	99.9976	
  1175	 1.5899	-0.2620	 1.3280	 2.0777	 0.2892	 2.3668	 2.9131	 0.3961	 3.3092	57.8476	99.9972	
  1176	 1.5595	-0.2659	 1.2937	 2.0008	 0.2916	 2.2924	 2.8246	 0.4294	 3.2539	57.6129	99.9974	
  1177	 1.5005	-0.2441	 1.2565	 1.9756	 0.3009	 2.2765	 2.7361	 0.4626	 3.1987	57.4760	99.9977	
  1178	 1.4710	-0.2332	 1.2379	 1.9519	 0.3356	 2.2875	 2.6918	 0.4792	 3.1710	57.4075	99.9972	
  1179	 1.4268	-0.2169	 1.2100	 1.9505	 0.3102	 2.2607	 2.6033	 0.5124	 3.1157	57.2359	99.9979	
  1180	 1.3973	-0.2060	 1.1914	 1.9756	 0.3009	 2.2765	 2.6918	 0.4792	 3.1710	57.5787	99.9979	
  1181	 1.5257	-0.2005	 1.3253	 2.0185	 0.3758	 2.3943	 2.8472	 0.5407	 3.3880	57.5409	99.9976	
  1182	 1.5413	-0.1911	 1.3503	 2.0185	 0.3758	 2.3943	 2.8472	 0.5407	 3.3880	57.5365	99.9976	
  1183	 1.5127	-0.1654	 1.3473	 1.9948	 0.4105	 2.4053	 2.8030	 0.5573	 3.3603	57.4980	99.9974	
  1184	 1.5127	-0.1654	 1.3473	 1.9652	 0.4538	 2.4190	 2.8030	 0.5573	 3.3603	57.4980	99.9966	
  1185	 1.4832	-0.1546	 1.3287	 1.9571	 0.4244	 2.3815	 2.7145	 0.5906	 3.3050	57.2928	99.9975	
  1186	 1.4233	-0.1476	 1.2758	 1.8942	 0.4476	 2.3418	 2.6260	 0.6238	 3.2498	57.1260	99.9974	
  1187	 1.3790	-0.1312	 1.2479	 1.8942	 0.4476	 2.3418	 2.5742	 0.6033	 3.1775	57.1786	99.9969	
  1188	 1.3487	-0.1351	 1.2136	 1.8439	 0.4662	 2.3101	 2.5742	 0.6033	 3.1775	57.2175	99.9967	
  1189	 1.3790	-0.1312	 1.2479	 1.9119	 0.5318	 2.4437	 2.6778	 0.6443	 3.3221	57.2788	99.9957	
  1190	 1.5292	-0.1413	 1.3880	 2.0679	 0.5649	 2.6329	 2.8955	 0.6025	 3.4980	57.5880	99.9941	
  1191	 1.4988	-0.1452	 1.3537	 2.0339	 0.6423	 2.6762	 2.8955	 0.6025	 3.4980	57.6263	99.9914	
  1192	 1.4519	-0.1733	 1.2788	 1.9910	 0.5674	 2.5584	 2.7220	 0.6277	 3.3497	57.2150	99.9933	
  1193	 1.3669	-0.2099	 1.1571	 1.8979	 0.5111	 2.4090	 2.5666	 0.5662	 3.1328	57.1191	99.9929	
  1194	 1.2592	-0.2458	 1.0136	 1.8092	 0.4207	 2.2299	 2.3780	 0.5171	 2.8951	56.9558	99.9936	
  1195	 1.2306	-0.2201	 1.0106	 1.7715	 0.4346	 2.2061	 2.3448	 0.5296	 2.8744	56.9511	99.9938	
  1196	 1.1629	-0.2178	 0.9453	 1.7205	 0.3303	 2.0508	 2.2395	 0.4550	 2.6944	57.0496	99.9954	
  1197	 1.1160	-0.2458	 0.8703	 1.6214	 0.2826	 1.9041	 2.1749	 0.4050	 2.5799	57.0679	99.9963	
  1198	 1.1169	-0.2310	 0.8860	 1.5978	 0.3173	 1.9151	 2.2319	 0.4178	 2.6498	57.1811	99.9963	
  1199	 1.1334	-0.2069	 0.9266	 1.6133	 0.2532	 1.8665	 2.1952	 0.4716	 2.6668	56.9803	99.9984	
  1200	 1.1126	-0.1765	 0.9362	 1.5379	 0.2811	 1.8190	 2.1434	 0.4511	 2.5945	57.0262	99.9981	
  1201	 1.0831	-0.1656	 0.9176	 1.5002	 0.2950	 1.7952	 2.1434	 0.4511	 2.5945	57.0956	99.9981	
  1202	 1.0839	-0.1508	 0.9333	 1.5002	 0.2950	 1.7952	 2.1102	 0.4635	 2.5738	57.0215	99.9982	
  1203	 1.0397	-0.1344	 0.9053	 1.4499	 0.3136	 1.7635	 2.0217	 0.4967	 2.5185	56.8476	99.9983	
  1204	 1.0241	-0.1438	 0.8804	 1.4247	 0.3229	 1.7476	 1.9775	 0.5134	 2.4908	56.7130	99.9982	
  1205	 0.9659	-0.1072	 0.8588	 1.4247	 0.3229	 1.7476	 1.9443	 0.5258	 2.4701	56.7779	99.9983	
  1206	 0.9520	-0.0870	 0.8652	 1.3951	 0.3662	 1.7613	 1.9850	 0.5505	 2.5355	56.8596	99.9982	
  1207	 1.0727	-0.0861	 0.9866	 1.4565	 0.4278	 1.8843	 2.0904	 0.6251	 2.7155	56.6848	99.9981	
  1208	 1.0900	-0.0472	 1.0430	 1.4772	 0.4526	 1.9297	 2.0461	 0.6417	 2.6878	56.6005	99.9980	
  1209	 1.0605	-0.0363	 1.0243	 1.4520	 0.4618	 1.9139	 2.0019	 0.6583	 2.6602	56.5308	99.9980	
  1210	 1.0302	-0.0402	 0.9901	 1.4224	 0.5052	 1.9276	 2.0019	 0.6583	 2.6602	56.5706	99.9972	
  1211	 1.0007	-0.0293	 0.9715	 1.3973	 0.5145	 1.9118	 2.0019	 0.6583	 2.6602	56.6402	99.9971	
  1212	 0.9850	-0.0387	 0.9465	 1.4017	 0.4804	 1.8822	 1.9611	 0.6337	 2.5948	56.6280	99.9972	
  1213	 0.9408	-0.0223	 0.9186	 1.3640	 0.4943	 1.8584	 1.9169	 0.6503	 2.5671	56.5931	99.9972	
  1214	 0.9798	 0.0011	 0.9810	 1.3988	 0.5398	 1.9386	 2.0094	 0.6954	 2.7049	56.6500	99.9973	
  1215	 1.0397	-0.0059	 1.0339	 1.4320	 0.5600	 1.9920	 2.0170	 0.7325	 2.7495	56.4536	99.9972	
  1216	 0.9963	 0.0252	 1.0216	 1.4320	 0.5600	 1.9920	 1.9285	 0.7658	 2.6943	56.3092	99.9974	
  1217	 0.9668	 0.0361	 1.0030	 1.3943	 0.5739	 1.9682	 1.8586	 0.8320	 2.6906	56.0478	99.9979	
  1218	 0.9521	 0.0416	 0.9937	 1.3440	 0.5925	 1.9365	 1.8953	 0.7782	 2.6735	56.3092	99.9974	
  1219	 0.9217	 0.0377	 0.9594	 1.3189	 0.6017	 1.9206	 1.8068	 0.8115	 2.6182	56.0697	99.9973	
  1220	 0.8479	 0.0649	 0.9129	 1.2856	 0.5816	 1.8672	 1.7625	 0.8281	 2.5906	56.1047	99.9980	
  1221	 0.8332	 0.0704	 0.9036	 1.2353	 0.6002	 1.8355	 1.7218	 0.8034	 2.5252	56.1216	99.9975	
  1222	 0.8028	 0.0664	 0.8693	 1.2353	 0.6002	 1.8355	 1.7294	 0.8405	 2.5699	56.0749	99.9978	
  1223	 0.8818	 0.1280	 1.0099	 1.3159	 0.6612	 1.9771	 1.8551	 0.8732	 2.7283	56.2547	99.9977	
  1224	 0.9582	 0.1452	 1.1034	 1.3492	 0.6813	 2.0305	 1.8626	 0.9103	 2.7730	56.0827	99.9979	
