OxySoft export of:	C:\Users\TO3 TechSupport\Documents\Train2Adapt\T2A_42
Export date:	2022/09/09 15:29:08
Start of measurement:	2022-09-09 14:08:27.803

Datafile sample rate:	10.00	Hz
Datafile duration:	3734.600	s
Datafile total number of samples:	37346

Description:	

Optode-template:	PortaMon TSI Fit Factor
Optode distance (mm):	 35.00
Optode gradients (mm):	 5.00
DPF:	6.03

Device id:	291
# Receivers:	1
# Light sources:	6
# ADC:	2

Light source wavelengths:
device	index	wavelength
1	1	847	nm
1	2	761	nm
1	3	848	nm
1	4	761	nm
1	5	848	nm
1	6	762	nm

Export sample rate:	10.00	Hz
Selected time span:	0	3734.600
Selected time span (sample numbers):	0	37346


Legend:
Column	Trace (Measurement)
1	(Sample number)
2	Rx1-Tx1 O2Hb (T2A_42)
3	Rx1-Tx1 HHb (T2A_42)
4	Rx1-Tx1 tHb (T2A_42)
5	Rx1-Tx2 O2Hb (T2A_42)
6	Rx1-Tx2 HHb (T2A_42)
7	Rx1-Tx2 tHb (T2A_42)
8	Rx1-Tx3 O2Hb (T2A_42)
9	Rx1-Tx3 HHb (T2A_42)
10	Rx1-Tx3 tHb (T2A_42)
11	Rx1-Tx1,Tx2,Tx3 TSI% (T2A_42)
12	Rx1-Tx1,Tx2,Tx3 TSI Fit Factor (T2A_42)
13	(Event)


1	2	3	4	5	6	7	8	9	10	11	12	13
     0	145.5673	75.9755	221.5428	116.2761	60.3662	176.6424	96.3482	54.2081	150.5564	43.7250	98.5201	
     1	 0.5708	-0.1279	 0.4429	 0.5115	-0.1605	 0.3510	 0.4947	-0.2357	 0.2589	69.6668	99.9535	
     2	 0.5823	-0.0741	 0.5081	 0.5926	-0.0981	 0.4945	 0.5228	-0.1712	 0.3516	69.6231	99.9493	
     3	 0.4957	-0.1416	 0.3541	 0.5399	-0.1568	 0.3831	 0.5056	-0.2648	 0.2407	69.8570	99.9466	
     4	 0.3919	-0.2193	 0.1726	 0.4743	-0.1965	 0.2778	 0.4717	-0.3210	 0.1508	69.9299	99.9434	
     5	 0.2578	-0.2527	 0.0051	 0.3924	-0.2728	 0.1196	 0.3575	-0.3782	-0.0207	70.0132	99.9443	
     6	 0.0951	-0.3501	-0.2550	 0.1696	-0.3539	-0.1844	 0.1808	-0.4495	-0.2687	69.9022	99.9477	
     7	-0.0581	-0.4261	-0.4842	 0.0375	-0.4472	-0.4097	 0.0225	-0.5215	-0.4989	69.8697	99.9485	
     8	-0.1780	-0.4979	-0.6759	-0.0403	-0.5748	-0.6151	-0.1351	-0.5812	-0.7163	69.7602	99.9519	
     9	-0.3464	-0.5517	-0.8981	-0.1594	-0.6871	-0.8465	-0.2869	-0.6493	-0.9363	69.8055	99.9552	
    10	-0.5062	-0.6005	-1.1067	-0.3418	-0.6766	-1.0184	-0.4663	-0.5319	-0.9982	69.1666	99.9604	
    11	-0.6271	-0.5476	-1.1746	-0.4091	-0.5025	-0.9117	-0.4064	-0.3292	-0.7356	68.9043	99.9600	
    12	-0.4263	-0.3648	-0.7911	-0.1839	-0.2589	-0.4428	-0.1282	-0.2084	-0.3366	69.2057	99.9499	
    13	-0.1837	-0.3135	-0.4971	-0.1029	-0.1965	-0.2993	-0.0784	-0.2020	-0.2804	69.0648	99.9485	
    14	-0.2484	-0.2896	-0.5379	-0.2439	-0.2012	-0.4451	-0.2373	-0.1674	-0.4047	68.7990	99.9542	
    15	-0.0076	-0.1298	-0.1374	 0.0187	-0.1632	-0.1445	 0.0467	-0.2928	-0.2461	69.8314	99.9487	
    16	 0.0732	-0.1597	-0.0864	 0.0925	-0.1052	-0.0128	 0.2209	-0.1517	 0.0692	69.4895	99.9545	
    17	 0.2959	-0.0264	 0.2695	 0.2448	-0.0265	 0.2183	 0.2394	-0.0335	 0.2058	69.1507	99.9569	
    18	 0.1551	-0.0324	 0.1227	 0.1459	-0.0326	 0.1133	 0.1941	-0.0728	 0.1212	69.3829	99.9554	
    19	 0.0828	 0.0026	 0.0853	 0.0835	-0.0166	 0.0669	 0.0556	-0.0021	 0.0535	69.0738	99.9571	
    20	 0.0000	-0.0000	-0.0000	 0.0000	-0.0000	-0.0000	 0.0000	 0.0000	 0.0000	69.0729	99.9562	
    21	-0.0923	-0.0240	-0.1162	-0.0697	 0.0115	-0.0582	 0.0326	 0.0316	 0.0642	69.0986	99.9589	
    22	-0.1570	-0.0001	-0.1570	-0.0178	 0.0563	 0.0384	 0.0753	 0.1407	 0.2160	68.9662	99.9591	
    23	-0.0476	 0.0341	-0.0134	 0.1880	 0.0868	 0.2749	 0.2118	 0.2709	 0.4827	68.7212	99.9611	
    24	 0.0114	-0.0871	-0.0757	 0.3437	-0.0204	 0.3233	 0.4167	 0.1689	 0.5856	69.0553	99.9602	
    25	-0.3216	-0.2708	-0.5924	-0.0899	-0.2155	-0.3054	-0.0694	-0.2680	-0.3374	69.6092	99.9436	
    26	-1.0342	-0.4469	-1.4812	-0.8971	-0.4218	-1.3189	-1.0069	-0.2289	-1.2358	68.2580	99.9600	
    27	-0.9895	-0.2480	-1.2375	-0.6298	-0.0588	-0.6885	-0.5424	 0.0285	-0.5140	68.7275	99.9461	
    28	-0.7963	-0.1950	-0.9913	-0.5512	-0.0381	-0.5892	-0.5360	 0.0323	-0.5037	68.5854	99.9469	
    29	-0.5109	-0.1180	-0.6289	-0.3436	-0.1005	-0.4441	-0.4639	-0.1262	-0.5900	69.0443	99.9434	
    30	-0.6013	-0.2504	-0.8517	-0.4190	-0.1863	-0.6053	-0.3617	-0.1833	-0.5450	69.2209	99.9502	
    31	-0.4929	-0.2324	-0.7253	-0.3614	-0.1649	-0.5264	-0.3624	-0.1955	-0.5579	69.1526	99.9466	
    32	-0.5690	-0.2623	-0.8313	-0.3922	-0.2104	-0.6026	-0.4370	-0.2051	-0.6421	69.0747	99.9469	
    33	-0.6099	-0.2555	-0.8654	-0.4068	-0.2192	-0.6260	-0.4549	-0.1921	-0.6470	69.0729	99.9485	
    34	-0.6261	-0.2496	-0.8756	-0.4125	-0.1958	-0.6083	-0.4115	-0.1896	-0.6011	69.1854	99.9478	
    35	-0.6261	-0.2496	-0.8756	-0.4190	-0.1863	-0.6053	-0.4051	-0.1857	-0.5909	69.1844	99.9476	
    36	-0.6927	-0.2581	-0.9508	-0.4846	-0.2260	-0.7106	-0.5111	-0.2023	-0.7134	69.1123	99.9492	
    37	-0.9286	-0.3368	-1.2654	-0.7407	-0.2735	-1.0143	-0.7913	-0.1221	-0.9134	68.4438	99.9563	
    38	-0.9914	-0.2804	-1.2718	-0.7270	-0.1578	-0.8848	-0.6254	-0.0217	-0.6471	68.6582	99.9562	
    39	-0.7288	-0.1702	-0.8990	-0.4166	-0.0238	-0.4404	-0.1863	 0.1013	-0.0851	68.9833	99.9580	
    40	-0.6022	-0.1257	-0.7280	-0.3445	 0.0064	-0.3381	-0.1002	 0.0939	-0.0063	69.1030	99.9581	
    41	-0.5689	-0.1215	-0.6904	-0.3453	-0.0075	-0.3528	-0.1768	 0.0476	-0.1292	69.0777	99.9548	
    42	-0.8144	-0.2214	-1.0359	-0.5779	-0.1348	-0.7126	-0.5398	-0.0413	-0.5812	68.7834	99.9534	
    43	-0.8639	-0.2198	-1.0837	-0.6703	-0.1504	-0.8206	-0.6541	-0.0986	-0.7526	68.8334	99.9515	
    44	-0.8382	-0.2044	-1.0426	-0.5852	-0.1392	-0.7243	-0.4920	-0.0718	-0.5638	69.0540	99.9543	
    45	-0.6184	-0.1198	-0.7382	-0.2659	 0.0271	-0.2388	 0.0344	 0.1873	 0.2217	69.0822	99.9618	
    46	-0.1208	 0.0529	-0.0679	 0.2318	 0.1133	 0.3451	 0.2742	 0.6416	 0.9158	67.7699	99.9782	
    47	 0.1894	 0.2699	 0.4593	 0.4327	 0.3020	 0.7347	 0.3271	 0.9471	 1.2742	66.9676	99.9826	
    48	 0.5395	 0.4638	 1.0033	 0.7220	 0.5575	 1.2794	 0.7438	 1.1161	 1.8598	67.1919	99.9811	
    49	 1.1333	 0.7253	 1.8586	 0.9382	 1.0104	 1.9487	 1.5658	 0.8763	 2.4421	69.3233	99.9590	
    50	 1.6632	 0.8860	 2.5492	 1.1455	 1.5520	 2.6975	 2.0099	 1.0975	 3.1074	69.0829	99.9312	
    51	 1.9306	 1.2182	 3.1489	 1.5159	 1.7491	 3.2650	 2.1872	 1.2999	 3.4872	69.2024	99.9305	
    52	 2.1761	 1.4591	 3.6352	 1.6683	 1.5862	 3.2545	 1.9830	 1.2953	 3.2783	69.1012	99.9536	
    53	 1.9297	 1.4838	 3.4135	 1.3432	 1.8058	 3.1489	 1.7641	 1.2460	 3.0102	69.2646	99.9279	
    54	 1.5691	 1.3932	 2.9623	 0.4472	 2.6197	 3.0669	 1.6768	 1.1099	 2.7867	69.8300	99.8086	
    55	 1.7098	 0.9765	 2.6864	 0.4433	 2.3086	 2.7518	 1.6053	 1.0429	 2.6482	68.6715	99.8335	
    56	 1.5129	 0.9995	 2.5124	 0.9568	 1.2096	 2.1664	 1.1663	 0.9199	 2.0862	68.5876	99.9468	
    57	 1.2342	 1.0361	 2.2703	 0.7413	 1.0121	 1.7534	 0.1833	 1.3953	 1.5786	65.5654	99.9741	
    58	 1.1315	 1.2564	 2.3879	 0.6367	 1.0294	 1.6661	 0.3436	 1.2663	 1.6099	67.0350	99.9809	
    59	 1.1286	 1.3486	 2.4772	 0.6025	 1.2907	 1.8932	 0.6946	 1.1220	 1.8166	68.4488	99.9632	
    60	 1.0011	 1.2880	 2.2891	 0.8353	 1.0556	 1.8908	 0.6857	 1.0690	 1.7547	68.6391	99.9670	
    61	 0.9488	 1.1001	 2.0488	 0.6635	 0.7638	 1.4273	 0.2739	 1.4739	 1.7478	66.0829	99.9951	
    62	 0.9116	 0.7491	 1.6607	 0.3896	 0.6518	 1.0414	 0.1286	 0.9340	 1.0627	66.7573	99.9798	
    63	 0.3446	 0.8010	 1.1456	 0.1011	 0.6518	 0.7528	-0.0462	 0.8996	 0.8533	67.5032	99.9779	
    64	 0.3274	 0.7908	 1.1182	 0.2193	 0.8710	 1.0903	-0.2520	 1.7026	 1.4506	64.4482	99.9859	
    65	 0.7860	 1.0027	 1.7887	 0.4866	 1.3548	 1.8414	 0.4916	 1.2608	 1.7524	67.2140	99.9399	
    66	 0.6557	 1.1751	 1.8309	 0.1778	 1.2486	 1.4264	 0.0206	 1.4751	 1.4957	66.2009	99.9728	
    67	 0.0001	 0.7044	 0.7046	-0.1729	 0.6606	 0.4877	-0.3915	 0.9166	 0.5251	67.0303	99.9710	
    68	-0.4252	 0.4968	 0.0716	-0.3852	 0.5187	 0.1335	-0.3442	 0.7549	 0.4107	67.7610	99.9704	
    69	 0.1400	 0.6942	 0.8342	 0.0734	 0.9035	 0.9769	 0.2204	 1.3939	 1.6142	66.4297	99.9811	
    70	 0.7176	 1.2435	 1.9611	 0.8367	 1.4457	 2.2825	 1.0034	 1.2375	 2.2410	68.9677	99.9338	
    71	 1.0278	 1.4604	 2.4882	-0.2330	 2.9064	 2.6734	 1.0340	 1.3512	 2.3852	68.7576	99.7891	
    72	 0.8918	 1.6764	 2.5682	-0.0837	 2.6879	 2.6041	 0.9339	 1.3262	 2.2601	69.3920	99.8296	
    73	 0.8993	 1.2427	 2.1420	-0.1905	 2.0595	 1.8690	 0.2829	 1.4079	 1.6908	66.7526	99.9032	
    74	 0.3190	 1.2083	 1.5273	-0.2024	 1.4885	 1.2860	 0.1323	 1.3644	 1.4967	67.3719	99.9576	
    75	 0.2399	 0.8480	 1.0879	-0.0620	 0.9961	 0.9342	-0.8258	 2.0807	 1.2549	62.3121	99.9896	
    76	-0.6410	 1.0406	 0.3996	-0.8466	 0.9378	 0.0912	-0.9889	 1.0783	 0.0894	67.1153	99.9696	
    77	-0.4109	 0.7402	 0.3293	-1.0427	 0.9534	-0.0894	-1.2639	 1.1377	-0.1262	65.2397	99.9656	
    78	-0.3927	 0.9075	 0.5148	-1.3695	 1.2658	-0.1037	-1.2308	 1.3005	 0.0697	65.1612	99.9661	
    79	-0.6371	 1.5282	 0.8911	-1.0575	 1.3069	 0.2494	-1.5733	 2.4489	 0.8756	62.6026	99.9996	
    80	-0.2928	 0.9204	 0.6275	-0.7689	 1.1861	 0.4173	-1.5503	 2.4152	 0.8649	60.7192	99.9933	
    81	-0.2358	 0.6258	 0.3900	-0.9333	 0.8987	-0.0346	-0.9953	 1.1933	 0.1980	65.0487	99.9746	
    82	-0.7381	 0.7947	 0.0566	-1.2210	 0.7918	-0.4292	-1.2849	 0.8515	-0.4334	66.8028	99.9686	
    83	-0.9094	 0.6922	-0.2172	-1.3547	 0.7915	-0.5632	-1.3685	 0.9079	-0.4606	66.4407	99.9683	
    84	-0.9769	 0.9492	-0.0277	-1.0646	 0.9401	-0.1245	-1.3342	 1.4519	 0.1177	65.4516	99.9795	
    85	-0.5126	 1.1175	 0.6050	-0.9610	 1.3921	 0.4310	-1.0555	 1.7039	 0.6484	64.9005	99.9705	
    86	-0.5163	 1.4753	 0.9590	-0.9092	 1.4369	 0.5277	-1.4142	 1.9387	 0.5245	64.2852	99.9796	
    87	-0.8913	 1.0004	 0.1092	-1.3054	 1.0361	-0.2693	-1.6571	 1.1852	-0.4719	65.6780	99.9620	
    88	-1.8694	 0.3836	-1.4858	-2.1547	 0.5896	-1.5651	-2.0915	 0.7915	-1.3001	66.0421	99.9676	
    89	-2.1396	 0.5663	-1.5733	-1.9707	 0.7277	-1.2430	-2.0508	 1.1015	-0.9493	65.9650	99.9655	
    90	-1.5506	 0.7466	-0.8040	-1.5697	 1.2119	-0.3578	-1.4531	 1.9032	 0.4501	64.1230	99.9802	
    91	-0.9217	 1.1857	 0.2640	-1.0065	 1.5794	 0.5728	-0.8302	 1.7570	 0.9268	65.9678	99.9579	
    92	-0.7732	 1.7442	 0.9711	-0.9369	 1.8094	 0.8725	-0.7613	 1.7749	 1.0136	67.2183	99.9608	
    93	-1.2945	 1.8704	 0.5759	-1.3664	 1.6838	 0.3174	-1.4256	 1.8366	 0.4110	66.7941	99.9732	
    94	-1.5106	 1.2871	-0.2234	-1.7693	 1.6550	-0.1143	-1.8405	 1.9423	 0.1018	64.4695	99.9617	
    95	-1.7941	 1.2426	-0.5515	-2.0172	 1.3842	-0.6330	-2.9084	 2.5684	-0.3399	60.5035	99.9887	
    96	-2.1985	 1.1102	-1.0883	-2.5991	 1.3007	-1.2984	-2.6897	 1.5353	-1.1544	64.6785	99.9681	
    97	-2.3117	 1.1520	-1.1597	-2.7881	 1.5623	-1.2258	-3.0096	 1.8056	-1.2040	63.3903	99.9564	
    98	-2.3487	 1.5055	-0.8433	-2.5150	 1.6604	-0.8546	-3.4547	 2.7610	-0.6937	60.2369	99.9829	
    99	-2.2146	 1.5388	-0.6758	-2.5458	 1.7357	-0.8101	-3.4024	 2.8164	-0.5859	60.0315	99.9863	
   100	-2.1375	 1.5849	-0.5525	-2.7096	 1.8246	-0.8850	-2.8120	 2.5197	-0.2923	62.2733	99.9891	
   101	-2.0129	 1.1743	-0.8387	-2.9794	 1.6614	-1.3180	-3.3321	 2.6211	-0.7110	59.5859	99.9917	
   102	-2.4315	 1.2211	-1.2104	-3.1779	 1.3937	-1.7842	-3.2124	 1.5876	-1.6248	64.0500	99.9738	
   103	-2.6133	 1.0810	-1.5323	-3.0992	 1.2936	-1.8057	-3.3126	 1.5627	-1.7499	63.8547	99.9672	
   104	-2.4268	 0.8795	-1.5473	-2.7734	 1.3296	-1.4439	-3.1885	 2.4108	-0.7777	60.5566	99.9894	
   105	-1.7627	 1.3554	-0.4073	-2.0076	 1.7927	-0.2149	-2.0626	 2.0695	 0.0069	64.1561	99.9580	
   106	-1.3735	 1.6509	 0.2774	-2.0491	 2.0496	 0.0005	-2.3811	 2.1265	-0.2546	63.4198	99.9465	
   107	-1.9473	 1.1666	-0.7807	-2.8610	 1.5182	-1.3428	-3.3037	 1.7345	-1.5692	62.4255	99.9601	
   108	-3.1889	 0.7051	-2.4838	-3.4436	 1.0584	-2.3852	-3.4963	 1.3564	-2.1400	64.1191	99.9627	
   109	-3.6865	 0.9551	-2.7314	-3.5466	 1.2243	-2.3223	-3.8347	 1.8651	-1.9697	63.1461	99.9699	
   110	-3.2288	 1.4326	-1.7962	-3.2235	 1.8225	-1.4009	-3.2613	 2.7948	-0.4666	61.8145	99.9893	
   111	-2.3154	 1.6506	-0.6648	-2.5541	 2.2005	-0.3536	-2.3857	 2.5161	 0.1304	63.6274	99.9624	
   112	-2.1631	 2.1331	-0.0300	-2.4319	 2.6101	 0.1782	-2.2326	 2.6088	 0.3762	64.5938	99.9461	
   113	-2.3971	 2.3687	-0.0284	-2.6280	 2.5049	-0.1231	-2.4980	 2.4957	-0.0023	65.3695	99.9587	
   114	-2.8043	 2.1876	-0.6167	-3.1006	 2.6083	-0.4922	-3.1037	 2.7356	-0.3681	63.5061	99.9513	
   115	-2.9556	 2.0031	-0.9525	-3.3997	 2.6691	-0.7306	-3.2780	 2.8323	-0.4456	62.6082	99.9497	
   116	-3.1764	 1.7613	-1.4150	-3.7108	 2.4003	-1.3105	-3.7636	 2.7643	-0.9992	61.5446	99.9606	
   117	-3.7301	 1.8995	-1.8306	-4.1331	 2.2792	-1.8539	-4.5551	 3.2367	-1.3184	59.5313	99.9874	
   118	-3.9935	 2.1957	-1.7978	-4.3447	 2.3928	-1.9518	-5.2598	 3.7139	-1.5458	57.5613	99.9927	
   119	-3.8908	 2.3981	-1.4926	-4.4275	 2.6650	-1.7625	-4.6571	 3.0560	-1.6011	61.3835	99.9722	
   120	-3.7518	 2.5126	-1.2393	-4.4648	 2.8706	-1.5943	-4.1523	 3.0166	-1.1357	62.6762	99.9709	
   121	-3.6453	 2.3572	-1.2881	-4.3432	 2.7830	-1.5602	-4.3540	 3.0611	-1.2929	61.5286	99.9684	
   122	-3.9117	 2.4638	-1.4478	-4.5336	 2.6544	-1.8792	-4.5780	 3.0325	-1.5454	61.8351	99.9796	
   123	-4.1020	 2.0368	-2.0652	-4.7549	 2.4804	-2.2745	-5.6919	 3.9638	-1.7281	55.5570	99.9954	
   124	-4.2400	 1.7977	-2.4423	-4.6721	 2.2083	-2.4638	-5.8341	 3.7231	-2.1110	55.6474	99.9899	
   125	-3.7976	 1.7338	-2.0638	-4.3074	 2.4288	-1.8786	-4.4950	 3.0827	-1.4123	59.8698	99.9707	
   126	-3.0345	 2.2063	-0.8283	-3.6835	 2.9941	-0.6894	-3.8173	 3.1599	-0.6574	61.0072	99.9393	
   127	-2.7663	 2.1321	-0.6342	-3.7103	 3.0182	-0.6921	-3.9009	 3.0974	-0.8035	60.3907	99.9326	
   128	-3.4341	 2.1549	-1.2792	-3.8114	 2.6080	-1.2034	-4.5116	 3.1202	-1.3914	60.1260	99.9517	
   129	-3.9108	 2.0574	-1.8534	-4.3723	 2.5238	-1.8485	-4.6641	 3.0398	-1.6243	60.6097	99.9681	
   130	-4.0944	 1.8849	-2.2096	-4.5887	 2.5540	-2.0347	-4.9871	 3.1298	-1.8573	59.4783	99.9603	
   131	-4.2371	 1.9873	-2.2499	-4.6901	 2.6269	-2.0631	-5.0886	 3.1992	-1.8894	59.5184	99.9603	
   132	-4.3085	 2.0385	-2.2700	-4.6025	 2.5591	-2.0434	-5.1128	 3.2083	-1.9045	59.6810	99.9626	
   133	-4.3247	 1.9036	-2.4211	-4.8084	 2.5285	-2.2798	-5.0662	 3.1533	-1.9130	59.6617	99.9692	
   134	-4.3095	 1.5996	-2.7099	-4.5675	 2.3117	-2.2558	-5.1856	 3.3545	-1.8311	57.9903	99.9729	
   135	-4.4380	 1.5227	-2.9153	-4.6526	 2.1798	-2.4728	-5.8694	 4.1180	-1.7514	54.0597	99.9918	
   136	-4.6663	 1.5739	-3.0924	-4.8455	 2.1302	-2.7153	-5.2793	 3.0956	-2.1837	59.1444	99.9783	
   137	-4.7234	 1.3049	-3.4186	-4.9281	 2.0400	-2.8882	-5.4535	 2.9545	-2.4990	58.6439	99.9666	
   138	-5.0954	 1.5831	-3.5123	-5.2321	 2.1380	-3.0941	-6.1309	 3.7219	-2.4090	55.9729	99.9898	
   139	-5.1686	 1.7428	-3.4258	-5.2387	 2.3891	-2.8496	-6.1002	 3.7166	-2.3836	56.5690	99.9772	
   140	-5.2704	 1.8384	-3.4320	-5.3782	 2.5329	-2.8453	-5.9496	 3.6413	-2.3083	57.5620	99.9749	
   141	-5.3179	 1.8725	-3.4454	-5.4398	 2.5628	-2.8770	-5.9400	 3.5876	-2.3524	57.9162	99.9733	
   142	-5.3902	 1.9075	-3.4828	-5.6871	 2.6683	-3.0188	-6.1392	 3.6812	-2.4580	57.3702	99.9752	
   143	-5.2523	 1.7240	-3.5284	-5.2922	 2.4373	-2.8550	-6.0760	 3.8264	-2.2496	56.3894	99.9795	
   144	-4.8680	 1.3748	-3.4932	-5.2581	 2.1760	-3.0821	-5.5594	 2.9380	-2.6215	58.8714	99.9665	
   145	-4.6511	 1.6926	-2.9585	-4.4881	 2.3464	-2.1418	-4.5729	 3.0118	-1.5610	61.2330	99.9615	
   146	-4.1554	 1.6919	-2.4635	-4.2564	 2.4597	-1.7967	-4.3450	 2.9951	-1.3499	60.9715	99.9544	
   147	-4.2296	 1.6944	-2.5352	-4.1817	 2.2900	-1.8917	-4.5684	 2.9789	-1.5895	60.6627	99.9575	
   148	-4.2610	 1.4408	-2.8202	-4.3925	 2.2968	-2.0956	-4.6967	 3.0083	-1.6884	59.7262	99.9548	
   149	-4.5550	 1.6405	-2.9145	-4.4419	 2.1730	-2.2689	-5.2437	 3.4264	-1.8174	58.1525	99.9754	
   150	-4.6377	 1.6379	-2.9998	-4.6551	 2.2588	-2.3963	-5.1754	 3.3131	-1.8623	58.7984	99.9745	
   151	-4.5711	 1.6465	-2.9247	-4.6154	 2.3365	-2.2789	-4.9564	 3.1246	-1.8319	59.7929	99.9636	
   152	-4.6292	 1.7839	-2.8452	-4.5149	 2.3704	-2.1444	-4.9079	 3.1063	-1.8016	60.3865	99.9588	
   153	-4.7043	 1.9111	-2.7932	-4.6430	 2.4675	-2.1755	-4.8007	 3.1474	-1.6533	60.9225	99.9665	
   154	-4.7375	 2.3295	-2.4080	-5.2709	 3.7792	-1.4917	-4.4870	 3.8368	-0.6502	60.4892	99.9248	
   155	-4.2094	 2.5987	-1.6108	-4.1231	 3.6679	-0.4552	-4.4405	 4.1384	-0.3021	59.4254	99.9168	
   156	-4.3864	 2.6806	-1.7058	-4.7196	 3.5756	-1.1440	-4.7690	 3.7612	-1.0078	60.3756	99.9290	
   157	-4.8192	 2.7658	-2.0534	-4.8024	 3.8477	-0.9547	-4.4979	 3.9848	-0.5131	61.1700	99.9189	
   158	-4.6823	 2.4252	-2.2571	-5.2117	 3.7076	-1.5041	-4.9955	 3.5647	-1.4308	60.3738	99.8914	
   159	-5.0905	 2.2278	-2.8627	-4.9107	 2.9499	-1.9607	-5.0262	 3.5699	-1.4562	60.4882	99.9538	
   160	-5.0020	 2.3277	-2.6743	-4.9553	 3.0304	-1.9249	-4.8557	 3.5185	-1.3373	61.1159	99.9572	
   161	-4.9535	 2.1689	-2.7846	-5.0274	 3.0002	-2.0272	-4.8928	 3.5198	-1.3729	60.5714	99.9574	
   162	-4.8803	 2.1502	-2.7301	-4.8653	 3.0042	-1.8611	-4.8296	 3.5462	-1.2834	60.4615	99.9523	
   163	-4.8517	 2.2142	-2.6375	-4.8572	 3.0226	-1.8346	-4.7422	 3.5634	-1.1787	60.7036	99.9577	
   164	-4.7946	 2.2014	-2.5932	-4.8937	 3.1213	-1.7724	-4.7881	 3.6307	-1.1574	60.2687	99.9523	
   165	-4.7680	 2.2330	-2.5350	-5.0470	 3.2702	-1.7767	-4.6688	 3.6673	-1.0015	60.4456	99.9523	
   166	-4.8003	 2.3859	-2.4144	-4.7998	 3.2855	-1.5142	-4.6771	 3.7455	-0.9317	60.5990	99.9480	
   167	-4.6623	 2.3432	-2.3191	-4.7350	 3.4321	-1.3029	-4.5936	 3.8080	-0.7856	60.2590	99.9344	
   168	-4.6604	 2.5165	-2.1439	-5.1225	 3.7883	-1.3342	-4.4078	 3.8133	-0.5945	61.0510	99.9280	
   169	-4.4711	 2.3638	-2.1074	-5.3012	 4.5931	-0.7081	-4.4289	 3.8838	-0.5451	60.1171	99.7960	
   170	-4.4445	 2.3954	-2.0491	-5.5712	 4.9131	-0.6581	-4.4813	 3.9473	-0.5340	59.8370	99.7582	
   171	-4.4102	 2.4159	-1.9943	-5.5404	 4.8378	-0.7026	-4.3505	 3.9670	-0.3835	60.0529	99.7880	
   172	-4.3484	 2.4842	-1.8642	-5.2550	 4.5405	-0.7144	-4.2082	 3.9699	-0.2383	60.4122	99.8425	
   173	-4.3740	 2.6097	-1.7643	-4.8674	 4.3051	-0.5623	-4.1214	 3.9748	-0.1466	60.9206	99.8687	
   174	-4.2751	 2.4654	-1.8097	-4.5148	 4.0754	-0.4393	-4.2120	 4.0151	-0.1969	60.1008	99.8720	
   175	-4.2665	 2.4706	-1.7960	-5.0182	 4.2542	-0.7640	-4.2899	 4.0631	-0.2268	59.7812	99.8850	
   176	-4.3322	 2.6191	-1.7130	-4.3729	 3.9733	-0.3996	-4.1852	 4.0551	-0.1301	60.4892	99.8920	
   177	-4.2836	 2.6012	-1.6824	-4.4190	 3.9051	-0.5140	-4.0142	 4.0159	 0.0017	60.8567	99.9127	
   178	-4.1990	 2.4953	-1.7036	-4.4709	 3.8603	-0.6106	-3.9905	 3.9945	 0.0040	60.5883	99.9185	
   179	-4.0849	 2.3289	-1.7560	-4.7457	 3.9760	-0.7697	-4.0697	 4.0180	-0.0517	59.7700	99.9118	
   180	-4.4301	 2.7796	-1.6505	-4.7076	 4.0259	-0.6818	-3.9369	 3.9556	 0.0187	61.8620	99.9193	
   181	-4.1762	 2.4621	-1.7141	-4.5877	 4.0313	-0.5564	-4.0454	 4.0089	-0.0366	60.3111	99.8978	
   182	-4.2874	 2.6772	-1.6102	-4.4328	 3.9102	-0.5226	-3.8272	 3.9269	 0.0998	61.7141	99.9176	
   183	-4.2199	 2.5611	-1.6588	-4.4231	 3.9563	-0.4668	-3.8227	 3.8940	 0.0713	61.4449	99.9015	
   184	-4.1847	 2.4569	-1.7278	-5.0409	 4.3478	-0.6931	-3.9388	 3.9188	-0.0200	60.8199	99.8722	
   185	-4.0240	 2.2401	-1.7839	-4.4183	 4.0398	-0.3785	-3.9018	 3.9174	 0.0156	60.1357	99.8690	
   186	-4.0126	 2.2939	-1.7187	-4.2440	 3.8902	-0.3538	-3.7550	 3.8873	 0.1323	60.6501	99.8895	
   187	-3.9393	 2.2751	-1.6642	-4.2512	 3.8857	-0.3655	-3.7059	 3.8814	 0.1755	60.6119	99.8940	
   188	-3.9992	 2.3801	-1.6191	-4.4385	 3.9336	-0.5049	-3.6880	 3.8684	 0.1804	61.0319	99.9049	
   189	-4.0230	 2.3972	-1.6258	-4.5942	 4.0408	-0.5534	-3.6944	 3.8646	 0.1702	61.1082	99.8983	
   190	-3.9697	 2.3195	-1.6502	-4.3729	 3.9733	-0.3996	-3.4276	 3.7644	 0.3368	61.7109	99.8918	
   191	-3.8974	 2.2845	-1.6129	-4.3688	 3.9220	-0.4467	-3.5789	 3.8275	 0.2486	61.0030	99.8993	
   192	-3.9574	 2.3895	-1.5678	-4.2797	 4.0028	-0.2769	-3.7020	 3.8362	 0.1341	61.0577	99.8785	
   193	-3.9288	 2.3127	-1.6161	-4.5083	 4.1867	-0.3216	-3.2986	 3.6284	 0.3298	62.3195	99.8560	
   194	-3.9935	 2.3366	-1.6569	-4.7678	 4.4459	-0.3219	-3.5424	 3.6949	 0.1525	61.7644	99.8208	
   195	-4.0002	 2.3639	-1.6363	-4.6794	 4.3920	-0.2875	-3.7071	 3.7380	 0.0308	61.3597	99.8221	
   196	-3.8137	 2.1625	-1.6513	-4.7200	 4.4211	-0.2988	-3.5386	 3.6497	 0.1111	61.2183	99.8077	
   197	-3.9070	 2.2632	-1.6438	-4.8270	 4.5175	-0.3095	-3.6241	 3.6693	 0.0451	61.3626	99.7992	
   198	-3.7909	 2.1292	-1.6617	-4.7970	 4.5490	-0.2480	-3.4301	 3.5964	 0.1663	61.4973	99.7831	
   199	-3.8128	 2.1787	-1.6341	-4.9121	 4.5063	-0.4058	-3.4965	 3.6276	 0.1311	61.4124	99.8073	
   200	-3.6549	 2.0541	-1.6008	-4.4289	 4.3421	-0.0868	-3.2584	 3.5695	 0.3111	61.5493	99.7996	
   201	-3.8032	 2.3409	-1.4623	-4.3170	 4.2084	-0.1086	-3.1742	 3.5254	 0.3512	62.7692	99.8356	
   202	-3.7034	 2.2129	-1.4905	-4.3989	 4.2529	-0.1461	-3.3810	 3.5905	 0.2095	61.6786	99.8235	
   203	-3.6967	 2.1856	-1.5112	-4.4833	 4.3764	-0.1069	-3.5035	 3.6115	 0.1080	61.2800	99.7976	
   204	-3.6206	 2.0746	-1.5460	-4.5676	 4.4999	-0.0677	-3.2067	 3.4938	 0.2871	61.8866	99.7722	
   205	-3.6701	 2.2172	-1.4529	-4.1039	 4.2434	 0.1395	-3.1767	 3.4763	 0.2996	62.4178	99.7938	
   206	-3.5930	 2.1224	-1.4706	-4.3082	 4.3614	 0.0533	-2.9048	 3.3554	 0.4506	63.0089	99.7828	
   207	-3.6539	 2.2112	-1.4427	-4.4257	 4.3977	-0.0280	-3.0695	 3.3985	 0.3290	62.8423	99.7877	
   208	-3.6149	 2.1719	-1.4430	-4.4103	 4.4205	 0.0101	-3.0695	 3.3985	 0.3290	62.6889	99.7787	
   209	-3.4874	 2.0917	-1.3957	-4.3301	 4.3482	 0.0182	-3.0733	 3.4437	 0.3704	62.1521	99.7918	
   210	-3.4741	 2.1779	-1.2961	-4.1833	 4.3295	 0.1462	-2.7031	 3.3110	 0.6079	63.5068	99.7935	
   211	-3.2772	 1.8732	-1.4040	-4.0244	 4.2780	 0.2535	-2.8161	 3.2783	 0.4623	62.3552	99.7567	
   212	-3.4655	 2.0422	-1.4234	-3.6058	 3.3633	-0.2426	-3.0126	 3.3021	 0.2894	62.5682	99.9043	
   213	-3.5369	 2.0934	-1.4435	-3.6374	 3.1831	-0.4543	-2.6450	 3.1202	 0.4753	64.1141	99.9326	
   214	-3.4579	 2.0311	-1.4269	-3.1712	 2.9683	-0.2029	-2.6826	 3.1093	 0.4267	63.8056	99.9285	
   215	-3.3286	 1.8424	-1.4862	-3.1371	 2.8279	-0.3093	-2.6488	 3.0466	 0.3978	63.4253	99.9350	
   216	-3.2915	 1.7707	-1.5208	-3.1160	 2.7064	-0.4096	-2.7005	 3.0034	 0.3030	63.2286	99.9413	
   217	-3.3381	 1.8211	-1.5170	-2.8436	 2.5490	-0.2946	-2.6175	 2.9347	 0.3173	63.8028	99.9424	
   218	-3.2211	 1.7033	-1.5178	-3.1257	 2.6603	-0.4655	-2.5996	 2.9218	 0.3222	63.4213	99.9437	
   219	-3.0784	 1.6008	-1.4776	-2.7487	 2.4855	-0.2632	-2.3883	 2.8237	 0.4353	63.6947	99.9408	
   220	-3.0641	 1.5624	-1.5017	-2.9943	 2.4981	-0.4963	-2.4043	 2.7546	 0.3503	63.7663	99.9472	
   221	-3.0271	 1.4907	-1.5363	-2.8379	 2.4048	-0.4331	-2.3685	 2.7286	 0.3601	63.6925	99.9461	
   222	-3.0794	 1.5846	-1.4947	-2.7973	 2.3756	-0.4217	-2.2964	 2.6891	 0.3927	64.2640	99.9503	
   223	-2.9823	 1.5488	-1.4335	-2.6214	 2.2538	-0.3676	-2.1151	 2.6085	 0.4934	64.6467	99.9555	
   224	-2.8815	 1.4370	-1.4445	-2.5622	 2.1822	-0.3800	-2.0564	 2.5489	 0.4925	64.5332	99.9554	
   225	-2.8121	 1.3533	-1.4588	-2.7268	 2.2572	-0.4696	-2.1419	 2.5685	 0.4266	63.9980	99.9521	
   226	-2.9623	 1.6077	-1.3546	-2.5695	 2.1778	-0.3917	-2.1119	 2.5510	 0.4391	64.9462	99.9604	
   227	-2.8159	 1.4293	-1.3866	-2.3968	 2.1211	-0.2757	-1.9051	 2.4859	 0.5807	64.9140	99.9550	
   228	-2.7188	 1.3935	-1.3253	-2.3701	 2.0971	-0.2730	-1.7239	 2.4053	 0.6814	65.2937	99.9574	
   229	-2.7521	 1.3892	-1.3629	-2.2339	 2.0183	-0.2155	-1.9619	 2.4634	 0.5015	64.6828	99.9530	
   230	-2.7160	 1.3013	-1.4147	-2.1803	 1.9702	-0.2102	-1.8719	 2.4108	 0.5389	64.7618	99.9518	
   231	-2.6808	 1.1971	-1.4837	-2.1300	 1.8663	-0.2637	-1.5470	 2.2388	 0.6918	65.6349	99.9566	
   232	-2.5057	 1.3645	-1.1412	-1.8853	 1.9607	 0.0754	-1.1143	 2.1202	 1.0059	66.9824	99.9505	
   233	-1.9530	 1.2101	-0.7428	-1.4403	 1.8674	 0.4271	-0.7448	 2.0941	 1.3493	66.6082	99.9524	
   234	-1.5543	 1.3862	-0.1681	-1.4446	 2.6434	 1.1987	-0.3869	 2.4415	 2.0546	66.0484	99.9094	
   235	-1.1042	 1.8747	 0.7705	-0.7256	 2.5413	 1.8156	-0.3871	 3.0359	 2.6488	64.7057	99.9612	
   236	-0.9595	 2.2274	 1.2679	-0.6778	 2.6373	 1.9594	-0.6577	 3.1813	 2.5236	64.3435	99.9668	
   237	-0.9709	 2.3145	 1.3436	-1.2210	 2.7384	 1.5174	-0.6462	 3.0456	 2.3994	65.0204	99.9765	
   238	-1.0261	 2.3598	 1.3337	-1.0563	 2.5426	 1.4863	-0.7980	 2.8586	 2.0606	65.5090	99.9757	
   239	-1.2592	 2.3298	 1.0706	-1.3757	 2.6179	 1.2422	-1.0704	 2.6105	 1.5400	66.0452	99.9555	
   240	-1.0710	 1.5972	 0.5263	-1.9790	 3.2598	 1.2808	-1.3576	 2.5556	 1.1980	63.5631	99.8353	
   241	-1.2736	 1.5229	 0.2493	-1.9522	 2.9942	 1.0420	-1.2325	 2.4648	 1.2324	64.2383	99.8689	
   242	-1.5819	 1.4792	-0.1027	-1.5895	 2.0859	 0.4964	-1.4692	 2.3097	 0.8405	64.6180	99.9468	
   243	-1.9891	 1.1572	-0.8320	-1.9622	 1.7262	-0.2360	-1.6006	 2.0399	 0.4394	65.0479	99.9618	
   244	-2.1328	 1.3843	-0.7485	-1.9128	 1.8501	-0.0627	-1.3236	 2.0173	 0.6937	66.4275	99.9600	
   245	-1.6247	 1.3127	-0.3120	-1.4119	 1.8711	 0.4592	-1.0147	 2.0139	 0.9992	66.1228	99.9480	
   246	-1.5258	 1.3093	-0.2165	-1.5327	 1.9726	 0.4399	-1.0632	 2.0322	 0.9689	65.8167	99.9447	
   247	-1.5077	 1.4767	-0.0310	-1.6195	 2.0543	 0.4349	-0.9834	 2.0210	 1.0375	66.3909	99.9501	
   248	-1.5010	 1.4494	-0.0516	-1.3859	 1.8331	 0.4472	-1.0319	 1.9203	 0.8884	66.5456	99.9535	
   249	-1.9158	 1.4202	-0.4956	-1.8827	 1.6400	-0.2427	-1.6643	 1.8824	 0.2181	65.9670	99.9678	
   250	-2.1195	 1.1887	-0.9307	-2.0335	 1.5891	-0.4443	-1.8175	 1.9086	 0.0911	65.3102	99.9637	
   251	-2.0538	 1.4629	-0.5909	-2.1357	 1.7690	-0.3667	-1.6458	 1.8817	 0.2359	66.3163	99.9663	
   252	-2.1965	 1.4244	-0.7721	-2.2856	 1.7320	-0.5536	-2.0594	 2.0120	-0.0474	65.1866	99.9689	
   253	-2.2165	 1.3655	-0.8510	-2.3675	 1.7764	-0.5911	-2.1200	 2.0347	-0.0853	64.8748	99.9652	
   254	-2.3230	 1.5208	-0.8022	-2.4356	 1.8158	-0.6198	-2.3575	 2.1051	-0.2524	64.7095	99.9662	
   255	-2.1632	 1.4287	-0.7345	-2.1244	 1.8429	-0.2814	-2.0211	 2.0351	 0.0140	65.1485	99.9519	
   256	-2.2697	 1.7249	-0.5448	-2.2192	 1.9064	-0.3128	-2.1450	 2.1504	 0.0055	65.4182	99.9647	
   257	-2.2393	 1.6805	-0.5587	-2.3684	 2.0041	-0.3643	-1.9675	 2.1151	 0.1476	65.7333	99.9639	
   258	-2.1403	 1.5363	-0.6041	-2.4495	 2.0624	-0.3870	-2.2024	 2.2346	 0.0322	64.3627	99.9582	
   259	-2.2307	 1.6857	-0.5450	-2.4049	 2.1028	-0.3021	-2.1775	 2.2378	 0.0602	64.9107	99.9572	
   260	-2.2021	 1.7497	-0.4524	-2.4617	 2.2161	-0.2456	-2.1259	 2.2809	 0.1551	64.9899	99.9555	
   261	-2.2231	 1.8155	-0.4076	-2.4398	 2.2294	-0.2104	-2.0882	 2.2918	 0.2036	65.2250	99.9574	
   262	-2.1641	 1.6942	-0.4699	-2.5703	 2.2847	-0.2857	-2.3250	 2.3744	 0.0494	64.0827	99.9517	
   263	-2.2402	 1.8052	-0.4350	-2.5274	 2.2972	-0.2301	-2.4035	 2.4102	 0.0067	64.1966	99.9513	
   264	-2.1565	 1.6831	-0.4734	-2.3142	 2.2114	-0.1028	-2.1099	 2.3500	 0.2401	64.5640	99.9511	
   265	-2.2497	 1.9247	-0.3249	-2.2542	 2.2745	 0.0203	-2.0774	 2.3816	 0.3042	65.2651	99.9529	
   266	-2.3010	 2.0349	-0.2662	-2.4131	 2.3261	-0.0870	-1.9568	 2.3238	 0.3670	66.0447	99.9596	
   267	-2.4742	 1.8999	-0.5743	-2.4195	 2.0940	-0.3255	-2.2229	 2.3173	 0.0945	65.4597	99.9666	
   268	-2.5304	 1.6471	-0.8833	-2.5711	 2.0292	-0.5419	-2.2241	 2.2928	 0.0686	64.9981	99.9673	
   269	-2.2773	 1.7360	-0.5413	-2.2591	 2.1910	-0.0680	-1.6153	 2.2332	 0.6178	66.2378	99.9581	
   270	-1.6342	 1.5731	-0.0611	-2.1337	 3.0186	 0.8848	-1.0557	 2.2984	 1.2427	65.7801	99.8609	
   271	-1.5923	 2.0052	 0.4130	-2.0763	 3.2816	 1.2052	-0.9753	 2.5372	 1.5619	66.1609	99.8717	
   272	-1.4895	 1.9258	 0.4363	-2.1987	 3.3552	 1.1564	-1.0825	 2.4961	 1.4136	65.7396	99.8548	
   273	-1.6931	 1.8353	 0.1421	-2.4735	 3.4709	 0.9973	-1.2893	 2.5613	 1.2719	65.2045	99.8381	
   274	-1.8539	 2.0521	 0.1982	-2.4971	 3.5506	 1.0535	-1.4578	 2.6495	 1.1917	65.3549	99.8376	
   275	-1.4115	 1.8473	 0.4358	-1.7397	 2.7736	 1.0339	-1.0781	 2.5821	 1.5040	65.1666	99.9258	
   276	-1.5114	 2.1163	 0.6049	-1.4909	 2.6960	 1.2051	-1.0423	 2.5561	 1.5138	66.1228	99.9322	
   277	-1.4334	 1.8968	 0.4634	-1.6903	 2.8975	 1.2072	-1.0653	 2.4709	 1.4056	65.7009	99.8952	
   278	-1.5400	 1.7704	 0.2304	-2.2458	 3.3939	 1.1481	-1.1610	 2.4130	 1.2520	65.5478	99.8215	
   279	-1.6599	 1.6987	 0.0388	-2.7549	 3.7168	 0.9619	-1.2561	 2.3673	 1.1113	65.5094	99.7733	
   280	-1.8692	 1.7925	-0.0766	-2.8279	 3.9143	 1.0864	-1.4775	 2.3879	 0.9104	65.5458	99.7185	
   281	-1.9728	 1.8557	-0.1172	-2.3315	 2.8856	 0.5541	-1.5120	 2.3195	 0.8075	66.0072	99.8905	
   282	-1.9443	 1.7788	-0.1655	-2.5820	 3.0562	 0.4742	-1.4437	 2.3251	 0.8815	65.8924	99.8786	
   283	-1.6123	 1.8054	 0.1931	-2.5489	 3.5058	 0.9569	-1.2420	 2.3996	 1.1576	65.6235	99.8190	
   284	-1.6902	 2.3066	 0.6164	-2.1063	 3.2500	 1.1437	-1.1457	 2.4698	 1.3241	66.9311	99.8827	
   285	-1.3211	 2.1206	 0.7995	-1.6531	 2.9335	 1.2804	-0.6696	 2.4725	 1.8029	66.8469	99.9212	
   286	-1.0632	 2.2906	 1.2274	-0.8439	 2.4429	 1.5989	-0.1770	 2.6755	 2.4985	67.1775	99.9777	
   287	-0.6190	 1.9774	 1.3584	-0.8520	 2.4245	 1.5725	-0.3837	 2.5029	 2.1191	65.9314	99.9613	
   288	-0.9776	 2.3419	 1.3643	-0.6939	 2.3591	 1.6651	-0.3225	 2.4924	 2.1699	67.4954	99.9696	
   289	-1.0033	 2.1856	 1.1823	-0.7928	 2.3530	 1.5601	-0.6313	 2.4957	 1.8644	66.5450	99.9588	
   290	-0.9977	 1.8603	 0.8626	-1.0174	 2.4856	 1.4682	-0.8126	 2.4574	 1.6448	65.5079	99.9300	
   291	-1.1822	 1.8124	 0.6301	-1.5411	 2.7998	 1.2586	-0.9606	 2.4629	 1.5023	65.3547	99.9063	
   292	-1.4267	 2.0104	 0.5837	-1.5647	 2.8795	 1.3148	-0.9230	 2.4738	 1.5508	66.2376	99.9033	
   293	-1.3564	 1.6612	 0.3048	-1.9903	 3.1859	 1.1955	-1.0532	 2.4664	 1.4132	65.0519	99.8524	
   294	-1.7987	 2.0069	 0.2082	-2.3058	 3.4515	 1.1458	-1.1642	 2.4705	 1.3063	66.3139	99.8325	
   295	-1.7474	 1.8967	 0.1494	-2.2417	 3.3426	 1.1009	-1.2727	 2.5237	 1.2510	65.5871	99.8429	
   296	-1.7122	 1.7926	 0.0804	-2.3398	 3.4712	 1.1314	-1.0640	 2.3766	 1.3126	66.1609	99.8096	
   297	-1.7246	 1.7225	-0.0020	-2.6609	 3.6395	 0.9786	-1.1501	 2.3839	 1.2337	65.8177	99.7912	
   298	-1.6751	 1.7209	 0.0458	-2.4484	 3.5397	 1.0913	-1.2535	 2.4164	 1.1629	65.4336	99.7936	
   299	-1.8682	 1.9496	 0.0815	-2.6293	 3.6989	 1.0696	-1.2069	 2.3614	 1.1545	66.5436	99.7823	
   300	-1.9205	 1.7618	-0.1588	-2.4971	 3.5506	 1.0535	-1.2752	 2.3558	 1.0805	66.0465	99.7792	
   301	-1.9044	 1.7558	-0.1486	-2.4493	 3.5258	 1.0766	-1.2625	 2.4824	 1.2199	65.6282	99.7999	
   302	-1.7359	 1.9505	 0.2146	-2.0025	 3.0980	 1.0955	-1.1470	 2.5641	 1.4171	65.8179	99.8852	
   303	-1.5399	 2.1931	 0.6532	-1.4308	 2.6383	 1.2074	-0.9230	 2.5927	 1.6697	66.4663	99.9468	
   304	-1.2117	 2.1548	 0.9431	-0.9574	 2.4279	 1.4705	-0.7073	 2.5805	 1.8732	66.3519	99.9566	
   305	-1.0176	 1.9422	 0.9246	-1.1212	 2.5168	 1.3956	-0.6684	 2.6160	 1.9476	65.5126	99.9539	
   306	-0.9634	 1.8808	 0.9174	-1.0117	 2.4622	 1.4505	-0.4922	 2.5561	 2.0639	65.8190	99.9541	
   307	-1.2535	 2.2863	 1.0328	-1.0409	 2.4446	 1.4037	-0.4374	 2.5417	 2.1044	67.3746	99.9694	
   308	-1.2174	 2.1983	 0.9810	-1.0895	 2.4554	 1.3659	-0.4137	 2.5204	 2.1066	67.2218	99.9670	
   309	-0.9948	 1.9089	 0.9141	-0.8488	 2.3594	 1.5106	-0.3161	 2.4962	 2.1801	66.4631	99.9592	
   310	-0.5030	 1.4207	 0.9177	-0.6956	 2.3312	 1.6357	-0.1508	 2.4655	 2.3147	64.9902	99.9453	
   311	-0.7712	 1.9175	 1.1463	-0.7118	 2.2946	 1.5828	-0.0550	 2.4045	 2.3494	66.9540	99.9657	
   312	-0.7027	 1.8177	 1.1149	-0.4337	 2.2346	 1.8008	-0.0148	 2.3456	 2.3308	66.8784	99.9527	
   313	-0.7665	 1.8578	 1.0913	-0.5488	 2.3126	 1.7637	 0.0497	 2.2776	 2.3272	67.4056	99.9480	
   314	-0.8216	 1.9030	 1.0814	-0.4313	 2.2763	 1.8450	 0.0529	 2.2201	 2.2729	67.7840	99.9419	
   315	-0.5924	 1.5863	 0.9939	-0.4807	 2.2732	 1.7925	 0.2054	 2.1816	 2.3870	67.1004	99.9375	
   316	-0.5277	 1.7033	 1.1756	-0.1654	 2.1284	 1.9630	 0.3279	 2.1606	 2.4885	67.5894	99.9471	
   317	-0.4383	 1.6786	 1.2403	-0.2165	 2.2183	 2.0018	 0.1990	 2.1777	 2.3767	67.1060	99.9362	
   318	-0.5467	 1.8015	 1.2548	-0.4119	 2.3686	 1.9567	 0.4141	 2.0344	 2.4485	68.4200	99.9291	
   319	-0.4288	 1.5590	 1.1302	-0.5732	 2.4992	 1.9260	 0.4116	 1.9853	 2.3969	67.8172	99.9043	
   320	-0.4697	 1.5658	 1.0962	-1.0248	 2.8436	 1.8187	 0.4084	 1.9239	 2.3323	68.0821	99.8700	
   321	-0.3793	 1.4164	 1.0371	-0.9106	 2.8724	 1.9618	 0.4078	 1.9116	 2.3194	67.6298	99.8457	
   322	-0.2014	 1.3508	 1.1493	-0.5206	 2.6787	 2.1581	 0.4525	 1.9387	 2.3911	67.2165	99.8572	
   323	-0.2632	 1.5642	 1.3010	-0.3195	 2.5050	 2.1854	 0.7059	 1.8185	 2.5244	68.6792	99.8859	
   324	-0.0369	 1.1988	 1.1619	-0.7874	 2.9335	 2.1461	 0.7576	 1.7428	 2.5004	67.8131	99.8130	
   325	-0.2233	 1.4003	 1.1770	-0.8628	 3.0892	 2.2264	 0.7238	 1.6867	 2.4104	68.6808	99.7854	
   326	-0.2262	 1.3516	 1.1254	-0.9017	 3.0254	 2.1237	 0.5342	 1.7265	 2.2608	68.0874	99.7938	
   327	-0.2823	 1.3806	 1.0983	-0.7566	 2.9790	 2.2223	 0.7500	 1.5955	 2.3455	69.0555	99.7848	
   328	-0.3156	 1.5172	 1.2016	-0.5872	 2.9874	 2.4002	 0.5993	 1.6708	 2.2701	68.9184	99.7766	
   329	-0.0407	 1.2748	 1.2341	-0.8815	 3.1316	 2.2501	 0.8189	 1.6134	 2.4323	68.5324	99.7673	
   330	 0.0145	 1.2296	 1.2441	-0.5815	 2.8432	 2.2618	 0.7263	 1.6169	 2.3432	68.1630	99.7988	
   331	 0.0649	 1.1032	 1.1681	-0.1792	 2.1335	 1.9543	 0.8572	 1.5177	 2.3749	68.3453	99.8932	
   332	-0.1520	 1.3491	 1.1971	-0.0907	 1.9587	 1.8680	 0.6434	 1.5667	 2.2101	68.6969	99.9197	
   333	-0.0711	 1.1783	 1.1072	-0.3242	 1.9384	 1.6142	 0.8298	 1.4654	 2.2952	68.8354	99.9274	
   334	 0.1153	 0.9769	 1.0922	-0.0340	 1.9662	 1.9322	 0.8081	 1.5236	 2.3317	67.8564	99.9019	
   335	-0.0045	 1.3278	 1.3233	-0.3470	 2.3944	 2.0473	 0.8630	 1.5093	 2.3722	69.0300	99.8727	
   336	 0.1106	 1.1775	 1.2881	-0.2488	 2.0242	 1.7754	 0.9766	 1.4353	 2.4119	68.9494	99.9175	
   337	 0.1496	 0.9974	 1.1469	-0.0315	 1.7663	 1.7348	 0.9434	 1.3915	 2.3349	68.5345	99.9276	
   338	 0.0934	 1.0264	 1.1198	 0.0796	 1.6188	 1.6984	 0.8924	 1.3606	 2.2529	68.6892	99.9370	
   339	 0.1124	 0.9282	 1.0406	-0.0339	 1.6038	 1.5700	 0.9517	 1.3133	 2.2650	68.6838	99.9387	
   340	 0.1971	 0.9632	 1.1603	 0.1015	 1.6320	 1.7335	 0.9664	 1.3578	 2.3242	68.5360	99.9354	
   341	 0.3322	 0.8719	 1.2041	 0.3350	 1.5316	 1.8665	 1.0877	 1.3123	 2.4000	68.4954	99.9341	
   342	 0.2999	 0.8838	 1.1837	 0.3715	 1.4328	 1.8043	 1.0494	 1.2891	 2.3385	68.5737	99.9415	
   343	 0.3046	 0.8241	 1.1287	 0.2734	 1.4406	 1.7140	 1.1509	 1.2197	 2.3706	68.8305	99.9413	
   344	 0.2551	 0.8258	 1.0809	 0.4704	 1.3182	 1.7886	 1.0705	 1.2186	 2.2891	68.7592	99.9415	
   345	 0.1895	 0.9743	 1.1638	 0.8571	 1.1896	 2.0467	 1.0724	 1.2555	 2.3278	69.0985	99.9408	
   346	 0.3826	 0.8864	 1.2691	 0.4890	 1.3965	 1.8856	 1.1828	 1.2390	 2.4218	68.8723	99.9423	
   347	 0.4369	 0.8250	 1.2618	 0.2045	 1.4661	 1.6706	 1.2485	 1.1956	 2.4441	68.9075	99.9453	
   348	 0.3864	 0.8104	 1.1969	 0.5393	 1.2927	 1.8320	 1.1490	 1.1829	 2.3319	68.8001	99.9432	
   349	 0.3836	 0.7618	 1.1453	 0.4672	 1.2625	 1.7297	 1.1420	 1.1668	 2.3087	68.7239	99.9472	
   350	 0.2456	 0.9453	 1.1909	 0.2540	 1.3483	 1.6023	 1.1898	 1.1363	 2.3261	69.5498	99.9530	
   351	 0.4521	 0.8028	 1.2548	 0.3050	 1.3792	 1.6843	 1.3379	 1.1308	 2.4686	69.2042	99.9481	
   352	 0.4759	 0.7857	 1.2616	 0.5458	 1.2832	 1.8290	 1.3366	 1.1062	 2.4428	69.2069	99.9456	
   353	 0.5424	 0.6534	 1.1958	 0.6455	 1.1824	 1.8280	 1.3468	 1.0648	 2.4117	68.9435	99.9446	
   354	 0.4863	 0.6824	 1.1687	 0.5045	 1.1777	 1.6822	 1.3698	 1.0312	 2.4010	69.2418	99.9511	
   355	 0.4073	 0.7447	 1.1520	 0.5783	 1.1149	 1.6932	 1.2479	 1.0644	 2.3124	69.1738	99.9545	
   356	 0.4892	 0.7311	 1.2202	 0.8442	 1.0878	 1.9320	 1.3947	 1.0344	 2.4291	69.3922	99.9467	
   357	 0.5852	 0.6790	 1.2642	 0.8588	 1.0966	 1.9554	 1.4981	 1.0018	 2.4999	69.4259	99.9458	
   358	 0.4473	 0.8625	 1.3099	 0.7664	 1.0810	 1.8474	 1.3571	 1.0235	 2.3805	69.7404	99.9554	
   359	 0.4207	 0.8309	 1.2516	 0.7023	 1.0691	 1.7714	 1.4771	 0.9534	 2.4304	70.1409	99.9571	
   360	 0.3864	 0.8104	 1.1969	 0.6440	 1.0338	 1.6778	 1.3367	 0.9873	 2.3240	69.7749	99.9603	
   361	 0.5415	 0.6372	 1.1786	 0.6732	 1.0515	 1.7246	 1.3858	 0.9814	 2.3672	69.2455	99.9533	
   362	 0.6309	 0.6124	 1.2433	 0.8142	 1.0562	 1.8704	 1.4113	 0.9968	 2.4082	69.0590	99.9478	
   363	 0.5548	 0.7234	 1.2782	 0.3245	 1.2299	 1.5545	 1.4164	 0.9761	 2.3926	69.5121	99.9535	
   364	 0.5662	 0.6363	 1.2025	 0.8110	 1.0006	 1.8116	 1.2875	 0.9933	 2.2808	68.9922	99.9497	
   365	 0.5253	 0.6431	 1.1684	 0.5532	 1.0460	 1.5992	 1.2256	 0.9915	 2.2171	68.9579	99.9557	
   366	 0.4340	 0.7763	 1.2103	 0.7599	 0.9697	 1.7296	 1.4018	 0.9316	 2.3334	69.9245	99.9593	
   367	 0.6328	 0.6449	 1.2777	 0.8215	 1.0606	 1.8821	 1.5134	 0.9397	 2.4532	69.5060	99.9478	
   368	 0.5995	 0.7815	 1.3810	 0.7728	 1.0715	 1.8443	 1.4592	 0.9663	 2.4255	69.7038	99.9551	
   369	 0.5653	 0.7610	 1.3263	 0.5645	 1.1200	 1.6845	 1.3915	 0.9730	 2.3645	69.5560	99.9566	
   370	 0.6100	 0.6782	 1.2881	 0.4624	 1.1790	 1.6414	 1.3609	 0.9782	 2.3391	69.2180	99.9512	
   371	 0.5482	 0.7507	 1.2989	 0.8158	 1.0841	 1.8999	 1.3501	 1.0073	 2.3574	69.3672	99.9478	
   372	 0.6481	 0.7636	 1.4116	 0.9406	 1.1730	 2.1135	 1.4809	 1.0270	 2.5079	69.4358	99.9381	
   373	 0.7774	 0.7158	 1.4932	 0.7979	 1.2612	 2.0591	 1.4700	 1.0561	 2.5261	69.0274	99.9382	
   374	 0.7632	 0.7542	 1.5174	 0.8595	 1.2313	 2.0908	 1.3909	 1.0796	 2.4705	68.9209	99.9389	
   375	 0.5044	 0.9906	 1.4951	 0.5061	 1.3263	 1.8324	 1.3596	 1.0726	 2.4322	69.8247	99.9513	
   376	 0.5092	 0.9309	 1.4401	 0.8247	 1.1163	 1.9410	 1.2977	 1.0708	 2.3685	69.5642	99.9539	
   377	 0.7375	 0.5979	 1.3354	 0.7590	 1.1974	 1.9564	 1.4253	 1.0291	 2.4545	68.7985	99.9379	
   378	 0.7242	 0.7935	 1.5176	 0.5774	 1.3426	 1.9200	 1.5000	 1.0386	 2.5386	69.4030	99.9425	
   379	 0.7337	 0.8148	 1.5485	 0.8247	 1.2371	 2.0617	 1.5121	 1.0341	 2.5462	69.4795	99.9436	
   380	 0.7537	 0.7329	 1.4865	 0.8457	 1.2364	 2.0821	 1.4445	 1.0407	 2.4852	69.1056	99.9366	
   381	 0.5644	 1.0265	 1.5909	 0.9268	 1.1780	 2.1049	 1.3405	 1.0610	 2.4014	69.8359	99.9472	
   382	 0.6623	 0.8660	 1.5284	 0.9154	 1.2249	 2.1403	 1.4190	 1.0252	 2.4442	69.5632	99.9361	
   383	 0.8146	 0.9259	 1.7404	 0.8813	 1.3653	 2.2467	 1.5485	 1.0204	 2.5689	69.7546	99.9313	
   384	 0.9230	 0.8029	 1.7259	 1.0070	 1.3474	 2.3543	 1.4643	 1.0646	 2.5288	69.0043	99.9211	
   385	 0.8688	 0.8644	 1.7332	 0.7500	 1.4067	 2.1567	 1.3909	 1.0796	 2.4705	69.0476	99.9308	
   386	 0.8441	 0.8652	 1.7093	 0.8490	 1.2920	 2.1410	 1.2422	 1.0728	 2.3150	68.8317	99.9331	
   387	 0.7794	 0.8891	 1.6685	 0.8036	 1.2378	 2.0413	 1.3367	 0.9873	 2.3240	69.4347	99.9399	
   388	 0.9458	 0.7696	 1.7155	 0.8944	 1.2255	 2.1199	 1.3507	 1.0196	 2.3703	68.8276	99.9367	
   389	 0.8222	 0.9148	 1.7369	 0.9309	 1.1268	 2.0577	 1.2696	 1.0062	 2.2759	69.2546	99.9476	
   390	 0.8022	 0.8558	 1.6580	 0.8790	 1.0820	 1.9610	 1.2295	 0.9462	 2.1757	69.2584	99.9469	
   391	 0.6034	 0.8464	 1.4497	 0.5532	 1.0460	 1.5992	 0.8248	 1.0105	 1.8354	68.5482	99.9556	
   392	 0.4807	 1.0077	 1.4884	 0.4680	 1.3972	 1.8652	 0.8918	 1.2294	 2.1212	68.5299	99.9409	
   393	 0.6139	 1.0248	 1.6387	 0.2009	 2.2560	 2.4569	 1.1093	 1.3730	 2.4823	68.3235	99.8470	
   394	 0.7727	 0.9164	 1.6892	 0.1045	 2.2916	 2.3960	 1.2312	 1.3397	 2.5710	68.1691	99.8480	
   395	 0.4226	 1.1452	 1.5678	 0.0909	 1.8135	 1.9044	 1.1866	 1.3127	 2.4993	69.2227	99.9301	
   396	 0.4969	 1.2835	 1.7804	 0.1791	 2.1219	 2.3010	 1.0225	 1.3680	 2.3906	68.9819	99.8853	
   397	 0.5302	 1.1469	 1.6771	-0.1907	 2.6634	 2.4727	 1.0040	 1.3687	 2.3728	68.5601	99.7954	
   398	 0.2781	 1.4969	 1.7750	-0.4502	 2.9226	 2.4724	 0.8585	 1.4233	 2.2819	69.3330	99.7809	
   399	 0.2172	 1.4448	 1.6620	-0.5045	 2.9569	 2.4524	 0.8087	 1.4170	 2.2257	69.2164	99.7662	
   400	 0.4398	 1.1554	 1.5952	-0.5766	 2.9267	 2.3501	 0.8866	 1.3690	 2.2556	68.4881	99.7607	
   401	 0.3484	 1.1477	 1.4961	-0.5321	 2.9671	 2.4350	 0.5509	 1.4512	 2.0021	67.6975	99.7292	
   402	 0.3028	 1.0734	 1.3762	-0.3796	 2.6834	 2.3039	 0.4099	 1.4729	 1.8828	67.2385	99.7689	
   403	 0.2504	 1.0264	 1.2768	-0.3437	 2.0876	 1.7440	 0.3595	 1.4543	 1.8137	67.1615	99.8840	
   404	 0.1068	 1.1126	 1.2194	-0.2342	 1.9122	 1.6780	 0.4182	 1.3947	 1.8129	67.8881	99.9038	
   405	 0.3037	 0.8078	 1.1115	-0.1442	 1.8861	 1.7419	 0.4961	 1.3467	 1.8427	67.1568	99.8852	
   406	 0.1277	 0.9060	 1.0337	 0.1574	 1.6255	 1.7830	 0.3365	 1.3690	 1.7056	67.2742	99.8995	
   407	 0.0630	 0.9299	 0.9928	-0.0882	 1.6381	 1.5499	 0.2618	 1.3595	 1.6214	67.3144	99.9130	
   408	-0.0892	 1.0109	 0.9217	 0.3707	 1.4189	 1.7896	 0.0959	 1.3780	 1.4739	67.3562	99.8999	
   409	-0.1397	 0.9964	 0.8568	-0.1287	 1.5465	 1.4178	 0.0902	 1.3864	 1.4766	67.3543	99.9225	
   410	-0.1758	 1.0843	 0.9086	-0.3241	 1.8176	 1.4934	 0.0697	 1.4692	 1.5389	67.3151	99.9064	
   411	-0.0664	 1.1185	 1.0522	-0.5650	 2.1552	 1.5902	 0.1629	 1.4780	 1.6409	67.3920	99.8789	
   412	-0.1006	 1.0980	 0.9974	-0.5350	 2.0659	 1.5310	 0.1023	 1.5008	 1.6030	67.2000	99.8894	
   413	-0.0274	 0.9384	 0.9110	-0.7814	 2.1853	 1.4039	 0.1335	 1.5078	 1.6413	66.7369	99.8807	
   414	-0.2576	 1.2389	 0.9813	-0.7352	 2.2535	 1.5183	-0.0477	 1.5884	 1.5406	67.2016	99.8790	
   415	-0.3908	 1.3626	 0.9719	-0.5057	 1.9628	 1.4570	-0.1709	 1.5971	 1.4262	67.4365	99.9095	
   416	-0.4364	 1.2883	 0.8519	-0.7165	 1.9696	 1.2531	-0.2379	 1.6160	 1.3780	67.1266	99.9172	
   417	-0.3689	 1.3131	 0.9442	-0.3404	 1.9017	 1.5613	-0.2239	 1.6482	 1.4243	67.0116	99.9052	
   418	-0.5144	 1.5078	 0.9933	-0.6419	 2.0415	 1.3995	-0.2105	 1.6682	 1.4577	67.6670	99.9180	
   419	-0.5686	 1.5692	 1.0006	-0.6144	 2.0313	 1.4169	-0.0995	 1.6641	 1.5646	68.1227	99.9242	
   420	-0.4868	 1.4147	 0.9279	-0.9403	 2.1161	 1.1759	-0.1480	 1.6823	 1.5343	67.4694	99.9259	
   421	-0.4869	 1.2738	 0.7869	-0.5771	 1.9465	 1.3694	-0.2207	 1.7096	 1.4889	66.8917	99.9174	
   422	-0.4174	 1.3310	 0.9136	-1.2372	 2.7017	 1.4646	-0.1786	 1.8064	 1.6278	66.6989	99.8557	
   423	-0.2870	 1.4404	 1.1533	-1.2616	 3.1299	 1.8683	 0.3747	 1.7489	 2.1236	68.0209	99.8028	
   424	-0.1795	 1.4421	 1.2626	-0.6527	 2.7062	 2.0534	 0.2259	 1.8610	 2.0870	67.2291	99.8493	
   425	-0.3612	 1.7247	 1.3635	-0.5652	 2.6383	 2.0731	 0.4334	 1.8082	 2.2416	68.7419	99.8752	
   426	 0.0440	 1.1690	 1.2129	-0.6186	 2.5657	 1.9470	 0.4704	 1.8068	 2.2772	66.8811	99.8670	
   427	-0.0806	 1.2978	 1.2172	-0.4071	 2.4520	 2.0450	 0.3063	 1.8621	 2.1685	66.8836	99.8740	
   428	-0.2718	 1.5591	 1.2873	-0.3349	 2.4822	 2.1473	 0.4053	 1.8625	 2.2678	67.9807	99.8799	
   429	-0.1662	 1.5284	 1.3622	-0.3600	 2.2926	 1.9326	 0.4321	 1.9025	 2.3346	67.6777	99.9201	
   430	 0.0573	 1.2552	 1.3125	-0.1678	 2.2074	 2.0396	 0.5706	 1.8318	 2.4023	67.1823	99.9086	
   431	-0.2052	 1.5676	 1.3624	-0.1751	 2.2030	 2.0279	 0.5706	 1.8318	 2.4023	68.3155	99.9216	
   432	-0.1976	 1.5565	 1.3589	-0.2376	 2.2190	 1.9814	 0.5776	 1.8479	 2.4255	68.2386	99.9247	
   433	-0.1824	 1.5343	 1.3520	-0.2214	 2.2556	 2.0342	 0.3906	 1.9369	 2.3274	67.5264	99.9174	
   434	-0.1814	 1.5506	 1.3691	-0.3016	 2.2071	 1.9055	 0.5131	 1.9159	 2.4290	67.8622	99.9336	
   435	-0.1738	 1.6804	 1.5066	 0.2303	 1.9112	 2.1415	 0.6203	 1.9570	 2.5773	68.2361	99.9529	
   436	-0.0453	 1.7572	 1.7119	 0.4159	 1.8356	 2.2515	 0.8647	 1.9028	 2.7675	68.8715	99.9621	
   437	 0.1582	 1.4252	 1.5834	 0.2051	 1.9631	 2.1682	 0.7479	 1.9153	 2.6633	67.5196	99.9453	
   438	 0.0345	 1.4294	 1.4639	 0.1735	 2.0246	 2.1980	 0.6541	 1.8942	 2.5484	67.5960	99.9308	
   439	 0.0412	 1.4021	 1.4432	-0.0146	 2.1793	 2.1646	 0.5903	 1.8556	 2.4460	67.5243	99.9137	
   440	-0.0007	 1.2518	 1.2511	-0.8417	 2.8470	 2.0053	 0.5910	 1.7490	 2.3400	67.5604	99.8335	
   441	-0.1862	 1.4694	 1.2833	-0.9528	 2.9946	 2.0418	 0.6280	 1.7476	 2.3757	68.4263	99.8252	
   442	 0.1296	 1.2202	 1.3498	-0.6925	 2.8700	 2.1775	 0.6963	 1.7533	 2.4496	67.4835	99.8239	
   443	 0.0868	 1.3355	 1.4223	-0.7825	 2.8962	 2.1137	 0.6338	 1.7392	 2.3730	67.7536	99.8288	
   444	 0.0050	 1.4900	 1.4950	-0.4906	 2.7102	 2.2196	 0.7289	 1.6660	 2.3949	68.6621	99.8477	
   445	 0.1724	 1.2458	 1.4183	-0.8150	 2.9437	 2.1287	 0.5566	 1.6806	 2.2372	67.4561	99.8045	
   446	-0.0216	 1.4584	 1.4368	-1.1369	 3.2188	 2.0820	 0.5981	 1.6463	 2.2443	68.4429	99.7797	
   447	-0.0102	 1.5122	 1.5020	-0.7363	 2.8436	 2.1073	 0.6185	 1.6824	 2.3009	68.4803	99.8389	
   448	 0.2419	 1.4440	 1.6859	-0.1963	 2.3245	 2.1282	 0.7276	 1.7603	 2.4879	67.9091	99.9089	
   449	 0.3295	 1.5277	 1.8572	 0.2724	 2.0307	 2.3030	 0.9937	 1.7668	 2.7605	68.4669	99.9395	
   450	 0.5007	 1.3484	 1.8491	 0.5488	 1.8220	 2.3708	 1.0760	 1.8047	 2.8807	67.8197	99.9503	
   451	 0.4199	 1.5192	 1.9390	 0.4475	 1.8950	 2.3424	 1.0275	 1.8229	 2.8504	68.2014	99.9533	
   452	 0.4902	 1.4517	 1.9420	 0.4191	 2.0120	 2.4311	 1.0103	 1.7293	 2.7395	68.2083	99.9305	
   453	 0.5435	 1.2332	 1.7766	 0.1296	 2.2397	 2.3693	 0.9401	 1.6868	 2.6269	67.6027	99.8965	
   454	 0.5340	 1.2118	 1.7458	-0.1745	 2.5793	 2.4048	 0.9707	 1.6815	 2.6523	67.6384	99.8576	
   455	 0.6263	 1.2357	 1.8620	 0.2845	 2.1185	 2.4030	 1.1424	 1.6546	 2.7970	67.9751	99.9132	
   456	 0.5910	 1.0581	 1.6492	 0.0754	 2.0324	 2.1077	 0.8860	 1.2378	 2.1239	68.4619	99.8755	
   457	 0.0230	 0.8120	 0.8350	 0.0677	 0.9269	 0.9947	 0.4304	 1.0335	 1.4639	68.4655	99.9686	
   458	 0.0125	 0.7745	 0.7870	-0.0531	 1.0284	 0.9753	 0.5230	 1.0300	 1.5530	68.5711	99.9645	
   459	 0.0753	 0.7181	 0.7934	 0.0515	 1.0111	 1.0626	 0.6589	 1.0290	 1.6879	68.5997	99.9640	
   460	 0.0087	 0.5687	 0.5773	 0.3037	 0.6267	 0.9304	-0.0324	 1.5263	 1.4939	65.3940	99.9855	
   461	-0.5403	 0.5062	-0.0341	-0.6301	 0.6660	 0.0359	-0.4241	 1.1228	 0.6987	66.5866	99.9825	
   462	-0.6345	 0.4498	-0.1847	-0.6049	 0.6141	 0.0092	-0.5773	 1.1490	 0.5717	66.2001	99.9802	
   463	-0.5765	 0.4532	-0.1233	-0.3512	 0.4991	 0.1479	-0.4911	 1.0228	 0.5317	66.7042	99.9757	
   464	-0.6354	 0.4335	-0.2019	-0.6292	 0.5591	-0.0701	-0.3915	 0.9166	 0.5251	67.2829	99.9785	
   465	-0.6316	 0.4984	-0.1332	-0.5246	 0.5418	 0.0172	-0.5676	 0.9764	 0.4088	66.9004	99.9764	
   466	-0.5936	 0.4429	-0.1506	-0.6065	 0.5863	-0.0203	-0.3730	 0.9159	 0.5429	67.2836	99.9768	
   467	-0.6098	 0.4489	-0.1608	-0.6073	 0.5723	-0.0350	-0.4432	 0.9923	 0.5491	66.9355	99.9799	
   468	-0.6212	 0.3951	-0.2261	-0.5457	 0.5425	-0.0032	-0.4432	 0.8734	 0.4302	67.2081	99.9718	
   469	-0.8076	 0.5966	-0.2110	-0.7621	 0.5727	-0.1895	-0.5580	 0.9228	 0.3647	67.5982	99.9816	
   470	-0.8038	 0.6615	-0.1423	-0.7889	 0.5968	-0.1921	-0.7636	 1.0124	 0.2489	67.0600	99.9823	
   471	-0.7410	 0.4642	-0.2768	-0.7532	 0.6049	-0.1483	-0.5919	 0.8666	 0.2748	67.2895	99.9715	
   472	-0.8200	 0.5266	-0.2934	-0.9786	 0.7236	-0.2550	-0.8420	 0.9293	 0.0872	66.8659	99.9683	
   473	-0.8742	 0.5880	-0.2862	-0.8692	 0.6690	-0.2001	-0.9563	 0.9909	 0.0347	66.6713	99.9697	
   474	-0.7439	 0.5565	-0.1874	-0.9908	 0.7566	-0.2342	-0.7585	 0.9918	 0.2333	66.7865	99.9737	
   475	-0.7134	 0.5121	-0.2014	-0.9721	 0.7141	-0.2580	-0.7552	 0.9342	 0.1790	66.8264	99.9727	
   476	-0.7877	 0.5146	-0.2730	-0.8424	 0.6449	-0.1975	-1.0661	 1.0196	-0.0464	66.0434	99.9677	
   477	-0.7601	 0.4215	-0.3385	-0.9705	 0.6212	-0.3493	-0.8305	 0.9125	 0.0819	66.5918	99.9738	
   478	-0.9056	 0.6162	-0.2894	-0.9364	 0.6015	-0.3349	-0.9231	 0.9159	-0.0072	67.1032	99.9764	
   479	-0.8676	 0.5607	-0.3069	-0.8927	 0.6280	-0.2647	-0.7023	 0.8831	 0.1808	67.4476	99.9748	
   480	-0.8257	 0.7110	-0.1147	-0.8886	 0.6975	-0.1911	-0.8019	 0.9893	 0.1874	67.2186	99.9776	
   481	-0.7724	 0.6333	-0.1391	-0.7646	 0.6517	-0.1129	-0.9186	 1.0018	 0.0832	66.6723	99.9717	
   482	-0.8447	 0.6683	-0.1764	-1.1115	 0.7372	-0.3743	-0.9563	 0.9909	 0.0347	66.8297	99.9777	
   483	-0.8628	 0.6418	-0.2210	-1.0572	 0.7029	-0.3543	-0.9563	 0.9909	 0.0347	66.7898	99.9773	
   484	-0.8580	 0.5820	-0.2760	-0.9486	 0.6344	-0.3142	-0.9461	 0.9496	 0.0035	66.7896	99.9749	
   485	-0.8304	 0.6299	-0.2006	-1.0054	 0.7477	-0.2576	-0.9385	 1.0969	 0.1584	66.3965	99.9773	
   486	-0.7343	 0.7187	-0.0156	-1.1319	 0.8726	-0.2593	-1.0610	 1.2367	 0.1757	65.7679	99.9802	
   487	-0.8266	 0.8357	 0.0091	-0.7330	 0.7111	-0.0219	-0.9079	 1.2105	 0.3027	66.5923	99.9818	
   488	-0.8599	 0.8314	-0.0285	-0.9130	 0.7634	-0.1496	-0.8128	 1.1373	 0.3245	67.0603	99.9832	
   489	-0.8323	 0.7383	-0.0940	-0.8384	 0.7145	-0.1239	-0.9895	 1.1849	 0.1953	66.2792	99.9796	
   490	-0.9493	 0.8561	-0.0932	-0.9000	 0.7444	-0.1556	-0.9813	 1.2256	 0.2443	66.6312	99.9836	
   491	-0.7191	 0.6965	-0.0226	-1.0557	 0.8516	-0.2041	-1.0203	 1.4279	 0.4076	65.1445	99.9871	
   492	-0.7467	 0.7896	 0.0429	-0.9868	 0.8261	-0.1606	-0.9545	 1.3844	 0.4299	65.6921	99.9883	
   493	-0.7819	 0.7528	-0.0291	-1.1513	 0.9011	-0.2502	-1.0247	 1.3420	 0.3173	65.6521	99.9841	
   494	-0.8475	 0.7605	-0.0870	-1.0427	 0.8326	-0.2101	-1.0994	 1.3325	 0.2331	65.6515	99.9831	
   495	-0.9560	 0.8834	-0.0725	-0.6673	 0.6300	-0.0373	-0.9481	 1.2694	 0.3213	66.6303	99.9854	
   496	-0.7752	 0.7255	-0.0497	-0.9795	 0.8305	-0.1489	-1.0707	 1.5282	 0.4575	64.8728	99.9891	
   497	-0.7210	 0.8050	 0.0840	-0.9098	 0.8190	-0.0908	-0.8831	 1.4515	 0.5684	65.6156	99.9906	
   498	-0.6858	 0.7008	 0.0150	-0.9949	 0.8078	-0.1871	-0.6884	 1.2720	 0.5837	66.2780	99.9877	
   499	-0.7876	 0.7964	 0.0088	-0.9316	 0.8058	-0.1259	-0.9922	 1.3736	 0.3814	65.7310	99.9867	
   500	-0.7886	 0.7802	-0.0084	-0.9470	 0.7830	-0.1640	-1.0892	 1.4100	 0.3208	65.3772	99.9878	
   501	-0.8199	 0.8083	-0.0116	-1.0767	 0.8522	-0.2245	-1.3420	 1.7802	 0.4382	63.7715	99.9948	
   502	-0.6734	 0.7708	 0.0974	-0.7290	 0.7807	 0.0517	-1.6901	 2.5803	 0.8902	60.1594	99.9982	
   503	-0.6706	 0.8195	 0.1489	-1.1895	 0.9720	-0.2174	-1.5835	 2.6091	 1.0256	60.4121	99.9986	
   504	-0.7438	 0.8382	 0.0944	-0.9771	 0.8723	-0.1048	-1.5803	 2.4327	 0.8525	61.1361	99.9999	
   505	-0.8000	 0.8673	 0.0673	-1.1214	 0.9326	-0.1887	-1.8611	 2.5006	 0.6395	60.4741	99.9997	
   506	-0.8171	 0.8570	 0.0399	-0.9843	 0.8679	-0.1165	-1.6466	 2.3450	 0.6984	61.4340	99.9992	
   507	-0.7743	 0.8826	 0.1084	-1.0443	 0.9255	-0.1188	-1.5248	 2.4307	 0.9059	61.4170	100.0000	
   508	-0.6630	 0.8084	 0.1454	-0.9187	 0.9076	-0.0112	-1.6224	 2.4548	 0.8324	60.7731	99.9994	
   509	-0.7410	 0.8869	 0.1460	-0.8984	 0.8930	-0.0055	-1.5733	 2.4489	 0.8756	61.2123	99.9995	
   510	-0.7514	 0.8493	 0.0979	-0.7266	 0.8224	 0.0958	-1.7073	 2.4867	 0.7794	60.7308	99.9968	
   511	-0.7705	 0.8066	 0.0362	-1.1676	 0.9852	-0.1823	-1.8618	 2.6072	 0.7455	59.9440	99.9999	
   512	-0.8275	 0.9603	 0.1328	-1.1579	 1.0314	-0.1265	-1.5483	 2.3332	 0.7848	61.9475	99.9994	
   513	-0.6582	 0.8895	 0.2313	-0.8515	 0.9751	 0.1236	-1.2100	 2.0622	 0.8522	63.0842	99.9960	
   514	-0.7723	 1.0560	 0.2836	-0.8871	 0.9669	 0.0798	-1.3524	 2.1782	 0.8259	62.9996	99.9985	
   515	-0.7704	 0.9475	 0.1771	-0.8458	 0.9517	 0.1059	-1.4277	 2.2754	 0.8476	62.2651	99.9977	
   516	-0.8256	 0.9928	 0.1672	-0.9771	 0.9931	 0.0160	-1.3179	 2.1278	 0.8099	63.1630	99.9978	
   517	-0.6820	 0.7657	 0.0837	-1.0590	 1.0375	-0.0215	-1.2911	 2.0489	 0.7578	62.6942	99.9942	
   518	-0.6820	 0.9066	 0.2246	-0.7242	 0.9849	 0.2607	-1.0261	 1.7930	 0.7669	64.4082	99.9876	
   519	-0.7695	 1.1046	 0.3352	-1.0063	 1.0962	 0.0899	-1.0587	 1.7614	 0.7027	65.0669	99.9914	
   520	-0.6506	 0.8784	 0.2278	-0.9990	 1.1006	 0.1016	-1.0868	 1.8158	 0.7290	64.0930	99.9885	
   521	-0.7295	 0.9407	 0.2112	-0.9796	 1.0721	 0.0925	-0.9974	 1.7509	 0.7535	64.7596	99.9894	
   522	-0.8827	 1.1465	 0.2638	-0.9439	 1.0803	 0.1363	-1.1684	 1.7901	 0.6217	65.0268	99.9895	
   523	-0.7067	 1.0483	 0.3416	-0.8896	 1.1668	 0.2771	-0.8531	 1.5528	 0.6997	65.9272	99.9785	
   524	-0.6762	 1.1448	 0.4686	-0.7778	 1.1539	 0.3761	-0.9393	 1.5602	 0.6209	65.9260	99.9770	
   525	-0.7713	 1.2131	 0.4417	-0.9918	 1.2258	 0.2340	-0.9399	 1.5479	 0.6080	66.2791	99.9799	
   526	-0.8456	 1.2156	 0.3701	-0.9099	 1.1814	 0.2715	-1.0420	 1.6050	 0.5630	66.0046	99.9793	
   527	-0.9055	 1.1797	 0.2742	-1.0899	 1.2336	 0.1437	-1.1365	 1.6905	 0.5540	65.5346	99.9819	
   528	-0.7419	 1.0116	 0.2697	-0.9350	 1.2333	 0.2982	-0.9807	 1.5945	 0.6138	65.4966	99.9717	
   529	-0.7514	 1.2720	 0.5207	-1.2634	 1.3971	 0.1338	-0.6974	 1.4568	 0.7595	67.1766	99.9771	
   530	-0.6591	 1.1551	 0.4960	-1.0502	 1.3113	 0.2611	-0.9214	 1.5472	 0.6258	66.0044	99.9753	
   531	-0.6933	 1.1346	 0.4412	-1.1888	 1.3483	 0.1595	-0.8244	 1.5108	 0.6864	66.3179	99.9758	
   532	-0.7571	 1.1747	 0.4176	-0.9269	 1.2516	 0.3246	-0.9763	 1.5615	 0.5853	66.0438	99.9739	
   533	-0.7200	 1.1030	 0.3830	-1.0761	 1.3493	 0.2732	-0.8071	 1.4855	 0.6784	66.3959	99.9695	
   534	-0.7323	 1.3147	 0.5824	-0.8824	 1.2920	 0.4096	-0.6674	 1.4393	 0.7720	67.3726	99.9754	
   535	-0.5944	 1.1312	 0.5368	-1.0948	 1.3917	 0.2969	-0.7159	 1.4575	 0.7417	66.5527	99.9698	
   536	-0.7295	 1.2225	 0.4930	-1.1361	 1.4070	 0.2709	-0.7593	 1.4551	 0.6958	66.9046	99.9703	
   537	-0.6639	 1.0739	 0.4101	-1.1507	 1.3982	 0.2474	-0.7541	 1.4344	 0.6802	66.5132	99.9660	
   538	-0.7105	 1.1243	 0.4138	-0.9035	 1.2927	 0.3892	-0.9099	 1.5304	 0.6205	66.0831	99.9680	
   539	-0.5630	 1.1030	 0.5400	-0.8305	 1.3368	 0.5062	-0.6616	 1.4309	 0.7693	66.6305	99.9634	
   540	-0.5839	 1.1687	 0.5848	-0.7616	 1.3113	 0.5497	-0.6788	 1.4561	 0.7773	66.7090	99.9660	
   541	-0.6714	 1.2259	 0.5545	-0.9067	 1.3578	 0.4511	-0.6488	 1.4386	 0.7898	67.0985	99.9686	
   542	-0.7057	 1.2054	 0.4997	-1.0040	 1.3795	 0.3755	-0.8014	 1.4771	 0.6757	66.6705	99.9675	
   543	-0.7913	 1.2951	 0.5037	-0.9691	 1.3737	 0.4046	-0.8978	 1.5258	 0.6281	66.6713	99.9686	
   544	-0.6391	 1.2140	 0.5749	-0.8151	 1.3595	 0.5444	-0.6240	 1.4418	 0.8178	67.0592	99.9652	
   545	-0.6857	 1.4052	 0.7196	-0.7641	 1.3904	 0.6263	-0.6527	 1.4839	 0.8312	67.4133	99.9683	
   546	-0.5754	 1.1739	 0.5985	-1.0008	 1.4352	 0.4344	-0.7937	 1.5055	 0.7118	66.3184	99.9648	
   547	-0.5478	 1.0808	 0.5330	-0.8840	 1.3849	 0.5009	-0.6546	 1.4470	 0.7925	66.5130	99.9615	
   548	-0.7713	 1.3540	 0.5827	-0.9335	 1.3819	 0.4484	-0.8180	 1.5146	 0.6967	66.9844	99.9705	
   549	-0.7504	 1.4291	 0.6788	-0.9424	 1.4704	 0.5280	-0.6584	 1.4923	 0.8338	67.5290	99.9687	
   550	-0.5725	 1.3634	 0.7910	-0.8038	 1.4335	 0.6296	-0.5116	 1.4622	 0.9506	67.4887	99.9689	
   551	-0.5744	 1.3310	 0.7566	-0.9903	 1.4952	 0.5049	-0.5735	 1.4604	 0.8869	67.2952	99.9676	
   552	-0.6162	 1.3216	 0.7053	-0.7641	 1.3904	 0.6263	-0.5372	 1.4468	 0.9096	67.4488	99.9673	
   553	-0.4451	 1.0014	 0.5564	-0.8614	 1.4121	 0.5507	-0.5627	 1.4313	 0.8686	66.3954	99.9577	
   554	-0.4536	 0.9963	 0.5427	-0.7771	 1.4094	 0.6323	-0.5002	 1.4454	 0.9452	66.4725	99.9561	
   555	-0.5420	 1.3190	 0.7770	-0.6628	 1.4382	 0.7754	-0.5289	 1.4874	 0.9586	67.2153	99.9615	
   556	-0.4117	 1.1466	 0.7349	-0.8022	 1.4613	 0.6591	-0.5346	 1.4959	 0.9612	66.5518	99.9615	
   557	-0.5230	 1.2209	 0.6978	-0.7479	 1.4270	 0.6791	-0.5608	 1.4681	 0.9074	66.9423	99.9610	
   558	-0.5801	 1.2336	 0.6535	-0.9003	 1.4691	 0.5688	-0.5314	 1.4383	 0.9069	67.2140	99.9622	
   559	-0.6125	 1.2456	 0.6331	-0.9684	 1.5084	 0.5401	-0.7006	 1.5144	 0.8138	66.7090	99.9612	
   560	-0.4431	 1.1748	 0.7316	-0.6685	 1.4616	 0.7932	-0.4427	 1.4801	 1.0374	66.9009	99.9571	
   561	-0.2995	 1.0886	 0.7891	-0.5574	 1.4348	 0.8774	-0.4976	 1.4945	 0.9969	66.3177	99.9524	
   562	-0.5772	 1.4232	 0.8460	-0.7041	 1.4535	 0.7494	-0.6080	 1.5109	 0.9029	67.2969	99.9648	
   563	-0.5953	 1.3967	 0.8014	-0.8290	 1.4854	 0.6564	-0.5295	 1.4752	 0.9457	67.5281	99.9662	
   564	-0.6210	 1.3814	 0.7604	-0.7884	 1.4562	 0.6678	-0.4816	 1.4447	 0.9630	67.7206	99.9656	
   565	-0.4289	 1.1364	 0.7075	-0.7860	 1.4979	 0.7119	-0.4612	 1.4808	 1.0196	66.7454	99.9571	
   566	-0.3946	 1.2977	 0.9032	-0.7342	 1.5427	 0.8086	-0.4115	 1.4872	 1.0757	67.1756	99.9595	
   567	-0.3670	 1.2047	 0.8377	-0.7082	 1.5047	 0.7965	-0.5212	 1.5159	 0.9946	66.5914	99.9573	
   568	-0.4631	 1.2567	 0.7937	-0.7301	 1.4915	 0.7614	-0.4370	 1.4717	 1.0347	67.1744	99.9599	
   569	-0.4241	 1.2175	 0.7934	-0.6620	 1.4521	 0.7902	-0.5046	 1.4783	 0.9737	66.8644	99.9581	
   570	-0.4184	 1.1739	 0.7555	-0.6125	 1.4552	 0.8426	-0.6195	 1.5277	 0.9082	66.3571	99.9524	
   571	-0.3194	 1.1705	 0.8511	-0.6774	 1.5502	 0.8728	-0.3987	 1.4949	 1.0962	66.7459	99.9524	
   572	-0.2243	 1.1023	 0.8779	-0.5396	 1.4993	 0.9597	-0.3681	 1.4896	 1.1216	66.5122	99.9503	
   573	-0.2738	 1.1040	 0.8302	-0.7269	 1.5471	 0.8203	-0.4664	 1.5015	 1.0352	66.3567	99.9515	
   574	-0.3917	 1.2055	 0.8138	-0.8882	 1.5570	 0.6688	-0.4306	 1.4756	 1.0450	66.9411	99.9597	
   575	-0.2947	 1.0288	 0.7341	-0.8079	 1.4847	 0.6768	-0.5768	 1.5179	 0.9412	65.9269	99.9566	
   576	-0.4155	 1.2226	 0.8071	-0.6806	 1.4945	 0.8139	-0.4000	 1.4703	 1.0704	67.0959	99.9576	
   577	-0.3071	 1.2406	 0.9335	-0.7447	 1.6035	 0.8587	-0.3987	 1.4949	 1.0962	66.9030	99.9533	
   578	-0.1321	 0.9853	 0.8533	-0.5955	 1.5057	 0.9102	-0.2347	 1.4396	 1.2049	66.5111	99.9498	
   579	-0.3128	 1.1432	 0.8304	-0.7285	 1.5193	 0.7908	-0.3872	 1.4781	 1.0908	66.7458	99.9566	
   580	-0.5525	 1.4224	 0.8699	-0.7990	 1.5169	 0.7179	-0.4191	 1.4587	 1.0396	67.7985	99.9655	
   581	-0.4250	 1.2012	 0.7762	-0.6831	 1.4528	 0.7698	-0.5404	 1.5043	 0.9639	66.6693	99.9590	
   582	-0.5515	 1.4386	 0.8871	-0.6312	 1.4976	 0.8664	-0.2596	 1.4364	 1.1768	68.2180	99.9635	
   583	-0.1986	 1.1176	 0.9190	-0.5996	 1.5570	 0.9574	-0.3981	 1.5072	 1.1091	66.3957	99.9483	
   584	-0.1701	 1.0408	 0.8707	-0.5258	 1.4942	 0.9684	-0.3993	 1.4826	 1.0833	66.2395	99.9467	
   585	-0.3946	 1.2977	 0.9032	-0.5907	 1.4684	 0.8778	-0.3700	 1.4528	 1.0828	67.3700	99.9594	
   586	-0.3442	 1.1714	 0.8272	-0.5031	 1.4006	 0.8975	-0.3706	 1.4405	 1.0699	67.0185	99.9568	
   587	-0.3242	 1.0894	 0.7652	-0.7106	 1.4630	 0.7524	-0.4446	 1.4433	 0.9987	66.6296	99.9553	
   588	-0.3889	 1.2542	 0.8653	-0.5623	 1.4722	 0.9099	-0.3157	 1.4262	 1.1105	67.4456	99.9556	
   589	-0.2747	 1.2286	 0.9539	-0.8023	 1.5821	 0.7798	-0.2781	 1.4371	 1.1590	67.2520	99.9579	
   590	-0.2643	 1.1253	 0.8610	-0.7098	 1.4769	 0.7671	-0.3527	 1.4276	 1.0748	66.8633	99.9582	
   591	-0.3375	 1.1441	 0.8065	-0.6206	 1.4369	 0.8162	-0.4983	 1.4822	 0.9840	66.5522	99.9566	
   592	-0.3261	 1.0570	 0.7309	-0.7601	 1.4599	 0.6999	-0.3840	 1.4205	 1.0365	66.7454	99.9568	
   593	-0.4669	 1.1918	 0.7249	-0.7625	 1.4182	 0.6557	-0.3974	 1.4005	 1.0031	67.3292	99.9629	
   594	-0.2538	 1.0220	 0.7682	-0.5671	 1.3887	 0.8216	-0.3949	 1.4496	 1.0548	66.4342	99.9565	
   595	-0.1739	 0.9759	 0.8020	-0.5379	 1.4063	 0.8684	-0.3406	 1.4230	 1.0824	66.3952	99.9525	
   596	-0.3043	 1.0075	 0.7032	-0.6944	 1.3788	 0.6845	-0.3565	 1.3539	 0.9974	66.8624	99.9572	
   597	-0.3509	 0.9169	 0.5660	-0.8784	 1.3615	 0.4832	-0.3629	 1.3501	 0.9871	66.7052	99.9618	
   598	-0.5326	 1.0586	 0.5260	-0.6530	 1.2428	 0.5898	-0.4912	 1.3794	 0.8882	66.9785	99.9649	
   599	-0.5497	 1.0484	 0.4987	-0.5776	 1.2078	 0.6303	-0.6003	 1.4204	 0.8201	66.6293	99.9628	
   600	-0.4336	 1.0552	 0.6216	-0.6019	 1.2737	 0.6717	-0.5563	 1.4352	 0.8789	66.5128	99.9625	
   601	-0.4508	 1.0450	 0.5942	-0.8313	 1.3229	 0.4915	-0.5882	 1.4159	 0.8277	66.5131	99.9657	
   602	-0.5174	 1.0364	 0.5191	-0.7024	 1.2397	 0.5373	-0.5952	 1.3997	 0.8045	66.6298	99.9652	
   603	-0.4812	 0.9485	 0.4673	-0.7575	 1.2601	 0.5025	-0.6322	 1.4011	 0.7689	66.2786	99.9618	
   604	-0.5050	 0.9656	 0.4605	-0.6003	 1.1807	 0.5804	-0.7829	 1.4764	 0.6936	65.8090	99.9618	
   605	-0.3937	 0.8913	 0.4976	-0.6935	 1.2720	 0.5784	-0.5640	 1.4068	 0.8428	66.1224	99.9590	
   606	-0.3537	 1.0091	 0.6554	-0.6449	 1.2611	 0.6162	-0.4906	 1.3917	 0.9012	66.5518	99.9649	
   607	-0.4821	 1.0731	 0.5910	-0.7794	 1.2469	 0.4674	-0.5346	 1.3770	 0.8424	66.8640	99.9704	
   608	-0.4270	 0.8870	 0.4600	-0.8005	 1.2475	 0.4470	-0.5952	 1.3997	 0.8045	66.1224	99.9646	
   609	-0.3994	 0.7940	 0.3945	-0.6562	 1.1871	 0.5309	-0.5901	 1.3790	 0.7889	65.9276	99.9592	
   610	-0.6134	 1.0885	 0.4750	-0.7308	 1.2360	 0.5052	-0.5237	 1.3479	 0.8241	67.2124	99.9662	
   611	-0.3509	 0.9169	 0.5660	-0.6181	 1.2370	 0.6189	-0.4548	 1.3658	 0.9110	66.4730	99.9617	
   612	-0.3423	 0.9221	 0.5797	-0.6051	 1.2180	 0.6129	-0.4803	 1.3503	 0.8700	66.4735	99.9617	
   613	-0.5316	 1.0748	 0.5432	-0.6619	 1.2106	 0.5487	-0.5346	 1.3770	 0.8424	66.9411	99.9679	
   614	-0.6201	 1.1158	 0.4957	-0.8029	 1.2058	 0.4029	-0.6150	 1.3759	 0.7609	67.0201	99.9724	
   615	-0.4394	 0.8170	 0.3776	-0.6927	 1.1651	 0.4724	-0.7056	 1.4162	 0.7105	65.6926	99.9624	
   616	-0.4869	 0.9920	 0.5051	-0.8005	 1.2475	 0.4470	-0.4740	 1.3542	 0.8802	66.8618	99.9683	
   617	-0.3138	 0.9861	 0.6723	-0.4949	 1.1773	 0.6824	-0.4184	 1.3521	 0.9337	66.7075	99.9657	
   618	-0.3090	 0.9263	 0.6173	-0.5322	 1.1413	 0.6092	-0.5410	 1.3731	 0.8321	66.2397	99.9664	
   619	-0.3090	 0.7854	 0.4764	-0.6043	 1.1111	 0.5068	-0.6444	 1.4057	 0.7613	65.5748	99.9661	
   620	-0.5487	 1.0646	 0.5158	-0.6181	 1.1162	 0.4982	-0.6367	 1.4341	 0.7974	66.5518	99.9742	
   621	-0.5801	 1.0928	 0.5126	-0.6805	 1.1322	 0.4517	-0.5295	 1.3563	 0.8268	67.1354	99.9747	
   622	-0.4717	 1.1107	 0.6390	-0.4827	 1.1444	 0.6617	-0.2946	 1.2368	 0.9422	67.8723	99.9671	
   623	-0.1302	 0.7360	 0.6058	-0.5387	 1.1508	 0.6122	-0.3655	 1.3010	 0.9355	66.0835	99.9621	
   624	-0.3223	 0.9810	 0.6586	-0.5387	 1.1508	 0.6122	-0.4688	 1.3335	 0.8647	66.6694	99.9675	
   625	-0.4583	 1.1970	 0.7386	-0.4770	 1.1210	 0.6439	-0.3112	 1.2743	 0.9631	67.9139	99.9743	
   626	-0.2824	 0.9579	 0.6756	-0.5938	 1.1712	 0.5774	-0.4440	 1.3367	 0.8927	66.5911	99.9688	
   627	-0.3328	 1.0843	 0.7515	-0.5451	 1.1603	 0.6152	-0.2187	 1.2709	 1.0522	67.6384	99.9736	
   628	-0.1796	 1.0195	 0.8398	-0.4252	 1.1658	 0.7406	-0.3355	 1.2834	 0.9480	66.9829	99.9659	
   629	-0.1349	 0.9366	 0.8017	-0.4398	 1.1570	 0.7172	-0.3948	 1.3308	 0.9359	66.4354	99.9660	
   630	-0.2453	 1.0271	 0.7819	-0.4406	 1.1430	 0.7025	-0.3533	 1.2964	 0.9431	67.0209	99.9681	
   631	-0.1102	 0.7949	 0.6847	-0.4276	 1.1240	 0.6964	-0.5288	 1.3686	 0.8397	65.6519	99.9615	
   632	-0.2339	 0.9400	 0.7062	-0.5111	 1.1407	 0.6296	-0.4618	 1.3497	 0.8878	66.3961	99.9684	
   633	-0.1330	 0.9691	 0.8361	-0.5638	 1.2028	 0.6389	-0.2321	 1.2509	 1.0188	67.0979	99.9680	
   634	-0.1739	 1.1168	 0.9429	-0.4325	 1.1614	 0.7289	-0.1772	 1.2365	 1.0594	67.6834	99.9721	
   635	-0.0950	 0.9136	 0.8186	-0.4219	 1.1006	 0.6787	-0.3042	 1.2905	 0.9863	66.6303	99.9707	
   636	-0.1749	 0.9597	 0.7848	-0.5330	 1.1274	 0.5945	-0.3846	 1.2894	 0.9048	66.7094	99.9711	
   637	-0.2063	 0.9879	 0.7816	-0.4851	 1.1027	 0.6175	-0.4133	 1.3314	 0.9181	66.6309	99.9734	
   638	-0.0731	 0.8641	 0.7910	-0.3101	 1.0877	 0.7777	-0.2065	 1.2663	 1.0598	66.7458	99.9665	
   639	-0.1197	 1.0553	 0.9357	-0.5516	 1.1698	 0.6182	-0.1957	 1.2372	 1.0415	67.4113	99.9738	
   640	-0.0921	 0.9623	 0.8702	-0.3871	 1.0949	 0.7078	-0.1050	 1.1969	 1.0919	67.4464	99.9714	
   641	-0.1872	 1.0306	 0.8433	-0.5395	 1.1369	 0.5975	-0.3821	 1.3385	 0.9564	66.7483	99.9755	
   642	-0.1958	 1.0254	 0.8296	-0.3676	 1.0664	 0.6988	-0.2378	 1.2593	 1.0215	67.2924	99.9739	
   643	-0.1397	 0.9964	 0.8568	-0.4835	 1.1305	 0.6470	-0.2302	 1.2877	 1.0576	67.0583	99.9743	
   644	-0.0388	 1.0255	 0.9867	-0.0612	 1.0101	 0.9489	-0.1350	 1.2145	 1.0794	67.4113	99.9682	
   645	 0.0002	 0.9862	 0.9864	-0.1512	 1.0362	 0.8850	-0.1344	 1.2267	 1.0923	67.2160	99.9701	
   646	-0.0968	 1.0220	 0.9252	-0.3044	 1.0643	 0.7600	-0.1644	 1.2443	 1.0798	67.3317	99.9740	
   647	-0.0151	 0.8675	 0.8525	-0.4025	 1.0721	 0.6697	-0.2148	 1.2256	 1.0108	66.7865	99.9708	
   648	-0.0854	 0.9349	 0.8495	-0.3960	 1.0626	 0.6667	-0.1708	 1.2404	 1.0696	67.0967	99.9745	
   649	-0.0245	 0.9871	 0.9625	-0.2006	 1.0331	 0.8325	-0.0502	 1.1826	 1.1324	67.5641	99.9720	
   650	-0.0274	 1.0793	 1.0519	-0.1787	 1.0464	 0.8676	-0.0553	 1.2033	 1.1480	67.7220	99.9743	
   651	-0.0341	 0.9657	 0.9316	-0.3011	 0.9992	 0.6981	-0.1235	 1.1976	 1.0741	67.3321	99.9770	
   652	-0.0769	 0.9401	 0.8632	-0.2800	 0.9985	 0.7185	-0.2550	 1.2845	 1.0295	66.7863	99.9760	
   653	-0.0579	 0.8419	 0.7840	-0.3586	 0.9778	 0.6192	-0.3380	 1.3532	 1.0152	66.1224	99.9791	
   654	-0.1340	 0.9529	 0.8189	-0.3441	 0.9866	 0.6426	-0.2716	 1.3221	 1.0504	66.7463	99.9803	
   655	-0.0103	 0.9486	 0.9384	-0.1284	 0.9425	 0.8141	-0.0572	 1.1665	 1.1093	67.4866	99.9748	
   656	-0.0873	 1.0434	 0.9561	-0.4243	 1.0589	 0.6346	-0.2014	 1.2456	 1.0442	67.2948	99.9789	
   657	-0.1225	 1.0067	 0.8841	-0.4332	 1.0267	 0.5934	-0.1759	 1.2611	 1.0852	67.2527	99.9811	
   658	-0.0655	 0.8530	 0.7875	-0.5240	 1.0389	 0.5149	-0.3393	 1.3287	 0.9894	66.2396	99.9790	
   659	-0.1825	 0.9708	 0.7883	-0.3546	 0.9266	 0.5720	-0.4810	 1.4570	 0.9759	66.0051	99.9861	
   660	 0.0059	 0.8018	 0.8076	-0.2897	 0.9524	 0.6626	-0.2583	 1.3421	 1.0838	66.1225	99.9794	
   661	-0.0645	 1.0101	 0.9456	-0.0538	 0.8937	 0.8398	-0.1950	 1.2495	 1.0545	67.1772	99.9775	
   662	 0.1314	 0.6891	 0.8205	-0.4616	 1.0229	 0.5613	-0.3738	 1.3792	 1.0054	65.3004	99.9772	
   663	-0.0027	 0.7966	 0.7940	-0.4138	 0.9982	 0.5844	-0.3776	 1.4244	 1.0468	65.6148	99.9811	
   664	-0.0265	 0.8137	 0.7872	-0.4567	 0.9856	 0.5289	-0.4976	 1.4945	 0.9969	65.2224	99.9842	
   665	-0.0893	 0.8701	 0.7808	-0.2160	 0.8896	 0.6736	-0.5646	 1.5134	 0.9487	65.2604	99.9825	
   666	 0.0030	 0.8940	 0.8970	-0.1917	 0.9446	 0.7529	-0.2353	 1.3084	 1.0731	66.5129	99.9782	
   667	 0.0820	 0.8317	 0.9137	-0.1017	 0.9184	 0.8168	-0.2231	 1.3038	 1.0807	66.2787	99.9759	
   668	-0.0284	 0.9222	 0.8938	-0.1171	 0.8957	 0.7786	-0.3738	 1.3792	 1.0054	66.1223	99.9793	
   669	-0.0464	 0.8957	 0.8492	-0.1681	 0.8648	 0.6967	-0.3546	 1.3907	 1.0361	66.0833	99.9836	
   670	-0.0179	 0.8188	 0.8009	-0.2719	 0.8960	 0.6242	-0.4906	 1.5106	 1.0200	65.1836	99.9853	
   671	-0.0721	 0.8803	 0.8082	-0.3465	 0.9449	 0.5984	-0.4389	 1.4349	 0.9960	65.7703	99.9835	
   672	-0.0103	 0.9486	 0.9384	-0.2752	 0.9612	 0.6860	-0.3808	 1.3630	 0.9822	66.2007	99.9809	
   673	 0.1058	 0.8146	 0.9204	-0.2127	 0.9452	 0.7325	-0.1740	 1.2979	 1.1239	66.3175	99.9789	
   674	 0.0411	 0.8385	 0.8796	-0.1171	 0.8957	 0.7786	-0.3572	 1.4605	 1.1033	65.5755	99.9819	
   675	 0.1133	 0.6626	 0.7760	-0.2922	 0.9106	 0.6185	-0.4421	 1.4924	 1.0503	64.7544	99.9826	
   676	 0.0125	 0.7745	 0.7870	-0.3335	 0.9259	 0.5924	-0.5257	 1.5488	 1.0231	64.8313	99.9853	
   677	-0.0265	 0.8137	 0.7872	-0.1681	 0.8648	 0.6967	-0.5532	 1.6154	 1.0623	64.7153	99.9861	
   678	 0.0506	 0.8599	 0.9104	-0.0490	 0.8564	 0.8074	-0.3540	 1.4030	 1.0490	65.8092	99.9804	
   679	-0.0597	 1.0912	 1.0315	-0.3368	 0.9910	 0.6543	-0.2583	 1.3421	 1.0838	66.9440	99.9858	
   680	-0.0578	 0.9828	 0.9249	-0.3108	 0.9530	 0.6422	-0.4906	 1.5106	 1.0200	65.6519	99.9868	
   681	 0.0306	 0.8009	 0.8315	-0.2087	 0.8940	 0.6853	-0.5015	 1.5397	 1.0383	64.9482	99.9843	
   682	-0.0236	 0.8624	 0.8388	-0.2646	 0.9005	 0.6359	-0.6196	 1.6466	 1.0271	64.5943	99.9883	
   683	 0.1200	 0.6353	 0.7553	-0.3562	 0.8988	 0.5426	-0.6304	 1.6757	 1.0453	63.6955	99.9882	
   684	 0.0496	 0.8436	 0.8933	-0.2346	 0.9320	 0.6974	-0.4076	 1.4419	 1.0343	65.5350	99.9821	
   685	 0.1533	 0.7805	 0.9338	-0.3797	 0.9785	 0.5988	-0.2806	 1.3880	 1.1074	65.6532	99.9831	
   686	 0.0116	 0.8991	 0.9107	-0.0911	 0.8577	 0.7666	-0.4332	 1.5454	 1.1122	65.3405	99.9866	
   687	-0.0683	 0.9452	 0.8769	-0.2289	 0.9086	 0.6797	-0.5455	 1.6439	 1.0983	65.0275	99.9894	
   688	 0.0201	 0.7634	 0.7835	-0.2451	 0.8720	 0.6268	-0.6981	 1.6823	 0.9843	64.0043	99.9872	
   689	 0.0116	 0.7582	 0.7698	-0.2589	 0.8770	 0.6181	-0.6873	 1.7721	 1.0849	63.7368	99.9903	
   690	-0.0721	 1.0212	 0.9491	-0.3724	 0.9829	 0.6105	-0.4657	 1.5138	 1.0481	65.8089	99.9881	
   691	 0.0544	 0.9247	 0.9792	-0.1787	 0.9256	 0.7469	-0.3815	 1.4696	 1.0882	65.6916	99.9847	
   692	 0.0753	 0.8590	 0.9343	-0.0968	 0.8811	 0.7843	-0.4159	 1.5201	 1.1042	65.2615	99.9845	
   693	-0.0322	 0.9982	 0.9660	-0.2752	 0.9612	 0.6860	-0.4242	 1.4794	 1.0552	65.8873	99.9859	
   694	 0.2570	 0.5764	 0.8334	-0.0822	 0.8899	 0.8077	-0.5021	 1.5274	 1.0253	64.0834	99.9754	
   695	-0.1025	 1.0656	 0.9630	-0.0352	 0.8513	 0.8161	-0.3655	 1.4199	 1.0544	66.4745	99.9843	
   696	 0.1267	 0.8898	 1.0165	-0.0376	 0.9303	 0.8927	-0.2340	 1.3329	 1.0989	66.2398	99.9761	
   697	 0.2123	 0.8001	 1.0125	 0.0929	 0.8750	 0.9679	-0.2608	 1.2930	 1.0322	65.9653	99.9701	
   698	 0.0953	 0.9179	 1.0133	-0.3222	 0.9999	 0.6777	-0.2991	 1.3887	 1.0896	66.0440	99.9829	
   699	 0.0240	 0.9691	 0.9931	-0.2111	 0.9731	 0.7619	-0.2512	 1.3582	 1.1070	66.4742	99.9814	
   700	 0.0620	 0.9137	 0.9757	-0.2954	 0.9758	 0.6804	-0.4012	 1.4458	 1.0445	65.6910	99.9837	
   701	 0.0325	 0.9743	 1.0068	-0.4178	 1.0494	 0.6316	-0.2934	 1.3803	 1.0869	66.3180	99.9829	
   702	 0.1933	 0.8983	 1.0916	-0.1260	 0.9843	 0.8582	-0.0859	 1.2085	 1.1226	66.8659	99.9743	
   703	 0.2257	 0.8864	 1.1120	 0.1358	 0.8876	 1.0234	-0.0910	 1.2292	 1.1382	66.7095	99.9721	
   704	 0.1676	 0.8829	 1.0506	-0.1544	 0.9805	 0.8261	-0.1944	 1.2618	 1.0674	66.4750	99.9748	
   705	 0.1562	 0.8291	 0.9853	-0.0117	 0.8923	 0.8806	-0.3419	 1.3985	 1.0566	65.6126	99.9769	
   706	 0.1258	 0.8735	 0.9993	 0.1067	 0.8699	 0.9766	-0.4197	 1.4465	 1.0267	65.4547	99.9739	
   707	 0.1372	 0.9273	 1.0645	-0.1544	 0.9805	 0.8261	-0.0674	 1.2078	 1.1404	67.0603	99.9762	
   708	 0.3122	 0.8130	 1.1252	 0.0758	 0.9453	 1.0211	-0.0195	 1.1773	 1.1578	66.7094	99.9677	
   709	 0.2276	 0.9188	 1.1464	 0.0134	 0.9612	 0.9746	-0.0183	 1.2019	 1.1836	67.0217	99.9731	
   710	 0.2161	 0.8650	 1.0812	-0.0295	 0.9486	 0.9191	-0.1153	 1.2383	 1.1231	66.5921	99.9733	
   711	 0.1067	 0.9717	 1.0785	-0.1722	 1.0369	 0.8646	-0.0527	 1.1335	 1.0808	67.4920	99.9695	
   712	 0.1514	 0.8889	 1.0404	-0.0012	 0.9524	 0.9512	-0.0929	 1.1924	 1.0995	66.9437	99.9693	
   713	 0.1505	 1.0136	 1.1641	-0.1155	 1.0443	 0.9288	-0.0559	 1.1910	 1.1351	67.3361	99.9718	
   714	 0.2923	 0.8949	 1.1872	-0.0312	 1.0416	 1.0104	 0.0271	 1.1223	 1.1494	67.2189	99.9644	
   715	 0.2494	 0.8693	 1.1187	-0.0604	 1.0240	 0.9636	 0.0226	 1.1553	 1.1779	67.0994	99.9675	
   716	 0.2846	 0.7651	 1.0498	 0.0069	 0.9707	 0.9776	-0.0846	 1.2331	 1.1484	66.3179	99.9674	
   717	 0.3683	 0.6431	 1.0114	-0.3101	 1.0877	 0.7777	-0.1165	 1.2138	 1.0972	65.8873	99.9649	
   718	 0.2390	 0.8317	 1.0707	 0.0774	 0.9731	 1.0505	-0.0457	 1.1496	 1.1040	66.9051	99.9613	
   719	 0.2694	 0.9282	 1.1977	-0.0580	 1.0657	 1.0077	 0.1471	 1.0522	 1.1993	67.8026	99.9634	
   720	 0.0706	 1.2006	 1.2712	 0.0166	 1.0168	 1.0335	 0.0628	 1.0964	 1.1592	68.4709	99.9720	
   721	 0.1800	 0.9530	 1.1330	 0.0280	 0.9700	 0.9980	-0.0572	 1.1665	 1.1093	67.2189	99.9688	
   722	 0.2390	 0.8317	 1.0707	 0.1245	 0.9344	 1.0589	-0.1823	 1.2572	 1.0749	66.2791	99.9648	
   723	 0.1990	 0.8548	 1.0538	 0.0223	 0.9934	 1.0157	-0.0935	 1.1801	 1.0866	66.8270	99.9627	
   724	 0.1743	 0.9965	 1.1708	-0.0117	 1.0131	 1.0014	 0.0162	 1.1514	 1.1676	67.5303	99.9695	
   725	 0.3874	 0.8267	 1.2140	 0.4665	 0.8862	 1.3528	-0.0087	 1.1482	 1.1396	66.7500	99.9509	
   726	 0.4083	 0.7609	 1.1692	 0.1407	 0.9710	 1.1117	-0.0687	 1.1833	 1.1146	66.3185	99.9601	
   727	 0.3198	 0.8019	 1.1217	 0.1593	 0.9286	 1.0879	-0.1395	 1.2474	 1.1079	66.2007	99.9649	
   728	 0.3189	 0.7857	 1.1045	 0.1958	 0.9507	 1.1465	-0.1383	 1.2720	 1.1337	66.0831	99.9612	
   729	 0.3569	 0.7302	 1.0871	 0.1107	 0.9395	 1.0502	-0.1153	 1.2383	 1.1231	66.0439	99.9646	
   730	 0.2885	 0.9709	 1.2594	 0.0369	 1.0023	 1.0391	 0.1496	 1.1013	 1.2510	67.7244	99.9703	
   731	 0.3798	 0.8378	 1.2175	 0.2574	 0.9208	 1.1782	-0.0068	 1.1851	 1.1783	66.6710	99.9637	
   732	 0.1848	 1.0341	 1.2189	 0.0296	 0.9978	 1.0274	-0.1153	 1.2383	 1.1231	67.0639	99.9717	
   733	 0.4121	 0.6849	 1.0970	 0.2015	 0.9273	 1.1287	-0.0668	 1.2201	 1.1534	66.0048	99.9605	
   734	 0.2742	 0.8685	 1.1426	 0.1731	 0.9235	 1.0966	-0.1580	 1.2481	 1.0901	66.3970	99.9658	
   735	 0.5900	 0.4783	 1.0683	 0.2436	 0.9259	 1.1695	-0.0750	 1.1794	 1.1044	65.3375	99.9495	
   736	 0.3284	 0.9479	 1.2763	 0.2509	 0.9303	 1.1812	 0.0443	 1.0971	 1.1414	67.4172	99.9629	
   737	 0.4463	 0.7054	 1.1518	-0.0053	 1.0036	 0.9984	-0.0316	 1.1819	 1.1503	66.2007	99.9641	
   738	 0.2314	 0.9837	 1.2151	 0.2558	 0.8930	 1.1488	-0.0795	 1.2124	 1.1329	67.0244	99.9684	
   739	 0.2000	 1.0119	 1.2119	-0.0539	 1.0145	 0.9606	-0.0897	 1.2538	 1.1640	66.9844	99.9751	
   740	 0.2780	 0.9334	 1.2114	-0.2590	 1.1186	 0.8596	-0.0489	 1.2071	 1.1583	66.9062	99.9710	
   741	 0.3008	 1.0410	 1.3418	 0.3141	 0.9283	 1.2424	-0.0131	 1.1812	 1.1681	67.3005	99.9660	
   742	 0.3370	 0.9530	 1.2900	 0.3068	 0.9239	 1.2307	 0.0296	 1.1714	 1.2010	67.1415	99.9649	
   743	 0.4787	 0.6935	 1.1722	 0.0718	 0.9965	 1.0682	-0.1650	 1.2320	 1.0669	65.6892	99.9598	
   744	 0.3636	 0.8437	 1.2073	 0.0361	 0.9883	 1.0244	-0.2135	 1.2502	 1.0366	66.0827	99.9662	
   745	 0.4692	 0.6721	 1.1413	 0.2995	 0.9195	 1.2190	-0.1535	 1.2152	 1.0616	65.7289	99.9522	
   746	 0.4321	 0.8847	 1.3168	 0.2476	 0.9955	 1.2431	 0.2684	 1.0067	 1.2751	67.8422	99.9574	
   747	 0.3418	 1.0341	 1.3759	-0.0555	 1.1074	 1.0519	 0.1528	 1.0438	 1.1967	68.0050	99.9645	
   748	 0.6128	 0.5859	 1.1988	 0.1552	 0.9799	 1.1351	 0.0577	 1.1171	 1.1748	66.0438	99.9550	
   749	 0.3522	 0.9308	 1.2830	 0.2801	 0.9480	 1.2281	 0.0884	 1.1118	 1.2002	67.3760	99.9616	
   750	 0.2523	 1.0589	 1.3112	 0.3206	 0.9188	 1.2394	-0.0463	 1.1374	 1.0910	67.4986	99.9622	
   751	 0.5548	 0.7234	 1.2782	 0.3919	 0.9351	 1.3270	 0.1292	 1.0652	 1.1944	66.7890	99.9496	
   752	 0.4759	 0.9266	 1.4025	 0.4625	 0.9375	 1.3999	 0.1828	 1.0263	 1.2091	67.6532	99.9519	
   753	 0.4492	 0.8950	 1.3442	 0.1998	 1.0202	 1.2200	 0.0143	 1.1146	 1.1289	66.9877	99.9566	
   754	 0.5929	 0.6679	 1.2608	 0.1415	 0.9850	 1.1264	 0.0577	 1.1171	 1.1748	66.2793	99.9586	
   755	 0.5072	 0.7575	 1.2648	 0.2517	 0.9442	 1.1960	 0.0207	 1.1185	 1.1392	66.5544	99.9577	
   756	 0.3703	 0.9573	 1.3276	 0.0328	 1.0535	 1.0863	 0.0022	 1.1191	 1.1213	67.2232	99.9633	
   757	 0.4987	 0.8933	 1.3920	 0.0474	 1.0623	 1.1097	-0.0087	 1.1482	 1.1396	66.7524	99.9631	
   758	 0.4797	 0.8506	 1.3303	 0.1504	 1.0172	 1.1676	 0.0347	 1.1507	 1.1855	66.7507	99.9617	
   759	 0.4159	 0.8907	 1.3066	 0.2047	 0.9829	 1.1876	-0.0719	 1.2408	 1.1689	66.4366	99.9647	
   760	 0.4587	 0.7755	 1.2342	 0.0442	 1.0067	 1.0509	-0.0183	 1.2019	 1.1836	66.3184	99.9661	
   761	 0.2752	 1.0256	 1.3007	 0.3539	 0.8852	 1.2391	 0.0405	 1.1423	 1.1828	67.5337	99.9663	
   762	 0.4721	 0.8617	 1.3338	 0.1496	 1.0033	 1.1528	 0.0698	 1.1125	 1.1824	66.9862	99.9622	
   763	 0.5120	 0.8387	 1.3507	 0.1633	 0.9982	 1.1615	 0.0711	 1.1371	 1.2082	66.7898	99.9635	
   764	 0.6043	 0.5808	 1.1851	 0.1058	 0.9768	 1.0826	-0.0744	 1.1917	 1.1173	65.5324	99.9583	
   765	 0.3807	 0.8540	 1.2347	 0.0912	 0.9680	 1.0592	-0.0789	 1.2247	 1.1458	66.4363	99.9688	
   766	 0.3741	 0.8813	 1.2554	 0.0718	 0.9965	 1.0682	-0.0176	 1.2142	 1.1966	66.6712	99.9691	
   767	 0.4350	 0.9334	 1.3684	-0.1261	 1.1051	 0.9790	 0.0941	 1.1034	 1.1975	67.3001	99.9672	
   768	 0.3541	 1.1042	 1.4583	 0.1990	 1.0063	 1.2053	 0.0526	 1.1378	 1.1904	67.6560	99.9680	
   769	 0.4178	 0.9232	 1.3410	 0.1966	 0.9646	 1.1612	-0.0923	 1.2047	 1.1124	66.5948	99.9656	
   770	 0.3370	 0.9530	 1.2900	 0.2363	 0.9215	 1.1578	-0.0329	 1.1574	 1.1244	67.0653	99.9662	
   771	 0.3360	 0.9368	 1.2728	 0.1885	 0.9463	 1.1348	-0.1580	 1.2481	 1.0901	66.4764	99.9670	
   772	 0.4055	 0.9940	 1.3995	 0.2193	 0.9917	 1.2110	 0.0577	 1.1171	 1.1748	67.3802	99.9638	
   773	 0.7413	 0.6628	 1.4041	 0.2890	 0.9802	 1.2692	-0.0016	 1.1644	 1.1627	65.7671	99.9550	
   774	 0.7118	 0.5826	 1.2943	 0.0572	 0.9877	 1.0448	-0.0866	 1.3151	 1.2286	64.9426	99.9691	
   775	 0.4597	 0.7917	 1.2514	 0.1439	 0.9059	 1.0498	-0.3508	 1.4644	 1.1136	64.8209	99.9761	
   776	 0.2180	 0.8975	 1.1155	 0.1788	 0.7793	 0.9582	-0.7236	 1.7858	 1.0622	63.6368	99.9859	
   777	 0.4274	 0.9445	 1.3719	 0.3384	 0.9833	 1.3217	 0.3545	 0.9994	 1.3539	68.1904	99.9587	
   778	 1.0781	 0.7705	 1.8486	 0.7915	 1.1499	 1.9413	 0.8561	 0.8987	 1.7548	68.1099	99.9273	
   779	 1.0401	 0.9669	 2.0070	 0.1847	 2.2193	 2.4041	 1.0501	 1.0636	 2.1137	68.4812	99.8231	
   780	 1.3493	 1.3086	 2.6579	 1.2606	 1.4739	 2.7346	 1.5675	 1.3887	 2.9562	68.7992	99.9563	
   781	 1.3332	 1.3145	 2.6477	 1.0684	 1.8007	 2.8691	 1.4016	 1.4072	 2.8088	68.4662	99.9200	
   782	 1.6158	 1.6246	 3.2404	 1.9536	 1.5306	 3.4842	 1.7411	 1.5175	 3.2586	69.1152	99.9429	
   783	 1.6795	 1.5845	 3.2640	 1.7420	 1.6443	 3.3863	 1.7972	 1.5277	 3.3249	68.9966	99.9466	
   784	 1.4436	 1.7876	 3.2312	 1.7656	 1.5645	 3.3301	 1.7889	 1.4870	 3.2759	69.9508	99.9552	
   785	 1.5967	 1.4410	 3.0377	 1.7291	 1.5425	 3.2716	 1.6945	 1.4536	 3.1481	68.8065	99.9406	
   786	 1.4673	 1.4888	 2.9561	 1.7389	 1.4678	 3.2067	 1.7156	 1.3831	 3.0987	69.3771	99.9438	
   787	 1.3760	 1.4811	 2.8571	 1.8410	 1.4088	 3.2498	 1.6601	 1.3852	 3.0453	69.3751	99.9381	
   788	 1.3988	 1.4478	 2.8466	 1.7575	 1.4254	 3.1829	 1.6607	 1.3975	 3.0582	69.2210	99.9424	
   789	 1.3789	 1.5297	 2.9086	 1.6894	 1.4648	 3.1542	 1.5982	 1.3834	 2.9816	69.3850	99.9422	
   790	 1.3655	 1.4435	 2.8090	 1.5897	 1.4448	 3.0345	 1.3621	 1.3594	 2.7215	68.8269	99.9344	
   791	 1.2418	 1.3068	 2.5486	 1.5444	 1.3905	 2.9348	 1.3583	 1.2858	 2.6440	68.8941	99.9272	
   792	 1.1971	 1.1079	 2.3049	 1.2250	 1.4658	 2.6908	 1.1770	 1.2475	 2.4245	68.2445	99.9162	
   793	 0.8888	 1.0642	 1.9530	 0.7450	 1.8064	 2.5514	 1.1490	 1.1829	 2.3319	68.7305	99.8774	
   794	 0.9525	 1.0241	 1.9766	 0.5609	 2.0307	 2.5916	 1.1560	 1.1991	 2.3550	68.5010	99.8523	
   795	 0.8631	 1.1897	 2.0529	 0.3379	 2.1912	 2.5291	 0.9830	 1.2014	 2.1844	68.7094	99.8406	
   796	 0.8289	 1.3101	 2.1390	 0.4101	 2.1006	 2.5107	 0.9881	 1.1807	 2.1689	69.1389	99.8587	
   797	 0.8184	 1.2725	 2.0910	 0.1442	 2.3693	 2.5134	 0.9486	 1.1330	 2.0816	69.1435	99.8144	
   798	 0.8803	 1.2000	 2.0802	 0.1547	 2.4293	 2.5840	 1.0660	 1.1327	 2.1987	69.0939	99.8030	
   799	 1.2389	 0.9764	 2.2153	 0.5560	 2.0680	 2.6240	 1.1783	 1.1531	 2.3315	68.1692	99.8478	
   800	 1.1029	 1.1924	 2.2953	 0.6193	 1.9452	 2.5645	 1.3066	 1.1237	 2.4303	69.2408	99.8818	
   801	 1.1057	 1.1001	 2.2059	 0.4887	 2.1213	 2.6100	 1.2760	 1.1290	 2.4050	68.9309	99.8508	
   802	 1.2684	 0.9158	 2.1841	 0.6857	 1.9988	 2.6845	 1.2945	 1.1283	 2.4228	68.2772	99.8496	
   803	 1.1381	 1.0882	 2.2263	 0.6371	 2.0096	 2.6468	 1.2843	 1.1697	 2.4539	68.7369	99.8654	
   804	 1.4092	 1.0627	 2.4719	 1.0426	 1.5971	 2.6396	 1.4821	 1.1705	 2.6526	68.6592	99.9215	
   805	 1.3446	 1.2274	 2.5720	 1.2866	 1.4359	 2.7225	 1.5261	 1.1852	 2.7114	69.1957	99.9386	
   806	 1.3027	 1.3589	 2.6617	 1.3223	 1.4441	 2.7663	 1.5810	 1.1709	 2.7519	69.7329	99.9422	
   807	 1.4226	 1.1489	 2.5715	 1.5671	 1.2968	 2.8639	 1.5753	 1.1793	 2.7546	69.0009	99.9370	
   808	 1.3360	 1.3632	 2.6992	 1.2728	 1.4410	 2.7138	 1.5944	 1.1909	 2.7853	69.6560	99.9488	
   809	 1.4721	 1.2881	 2.7602	 1.5971	 1.3284	 2.9255	 1.7367	 1.1938	 2.9305	69.5314	99.9477	
   810	 1.4740	 1.4614	 2.9354	 1.7170	 1.3338	 3.0508	 1.7565	 1.2176	 2.9741	69.9216	99.9505	
   811	 1.5643	 1.3121	 2.8764	 1.7154	 1.3060	 3.0214	 1.7380	 1.2183	 2.9563	69.3850	99.9482	
   812	 1.5187	 1.3786	 2.8973	 1.5428	 1.3626	 2.9054	 1.7686	 1.2131	 2.9817	69.6891	99.9552	
   813	 1.5720	 1.3010	 2.8729	 1.6952	 1.3206	 3.0157	 1.7322	 1.2267	 2.9590	69.3082	99.9478	
   814	 1.7213	 1.1712	 2.8925	 1.7932	 1.3128	 3.1060	 1.8446	 1.2471	 3.0917	68.9165	99.9457	
   815	 1.8402	 1.2268	 3.0670	 1.9943	 1.2599	 3.2541	 1.9684	 1.2507	 3.2191	69.1071	99.9501	
   816	 1.8878	 1.1926	 3.0804	 2.0778	 1.2432	 3.3210	 1.9862	 1.2377	 3.2240	69.0314	99.9457	
   817	 1.7575	 1.3651	 3.1225	 1.9391	 1.2802	 3.2194	 2.0117	 1.2532	 3.2649	69.6390	99.9576	
   818	 1.8612	 1.1610	 3.0222	 2.0551	 1.2161	 3.2712	 2.0169	 1.2325	 3.2494	69.0635	99.9493	
   819	 1.8298	 1.1892	 3.0189	 1.9724	 1.2466	 3.2190	 2.0781	 1.2220	 3.3001	69.3243	99.9532	
   820	 1.8926	 1.2737	 3.1663	 2.1061	 1.2470	 3.3531	 2.1783	 1.2470	 3.4253	69.5500	99.9560	
   821	 2.0343	 1.1551	 3.1894	 2.1402	 1.2273	 3.3675	 2.2153	 1.2456	 3.4609	69.1317	99.9554	
   822	 1.9126	 1.3327	 3.2452	 2.0859	 1.2616	 3.3474	 2.1719	 1.2431	 3.4150	69.6708	99.9583	
   823	 2.1209	 1.0817	 3.2026	 2.0567	 1.2439	 3.3006	 2.1598	 1.2477	 3.4075	68.7195	99.9553	
   824	 1.9915	 1.1295	 3.1210	 2.0291	 1.2541	 3.2832	 2.1834	 1.2263	 3.4097	69.1317	99.9543	
   825	 1.8545	 1.3292	 3.1838	 2.0640	 1.2483	 3.3123	 2.2517	 1.2319	 3.4836	69.9231	99.9616	
   826	 1.9459	 1.3369	 3.2828	 2.2383	 1.2195	 3.4578	 2.3998	 1.2264	 3.6262	70.1037	99.9619	
   827	 1.9792	 1.3412	 3.3204	 2.1004	 1.2704	 3.3708	 2.3698	 1.2439	 3.6137	69.9577	99.9651	
   828	 1.9326	 1.3916	 3.3241	 2.4312	 1.1482	 3.5794	 2.3883	 1.2432	 3.6315	70.1821	99.9607	
   829	 2.0524	 1.1816	 3.2340	 2.2391	 1.2334	 3.4725	 2.4253	 1.2419	 3.6671	69.5684	99.9577	
   830	 1.9887	 1.2217	 3.2103	 2.1742	 1.2076	 3.3818	 2.3276	 1.2660	 3.5936	69.4987	99.9628	
   831	 1.9658	 1.2550	 3.2208	 2.2585	 1.2049	 3.4634	 2.4010	 1.2510	 3.6520	69.7946	99.9607	
   832	 2.0143	 1.2371	 3.2514	 2.4806	 1.1513	 3.6319	 2.5300	 1.2338	 3.7638	69.9725	99.9570	
   833	 2.0857	 1.1858	 3.2715	 2.4101	 1.1489	 3.5590	 2.5414	 1.2170	 3.7585	69.8247	99.9604	
   834	 1.9649	 1.2387	 3.2036	 2.3542	 1.1554	 3.5096	 2.4980	 1.2145	 3.7126	70.0492	99.9608	
   835	 1.8288	 1.3138	 3.1427	 2.2496	 1.1727	 3.4223	 2.4847	 1.1945	 3.6792	70.4598	99.9633	
   836	 1.9325	 1.1098	 3.0423	 2.1175	 1.2001	 3.3176	 2.4349	 1.1882	 3.6231	69.7459	99.9590	
   837	 2.0552	 0.9485	 3.0037	 2.1807	 1.1981	 3.3788	 2.4228	 1.1927	 3.6155	69.1434	99.9508	
   838	 2.0990	 0.9903	 3.0893	 2.2983	 1.1618	 3.4601	 2.4968	 1.1900	 3.6868	69.3304	99.9535	
   839	 1.9230	 1.2293	 3.1524	 2.3039	 1.1384	 3.4423	 2.5140	 1.1647	 3.6788	70.2735	99.9615	
   840	 2.0324	 0.9818	 3.0141	 2.4004	 1.1028	 3.5032	 2.4706	 1.1623	 3.6329	69.4427	99.9487	
   841	 1.9572	 1.1090	 3.0662	 2.4280	 1.0926	 3.5206	 2.4949	 1.1532	 3.6480	69.9325	99.9527	
   842	 1.8792	 1.1875	 3.0667	 2.3380	 1.1187	 3.4567	 2.5006	 1.1447	 3.6454	70.2698	99.9568	
   843	 1.9040	 1.1866	 3.0906	 2.2083	 1.1879	 3.3962	 2.5702	 1.1749	 3.7451	70.2599	99.9617	
   844	 2.1970	 0.9707	 3.1677	 2.5196	 1.0943	 3.6139	 2.6800	 1.1462	 3.8262	69.6221	99.9530	
   845	 2.0105	 1.1722	 3.1827	 2.3955	 1.1401	 3.5356	 2.6066	 1.1613	 3.7678	70.1907	99.9585	
   846	 2.1608	 0.9178	 3.0786	 2.3534	 1.1415	 3.4948	 2.5702	 1.1749	 3.7451	69.2492	99.9522	
   847	 1.9449	 1.1798	 3.1247	 2.4012	 1.1167	 3.5179	 2.5683	 1.1381	 3.7064	70.3050	99.9565	
   848	 2.0200	 1.0526	 3.0726	 2.3518	 1.1136	 3.4654	 2.5198	 1.1563	 3.6761	69.7426	99.9553	
   849	 1.9887	 1.2217	 3.2103	 2.5034	 1.0577	 3.5610	 2.6429	 1.1476	 3.7906	70.4520	99.9631	
   850	 2.2436	 0.9203	 3.1639	 2.3258	 1.1516	 3.4775	 2.5868	 1.1374	 3.7242	69.2945	99.9529	
   851	 2.1893	 0.8409	 3.0302	 2.2407	 1.1404	 3.3812	 2.5172	 1.1072	 3.6245	69.1443	99.9495	
   852	 1.8773	 1.1550	 3.0324	 2.2464	 1.1170	 3.3634	 2.4547	 1.0932	 3.5479	70.2785	99.9559	
   853	 2.0038	 0.9177	 2.9215	 2.2399	 1.1265	 3.3664	 2.4170	 1.0823	 3.4993	69.4865	99.9444	
   854	 1.8849	 1.0031	 2.8880	 2.2529	 1.1075	 3.3604	 2.4534	 1.0686	 3.5220	69.9691	99.9475	
   855	 1.9220	 1.0722	 2.9943	 2.3818	 1.0244	 3.4062	 2.5447	 1.0406	 3.5853	70.3452	99.9551	
   856	 1.9163	 0.9749	 2.8912	 2.1192	 1.1072	 3.2263	 2.4426	 0.9788	 3.4214	70.1308	99.9487	
   857	 1.8735	 0.8084	 2.6818	 1.8395	 1.2602	 3.0996	 2.2116	 0.9342	 3.1458	69.5037	99.9232	
   858	 1.7289	 0.8783	 2.6072	 1.6805	 1.4325	 3.1131	 2.1465	 0.8710	 3.0175	69.9646	99.8984	
   859	 1.7441	 0.7152	 2.4593	 1.4559	 1.6860	 3.1419	 2.1434	 0.8096	 2.9530	69.7330	99.8517	
   860	 1.8582	 0.6897	 2.5479	 1.8508	 1.3342	 3.1849	 2.2888	 0.8739	 3.1627	69.5673	99.9000	
   861	 2.0523	 0.8998	 2.9521	 2.3478	 1.0441	 3.3918	 2.5964	 0.9649	 3.5613	70.0823	99.9464	
   862	 2.2027	 1.0680	 3.2707	 2.5228	 1.0292	 3.5520	 2.5862	 1.0063	 3.5924	70.1441	99.9519	
   863	 2.2303	 1.1159	 3.3462	 2.5042	 1.0716	 3.5757	 2.4554	 0.9865	 3.4419	70.0550	99.9442	
   864	 2.2303	 0.9750	 3.2052	 2.4377	 1.0180	 3.4557	 2.4860	 0.9813	 3.4673	69.7754	99.9492	
   865	 1.9896	 1.0970	 3.0866	 2.1686	 1.1102	 3.2788	 2.4362	 0.9750	 3.4112	70.3378	99.9527	
   866	 2.2674	 0.9033	 3.1706	 2.2740	 1.1068	 3.3808	 2.5339	 0.9508	 3.4847	69.7330	99.9458	
   867	 2.1352	 1.1842	 3.3193	 2.5139	 0.9969	 3.5109	 2.5696	 0.9249	 3.4945	70.7643	99.9538	
   868	 2.1875	 1.2311	 3.4186	 2.3842	 1.0661	 3.4504	 2.5013	 0.9192	 3.4206	70.7088	99.9546	
   869	 2.2389	 1.2619	 3.5008	 2.4969	 1.0672	 3.5640	 2.3986	 0.9641	 3.3626	70.3825	99.9490	
   870	 2.2921	 1.1842	 3.4763	 2.4296	 1.1204	 3.5500	 2.4171	 0.9634	 3.3805	70.1496	99.9452	
   871	 2.1437	 1.0484	 3.1921	 2.1394	 1.2134	 3.3528	 2.2818	 0.9766	 3.2584	69.7209	99.9369	
   872	 1.9953	 1.0535	 3.0487	 2.3015	 1.0967	 3.3982	 2.2678	 0.9444	 3.2121	70.0180	99.9333	
   873	 1.9933	 0.8801	 2.8735	 2.2302	 1.0804	 3.3106	 2.2729	 0.9237	 3.1965	69.6644	99.9296	
   874	 1.8678	 0.9928	 2.8606	 2.1192	 1.1072	 3.2263	 2.2237	 0.9296	 3.1533	70.0086	99.9352	
   875	 1.9296	 0.9202	 2.8499	 1.9684	 1.1771	 3.1454	 2.2052	 0.9303	 3.1355	69.7068	99.9335	
   876	 1.9705	 0.7725	 2.7430	 2.1345	 1.1299	 3.2645	 2.1497	 0.9324	 3.0821	69.1735	99.9172	
   877	 1.6909	 1.2156	 2.9065	 2.0446	 1.1560	 3.2006	 2.2065	 0.9548	 3.1613	70.6922	99.9424	
   878	 2.0562	 0.9647	 3.0208	 2.1078	 1.1540	 3.2618	 2.2805	 0.9521	 3.2326	69.7100	99.9380	
   879	 1.9629	 1.0654	 3.0283	 2.2797	 1.0834	 3.3631	 2.2799	 0.9398	 3.2197	70.1290	99.9367	
   880	 2.0466	 0.9433	 2.9900	 2.2180	 1.1133	 3.3313	 2.2225	 0.9051	 3.1275	69.7187	99.9272	
   881	 2.0409	 0.7051	 2.7460	 1.5905	 1.5795	 3.1699	 1.9679	 0.7629	 2.7308	69.1289	99.8546	
   882	 1.7926	 0.6973	 2.4899	 1.2370	 1.9160	 3.1530	 1.7349	 0.8003	 2.5352	68.8992	99.7948	
   883	 1.7660	 0.8066	 2.5726	 1.4551	 1.6721	 3.1272	 1.8862	 0.8561	 2.7423	69.3072	99.8530	
   884	 1.8554	 0.7819	 2.6373	 1.6667	 1.4376	 3.1044	 2.0221	 0.8551	 2.8772	69.3751	99.8880	
   885	 1.9086	 0.7042	 2.6128	 1.6164	 1.5415	 3.1579	 1.9238	 0.8670	 2.7908	68.8857	99.8646	
   886	 1.5434	 1.0960	 2.6394	 1.3384	 1.7223	 3.0606	 1.9353	 0.8502	 2.7855	70.4502	99.8710	
   887	 1.6508	 0.8160	 2.4668	 1.1981	 1.8522	 3.0503	 1.8849	 0.8316	 2.7165	69.5687	99.8337	
   888	 1.5405	 0.9064	 2.4469	 1.1721	 1.8902	 3.0624	 1.8230	 0.8298	 2.6528	69.8403	99.8269	
   889	 1.4140	 1.0029	 2.4169	 0.9443	 2.0880	 3.0323	 1.7260	 0.8662	 2.5922	69.9589	99.8079	
   890	 1.7060	 0.6298	 2.3358	 1.0262	 2.0436	 3.0698	 1.8179	 0.8505	 2.6683	68.8407	99.7917	
   891	 1.8382	 0.4899	 2.3281	 1.0018	 2.1094	 3.1112	 1.7624	 0.8525	 2.6149	68.1952	99.7667	
   892	 1.6422	 0.6700	 2.3122	 0.7375	 2.2852	 3.0227	 1.7183	 0.8378	 2.5561	68.8866	99.7557	
   893	 1.3997	 0.9004	 2.3001	 0.5632	 2.4348	 2.9980	 1.7292	 0.8087	 2.5379	69.9170	99.7447	
   894	 1.6470	 0.4693	 2.1163	 0.4772	 2.5305	 3.0077	 1.6430	 0.8160	 2.4590	68.3098	99.6890	
   895	 1.5956	 0.4385	 2.0341	 0.6646	 2.2410	 2.9056	 1.5818	 0.8265	 2.4083	68.1562	99.7381	
   896	 1.4995	 0.6315	 2.1310	 0.5477	 2.5328	 3.0806	 1.6934	 0.8346	 2.5281	68.9539	99.6972	
   897	 1.4729	 0.8817	 2.3546	 0.3475	 2.5997	 2.9472	 1.7234	 0.8171	 2.5405	69.7307	99.7279	
   898	 1.3236	 1.0114	 2.3350	 0.5380	 2.4867	 3.0247	 1.7522	 0.7750	 2.5272	70.4541	99.7375	
   899	 1.2237	 0.9986	 2.2223	 0.6037	 2.5264	 3.1301	 1.6482	 0.7953	 2.4435	70.3019	99.7064	
   900	 1.5556	 0.4616	 2.0172	 0.7653	 1.7918	 2.5571	 1.6233	 0.7921	 2.4154	68.4605	99.8348	
   901	 1.4748	 0.4914	 1.9662	 0.7904	 1.8607	 2.6511	 1.5792	 0.7774	 2.3566	68.6147	99.8113	
   902	 1.3292	 0.6861	 2.0153	 0.9282	 1.8098	 2.7380	 1.5499	 0.8072	 2.3570	69.1518	99.8214	
   903	 1.6041	 0.4437	 2.0478	 0.7246	 2.1834	 2.9079	 1.6003	 0.8258	 2.4261	68.1940	99.7485	
   904	 1.4177	 0.7860	 2.2037	 0.4822	 2.3723	 2.8545	 1.6596	 0.7785	 2.4381	69.5771	99.7499	
   905	 1.2684	 0.7749	 2.0432	 0.9145	 1.4525	 2.3671	 1.5065	 0.8047	 2.3112	69.3870	99.8967	
   906	 1.5537	 0.2882	 1.8419	 1.1043	 1.3256	 2.4299	 1.4682	 0.7815	 2.2497	67.7744	99.8733	
   907	 1.2721	 0.5580	 1.8301	 1.1173	 1.0651	 2.1824	 1.4204	 0.6931	 2.1135	69.0464	99.9153	
   908	 1.0961	 0.5152	 1.6113	 1.0493	 0.8628	 1.9122	 1.1868	 0.7182	 1.9050	68.6669	99.9344	
   909	 0.9040	 0.7602	 1.6642	 0.9691	 0.9351	 1.9042	 1.3993	 0.6447	 2.0440	70.1856	99.9410	
   910	 1.1304	 0.5357	 1.6661	 1.1652	 0.9195	 2.0847	 1.2863	 0.7309	 2.0173	68.8146	99.9252	
   911	 1.0876	 0.6510	 1.7386	 1.0606	 0.9368	 1.9975	 1.4363	 0.6433	 2.0797	69.7307	99.9350	
   912	 0.9848	 0.7304	 1.7152	 1.0233	 1.0216	 2.0450	 1.2812	 0.7516	 2.0328	69.4284	99.9297	
   913	 1.0543	 0.7876	 1.8419	 0.9341	 1.1825	 2.1166	 1.4523	 0.7124	 2.1647	69.9205	99.9219	
   914	 0.9401	 0.8132	 1.7533	 1.0574	 1.0020	 2.0593	 1.4089	 0.7099	 2.1188	70.0705	99.9355	
   915	 0.8079	 0.9532	 1.7611	 1.0979	 0.9728	 2.0707	 1.3604	 0.7282	 2.0885	70.4554	99.9401	
   916	 0.9963	 0.7842	 1.7804	 1.1344	 0.9948	 2.1292	 1.5071	 0.6981	 2.2052	70.1387	99.9342	
   917	 1.0952	 0.6399	 1.7351	 1.1084	 1.0328	 2.1413	 1.4950	 0.7026	 2.1977	69.6039	99.9249	
   918	 1.0343	 0.7287	 1.7630	 1.0241	 1.0355	 2.0597	 1.4874	 0.6742	 2.1616	69.9902	99.9312	
   919	 0.8555	 0.9190	 1.7745	 1.1466	 0.9619	 2.1085	 1.4204	 0.6931	 2.1135	70.5295	99.9373	
   920	 1.0514	 0.5980	 1.6495	 1.0428	 0.9931	 2.0359	 1.3470	 0.7082	 2.0551	69.2688	99.9257	
   921	 0.9725	 0.6603	 1.6328	 1.1449	 0.9341	 2.0790	 1.3719	 0.7113	 2.0832	69.5697	99.9294	
   922	 0.7775	 0.9976	 1.7751	 1.1401	 0.9714	 2.1115	 1.2876	 0.7555	 2.0431	70.3864	99.9378	
   923	 1.2369	 0.3804	 1.6173	 1.1125	 0.9816	 2.0941	 1.4331	 0.7008	 2.1340	68.6500	99.9178	
   924	 1.0895	 0.5425	 1.6320	 1.0079	 0.9989	 2.0068	 1.3527	 0.6997	 2.0525	69.1152	99.9248	
   925	 1.0780	 0.4888	 1.5668	 0.9796	 0.9952	 1.9747	 1.2557	 0.7362	 1.9919	68.6961	99.9227	
   926	 0.9544	 0.6339	 1.5882	 0.9626	 0.9446	 1.9072	 1.2914	 0.7102	 2.0017	69.3840	99.9355	
   927	 0.8821	 0.6689	 1.5509	 1.0169	 0.9103	 1.9272	 1.2244	 0.7291	 1.9536	69.3860	99.9350	
   928	 0.8926	 0.7064	 1.5990	 1.0469	 0.9419	 1.9888	 1.3227	 0.7173	 2.0400	69.6858	99.9342	
   929	 0.8964	 0.7713	 1.6677	 0.9780	 0.9673	 1.9453	 1.2742	 0.7355	 2.0097	69.6945	99.9387	
   930	 0.8650	 0.7995	 1.6645	 1.0047	 0.9433	 1.9480	 1.3221	 0.7050	 2.0271	69.9973	99.9403	
   931	 0.7080	 0.9403	 1.6484	 1.1409	 0.8645	 2.0055	 1.1995	 0.7260	 1.9255	70.2749	99.9406	
   932	 0.8203	 0.7414	 1.5617	 0.9812	 0.9022	 1.8834	 1.1753	 0.7351	 1.9104	69.5438	99.9393	
   933	 0.8117	 0.7363	 1.5480	 0.7867	 0.9456	 1.7323	 1.2653	 0.6825	 1.9478	69.8821	99.9453	
   934	 1.0352	 0.4631	 1.4983	 0.9545	 0.9263	 1.8808	 1.3208	 0.6804	 2.0012	68.9966	99.9299	
   935	 0.9782	 0.6168	 1.5950	 1.1158	 0.9165	 2.0322	 1.2793	 0.7148	 1.9941	69.2707	99.9278	
   936	 0.8250	 0.8225	 1.6476	 0.9755	 0.9256	 1.9012	 1.2493	 0.7323	 1.9816	69.8867	99.9440	
   937	 0.7679	 0.8353	 1.6033	 1.0291	 0.8774	 1.9065	 1.3329	 0.6759	 2.0088	70.3365	99.9448	
   938	 0.7955	 0.7423	 1.5378	 0.9918	 0.8415	 1.8333	 1.2902	 0.6857	 1.9759	69.9542	99.9468	
   939	 0.6547	 0.8771	 1.5319	 0.9772	 0.8326	 1.8098	 1.0770	 0.7469	 1.8239	69.8947	99.9481	
   940	 0.6928	 0.8216	 1.5144	 0.9569	 0.8472	 1.8042	 1.2110	 0.7091	 1.9202	70.0729	99.9484	
   941	 0.7879	 0.7534	 1.5413	 0.8783	 0.9473	 1.8256	 1.3036	 0.7057	 2.0092	69.9508	99.9429	
   942	 0.7984	 0.7909	 1.5893	 0.8961	 0.8910	 1.7871	 1.2123	 0.7337	 1.9460	69.7713	99.9499	
   943	 0.7261	 0.8259	 1.5520	 0.9788	 0.8605	 1.8393	 1.1498	 0.7196	 1.8694	69.8912	99.9447	
   944	 0.9743	 0.4110	 1.3853	 1.0315	 0.7984	 1.8299	 1.1013	 0.7378	 1.8391	68.3529	99.9330	
   945	 0.5063	 1.0231	 1.5294	 0.8929	 0.8354	 1.7283	 1.2755	 0.6411	 1.9166	71.1770	99.9565	
   946	 0.9144	 0.3751	 1.2895	 0.9270	 0.8157	 1.7426	 1.0949	 0.7340	 1.8288	68.3488	99.9338	
   947	 0.7213	 0.7448	 1.4661	 1.0461	 0.8072	 1.8533	 1.1689	 0.7312	 1.9001	69.6901	99.9441	
   948	 0.8707	 0.6151	 1.4857	 0.8694	 0.9151	 1.7845	 1.1689	 0.7312	 1.9001	69.1573	99.9393	
   949	 0.7841	 0.6885	 1.4726	 0.7713	 0.9229	 1.6942	 1.2410	 0.6916	 1.9326	69.7253	99.9458	
   950	 0.7955	 0.6014	 1.3969	 0.7494	 0.9097	 1.6591	 1.0100	 0.7658	 1.7758	68.8179	99.9416	
   951	 0.7774	 0.5749	 1.3523	 0.9270	 0.8157	 1.7426	 1.0694	 0.7185	 1.7879	69.0438	99.9386	
   952	 0.4483	 1.0197	 1.4680	 0.8913	 0.8075	 1.6988	 1.0272	 0.7406	 1.7678	70.4686	99.9559	
   953	 0.6680	 0.6816	 1.3496	 0.8029	 0.8615	 1.6644	 1.0706	 0.7431	 1.8137	69.3850	99.9458	
   954	 0.7955	 0.6014	 1.3969	 0.9845	 0.8371	 1.8215	 1.2959	 0.6773	 1.9732	69.6390	99.9399	
   955	 0.8041	 0.6065	 1.4105	 0.7486	 0.8957	 1.6443	 1.2883	 0.6489	 1.9371	69.7198	99.9453	
   956	 0.7241	 0.6526	 1.3767	 0.8499	 0.8228	 1.6727	 1.1000	 0.7133	 1.8133	69.3870	99.9465	
   957	 0.6461	 0.7311	 1.3773	 0.7048	 0.8693	 1.5741	 0.9366	 0.7809	 1.7175	69.1665	99.9508	
   958	 0.8107	 0.4383	 1.2490	 0.6497	 0.8896	 1.5393	 1.0394	 0.7360	 1.7754	68.5416	99.9411	
   959	 0.7479	 0.4946	 1.2425	 0.8200	 0.7912	 1.6112	 1.0872	 0.7056	 1.7928	68.9600	99.9438	
   960	 0.6823	 0.6432	 1.3255	 0.7259	 0.8686	 1.5945	 1.0406	 0.7606	 1.8012	69.1555	99.9484	
   961	 0.5891	 0.8848	 1.4739	 0.6797	 0.9212	 1.6009	 1.1249	 0.7165	 1.8413	70.1930	99.9542	
   962	 0.7698	 0.5860	 1.3558	 0.7551	 0.8862	 1.6413	 0.9308	 0.7893	 1.7201	68.5897	99.9415	
   963	 0.5919	 0.7926	 1.3845	 0.7673	 0.8533	 1.6206	 0.9602	 0.7595	 1.7197	69.5115	99.9498	
   964	 0.6661	 0.6491	 1.3153	 0.7867	 0.8248	 1.6116	 1.0266	 0.7283	 1.7549	69.2736	99.9470	
   965	 0.3893	 1.0000	 1.3893	 0.5930	 0.8822	 1.4751	 0.8460	 0.8212	 1.6671	69.9004	99.9619	
   966	 0.6233	 0.6235	 1.2468	 0.8265	 0.7817	 1.6082	 1.1415	 0.6789	 1.8204	69.6432	99.9481	
   967	 0.8944	 0.3162	 1.2106	 0.8897	 0.7797	 1.6694	 1.2889	 0.6611	 1.9500	68.8309	99.9396	
   968	 0.5539	 0.8481	 1.4019	 0.7381	 0.8357	 1.5738	 0.9921	 0.7788	 1.7709	69.6988	99.9579	
   969	 0.6851	 0.5510	 1.2361	 0.8038	 0.7546	 1.5584	 0.9098	 0.7409	 1.6507	68.7416	99.9465	
   970	 0.5672	 0.6525	 1.2197	 0.6854	 0.7770	 1.4624	 0.9653	 0.7388	 1.7041	69.2717	99.9552	
   971	 0.5053	 0.7251	 1.2304	 0.7681	 0.7465	 1.5146	 1.0011	 0.7129	 1.7139	69.6912	99.9552	
   972	 0.6727	 0.4809	 1.1537	 0.7000	 0.7858	 1.4858	 0.9360	 0.7686	 1.7046	68.5416	99.9485	
   973	 0.5672	 0.6525	 1.2197	 0.7422	 0.7845	 1.5266	 0.9360	 0.7686	 1.7046	69.1189	99.9519	
   974	 0.5329	 0.7729	 1.3058	 0.6749	 0.8377	 1.5126	 1.0036	 0.7620	 1.7656	69.6155	99.9566	
   975	 0.6176	 0.6671	 1.2847	 0.9635	 0.7169	 1.6804	 1.0266	 0.7283	 1.7549	69.3860	99.9482	
   976	 0.5101	 0.6653	 1.1754	 0.6619	 0.7359	 1.3979	 0.8556	 0.7675	 1.6231	69.0849	99.9586	
   977	 0.6879	 0.3178	 1.0058	 0.6741	 0.7030	 1.3771	 0.7949	 0.7903	 1.5852	67.7764	99.9488	
   978	 0.4264	 0.6465	 1.0729	 0.4601	 0.7749	 1.2350	 0.8237	 0.7482	 1.5718	69.1591	99.9604	
   979	 0.3778	 0.6644	 1.0423	 0.5558	 0.7254	 1.2812	 0.8728	 0.7423	 1.6151	69.3820	99.9616	
   980	 0.3874	 0.8267	 1.2140	 0.4592	 0.8818	 1.3411	 1.1236	 0.6919	 1.8155	70.4002	99.9613	
   981	 0.4730	 0.8779	 1.3509	 0.7438	 0.8123	 1.5560	 1.0757	 0.7224	 1.7981	70.2252	99.9588	
   982	 0.7850	 0.4229	 1.2079	 0.7932	 0.8153	 1.6085	 1.0215	 0.7490	 1.7705	68.4633	99.9404	
   983	 0.5834	 0.7874	 1.3708	 0.8094	 0.8520	 1.6614	 1.1255	 0.7287	 1.8542	69.9159	99.9508	
   984	 0.8640	 0.5015	 1.3655	 0.8426	 0.9392	 1.7818	 1.0349	 0.7690	 1.8039	68.5075	99.9285	
   985	 0.6586	 0.9420	 1.6006	 0.7153	 1.0501	 1.7654	 1.1836	 0.6569	 1.8405	70.5483	99.9380	
   986	 1.1731	 0.2796	 1.4527	 0.9764	 0.8187	 1.7951	 1.0177	 0.6754	 1.6930	67.7874	99.9233	
   987	 1.0276	 0.6151	 1.6427	 0.9035	 0.7746	 1.6781	 1.1389	 0.6298	 1.7688	69.2182	99.9504	
   988	 0.9420	 0.7047	 1.6468	 1.0219	 0.6314	 1.6533	 1.0004	 0.7006	 1.7010	69.0705	99.9621	
   989	 0.8050	 0.6227	 1.4277	 0.8809	 0.5059	 1.3868	 0.5587	 1.1230	 1.6816	66.8206	99.9836	
   990	 0.7535	 0.1693	 0.9228	 0.7813	 0.1235	 0.9048	 0.7134	 0.1702	 0.8836	69.2114	99.9587	
   991	 0.2740	-0.1178	 0.1562	-0.0632	 0.0020	-0.0612	 0.1916	-0.2408	-0.0493	69.5592	99.9502	
   992	 0.0114	 0.0538	 0.0652	 0.1418	 0.0186	 0.1605	 0.2649	-0.0181	 0.2468	69.7548	99.9566	
   993	 0.4900	 0.1837	 0.6737	 0.3403	 0.2864	 0.6267	 0.2422	 1.0979	 1.3400	65.6595	99.9921	
   994	 0.9505	 0.2872	 1.2377	 0.8874	 0.3756	 1.2630	 0.3805	 1.3838	 1.7643	64.5761	99.9905	
   995	 0.6928	 0.8216	 1.5144	 0.8542	 0.4092	 1.2634	 0.0116	 1.6600	 1.6715	64.6400	99.9957	
   996	 0.5947	 0.2777	 0.8724	 0.7011	 0.1958	 0.8968	 0.6055	 0.3546	 0.9601	68.8907	99.9647	
   997	-0.1408	-0.1469	-0.2878	-0.1126	-0.2426	-0.3552	-0.0605	-0.3339	-0.3944	69.9139	99.9555	
   998	-0.9458	-0.6288	-1.5746	-1.1523	-0.6970	-1.8493	-0.9570	-0.5792	-1.5362	68.9466	99.9756	
   999	-1.3587	-0.7664	-2.1251	-1.5106	-0.6855	-2.1960	-1.4841	-0.6128	-2.0970	68.2824	99.9610	
  1000	-1.3396	-0.4419	-1.7816	-1.3193	-0.6637	-1.9830	-1.3444	-0.6590	-2.0034	69.5325	99.9646	
  1001	-1.2512	-0.6238	-1.8750	-1.4336	-0.6926	-2.1262	-1.6564	-0.7171	-2.3735	68.5151	99.9532	
  1002	-1.4472	-0.5845	-2.0317	-1.6524	-0.7041	-2.3566	-1.6883	-0.8553	-2.5436	69.3274	99.9542	
  1003	-1.4148	-0.5965	-2.0113	-1.4927	-0.7418	-2.2345	-1.5964	-0.8710	-2.4674	69.4825	99.9511	
  1004	-1.4377	-0.5632	-2.0009	-1.9800	-0.5264	-2.5063	-1.8306	-0.7393	-2.5699	68.6847	99.9563	
  1005	-1.3245	-0.7459	-2.0704	-1.5608	-0.7024	-2.2633	-1.6979	-0.8016	-2.4995	68.5136	99.9465	
  1006	-1.2712	-0.8236	-2.0948	-1.6807	-0.8287	-2.5094	-1.7795	-0.8273	-2.6068	68.1553	99.9620	
  1007	-1.4529	-0.6819	-2.1348	-1.7691	-0.7747	-2.5438	-1.7227	-1.0426	-2.7653	69.6658	99.9500	
  1008	-1.5632	-0.5914	-2.1547	-1.6062	-0.8775	-2.4837	-1.7935	-0.9784	-2.7720	69.7054	99.9560	
  1009	-1.6584	-0.5231	-2.1815	-1.5713	-1.0041	-2.5753	-1.7827	-1.0075	-2.7902	70.1502	99.9673	
  1010	-1.5937	-0.6879	-2.2816	-1.7334	-0.8874	-2.6208	-1.9524	-0.9438	-2.8963	69.0596	99.9562	
  1011	-1.6127	-0.5897	-2.2024	-1.4399	-1.0455	-2.4854	-1.7220	-1.0303	-2.7523	70.1031	99.9626	
  1012	-1.5832	-0.6503	-2.2336	-1.5096	-1.0339	-2.5436	-1.8133	-1.0023	-2.8156	69.6228	99.9622	
  1013	-1.5499	-0.6461	-2.1960	-2.0812	-0.6950	-2.7762	-1.9180	-0.8754	-2.7934	68.9344	99.9625	
  1014	-1.5205	-0.7067	-2.2271	-2.2644	-0.5776	-2.8420	-1.9027	-0.9375	-2.8401	68.9770	99.9518	
  1015	-1.5604	-0.6836	-2.2440	-1.9474	-0.8154	-2.7629	-1.8223	-0.9364	-2.7586	69.2520	99.9660	
  1016	-1.6022	-0.5522	-2.1544	-1.9158	-0.7561	-2.6719	-1.8631	-0.8898	-2.7529	69.4200	99.9647	
  1017	-1.3987	-0.7434	-2.1420	-1.8178	-0.7639	-2.5816	-1.7604	-0.9346	-2.6949	68.9698	99.9563	
  1018	-1.5728	-0.6128	-2.1855	-1.8891	-0.7801	-2.6692	-1.8995	-0.8761	-2.7756	69.0958	99.9637	
  1019	-1.6841	-0.5385	-2.2226	-2.0139	-0.7483	-2.7622	-2.0884	-0.8239	-2.9124	68.9023	99.9651	
  1020	-1.7411	-0.5257	-2.2669	-2.0390	-0.8171	-2.8561	-1.8988	-0.9827	-2.8815	69.9513	99.9687	
  1021	-1.6984	-0.6410	-2.3393	-2.0268	-0.8500	-2.8769	-2.1043	-0.8930	-2.9974	68.8613	99.9669	
  1022	-1.6594	-0.6803	-2.3396	-1.9587	-0.8894	-2.8481	-2.0979	-1.0081	-3.1060	69.1155	99.9593	
  1023	-1.7593	-0.8340	-2.5933	-2.0778	-1.1225	-3.2003	-2.3493	-1.0889	-3.4382	68.6361	99.9687	
  1024	-2.1074	-0.5728	-2.6803	-2.3048	-1.0316	-3.3364	-2.4176	-1.0945	-3.5122	69.7442	99.9722	
  1025	-2.2235	-0.5797	-2.8032	-2.4158	-1.0048	-3.4206	-2.5427	-1.1227	-3.6653	69.7511	99.9669	
  1026	-2.1151	-0.8435	-2.9586	-2.4377	-1.1388	-3.5765	-2.5459	-1.1840	-3.7299	69.0893	99.9692	
  1027	-1.9619	-0.6266	-2.5884	-2.0989	-1.0010	-3.1000	-2.2644	-1.1207	-3.3852	69.7784	99.9620	
  1028	-1.7926	-0.8383	-2.6308	-2.2959	-0.9993	-3.2952	-2.4004	-1.1198	-3.5202	68.6814	99.9627	
  1029	-1.9886	-0.7991	-2.7876	-2.2091	-1.2019	-3.4110	-2.5344	-1.2009	-3.7352	69.1016	99.9675	
  1030	-2.0685	-0.8939	-2.9623	-2.3834	-1.1731	-3.5564	-2.6913	-1.2483	-3.9396	68.8191	99.9597	
  1031	-2.1532	-0.9289	-3.0821	-2.4514	-1.2545	-3.7059	-2.6543	-1.2497	-3.9040	68.9322	99.9700	
  1032	-2.2939	-0.6531	-2.9471	-2.5836	-1.1062	-3.6898	-2.6320	-1.1767	-3.8087	69.6730	99.9750	
  1033	-2.0238	-0.9767	-3.0005	-2.6007	-0.9152	-3.5159	-2.6844	-0.9944	-3.6788	67.6454	99.9573	
  1034	-2.1827	-0.8683	-3.0509	-2.4920	-1.1045	-3.5965	-2.7488	-1.0453	-3.7941	68.2259	99.9681	
  1035	-2.2597	-0.7735	-3.0332	-2.6225	-1.1700	-3.7925	-2.7207	-1.2185	-3.9392	69.2684	99.9741	
  1036	-2.1170	-0.8759	-2.9930	-2.6979	-1.1351	-3.8329	-2.6735	-1.2613	-3.9347	69.0233	99.9714	
  1037	-2.0047	-0.7931	-2.7978	-2.2083	-1.0672	-3.2755	-2.4144	-1.0332	-3.4476	68.7886	99.9675	
  1038	-1.6270	-0.6922	-2.3192	-2.1841	-0.8914	-3.0755	-2.1445	-0.9530	-3.0976	68.7484	99.9728	
  1039	-1.7792	-0.4702	-2.2494	-1.8379	-0.9908	-2.8288	-2.2390	-0.9864	-3.2254	69.5022	99.9664	
  1040	-1.9970	-0.3815	-2.3785	-2.1143	-1.0238	-3.1381	-2.3928	-0.9725	-3.3652	69.7120	99.9790	
  1041	-1.8658	-0.8195	-2.6853	-2.3315	-1.0075	-3.3390	-2.4035	-1.1812	-3.5847	69.0536	99.9606	
  1042	-2.1218	-0.8162	-2.9379	-2.5909	-1.1106	-3.7015	-2.5388	-1.2868	-3.8256	69.5522	99.9687	
  1043	-2.0999	-0.8657	-2.9656	-2.6322	-1.0954	-3.7276	-2.8432	-1.1975	-4.0408	68.4537	99.9641	
  1044	-2.0790	-0.9314	-3.0104	-2.5422	-1.2423	-3.7845	-2.6262	-1.3040	-3.9303	69.0629	99.9722	
  1045	-2.1836	-0.7436	-2.9272	-2.6574	-1.0435	-3.7008	-2.6844	-1.1133	-3.7976	68.9331	99.9730	
  1046	-2.1855	-0.7761	-2.9616	-2.6103	-1.0821	-3.6925	-2.5874	-1.1497	-3.7370	69.1719	99.9738	
  1047	-2.2873	-0.6805	-2.9677	-2.5641	-1.1347	-3.6989	-2.7271	-1.1035	-3.8306	69.1392	99.9772	
  1048	-2.3434	-0.5106	-2.8539	-2.8049	-0.9179	-3.7229	-2.7884	-0.9741	-3.7625	69.0997	99.9784	
  1049	-2.2054	-0.5532	-2.7586	-2.5755	-0.9671	-3.5427	-2.5146	-1.1770	-3.6916	70.0452	99.9701	
  1050	-2.2121	-0.6668	-2.8789	-2.6614	-0.9922	-3.6537	-2.7112	-1.0344	-3.7456	68.8494	99.9745	
  1051	-2.1056	-0.6813	-2.7868	-2.7077	-0.9396	-3.6473	-2.6327	-1.0701	-3.7028	68.9340	99.9727	
  1052	-2.1674	-0.8905	-3.0579	-2.4968	-1.1880	-3.6848	-2.7443	-1.1971	-3.9415	68.6895	99.9673	
  1053	-2.2702	-0.8111	-3.0813	-2.6492	-1.1459	-3.7952	-2.8586	-1.1355	-3.9940	68.6096	99.9722	
  1054	-2.2169	-1.0297	-3.2466	-2.9581	-0.8898	-3.8479	-2.8496	-1.2014	-4.0510	68.1917	99.9464	
  1055	-2.3510	-0.7812	-3.1323	-2.6541	-1.1086	-3.7627	-2.8005	-1.2073	-4.0078	69.1855	99.9656	
  1056	-2.2902	-0.8700	-3.1602	-2.7741	-1.1140	-3.8881	-2.7648	-1.1144	-3.8791	68.5964	99.9756	
  1057	-2.2245	-0.7368	-2.9613	-2.8366	-0.8565	-3.6931	-2.4782	-1.1907	-3.6689	69.6973	99.9620	
  1058	-2.2778	-0.8000	-3.0778	-2.7878	-1.2297	-4.0175	-2.7915	-1.3921	-4.1836	69.7037	99.9741	
  1059	-2.4757	-0.9341	-3.4098	-2.9766	-1.3305	-4.3071	-3.0295	-1.4530	-4.4825	69.3772	99.9735	
  1060	-2.5328	-0.9213	-3.4541	-3.0844	-1.2481	-4.3325	-3.0780	-1.3159	-4.3939	68.9093	99.9760	
  1061	-2.5147	-0.7540	-3.2686	-2.8048	-1.1595	-3.9644	-2.8682	-1.0818	-3.9500	68.9242	99.9803	
  1062	-2.0703	-0.6445	-2.7149	-2.2043	-0.8769	-3.0812	-2.1708	-0.7430	-2.9137	68.7505	99.9769	
  1063	-1.3529	-0.2464	-1.5993	-1.5497	-0.2661	-1.8158	-1.0835	-0.2752	-1.3587	69.2448	99.9731	
  1064	-0.4548	-0.0061	-0.4609	-0.4977	 0.1554	-0.3424	-0.2342	 0.1317	-0.1025	68.8185	99.9569	
  1065	 0.2084	 0.4535	 0.6619	 0.1385	 0.2046	 0.3431	 0.2501	 0.4129	 0.6630	69.0193	99.9824	
  1066	 0.3949	 0.2520	 0.6469	 0.1791	 0.1754	 0.3545	 0.5367	 0.2178	 0.7544	69.4370	99.9763	
  1067	 0.5595	 0.2410	 0.8004	 0.5681	 0.2093	 0.7775	 0.1375	 1.1059	 1.2434	65.4624	99.9901	
  1068	 0.4044	 0.2734	 0.6778	 0.4003	 0.2287	 0.6290	 0.3853	 0.6375	 1.0227	67.7919	99.9810	
  1069	 0.5861	 0.1317	 0.7178	-0.0220	 0.3491	 0.3271	 0.2564	 0.5357	 0.7921	67.2581	99.9769	
  1070	 0.5623	 0.2896	 0.8520	 0.3597	 0.3786	 0.7384	 0.3667	 0.7571	 1.1238	67.1728	99.9791	
  1071	 0.5747	 0.5005	 1.0753	 0.4051	 0.4329	 0.8380	 0.0327	 1.3517	 1.3844	65.0713	99.9945	
  1072	 0.6157	 0.4937	 1.1094	 0.3735	 0.4943	 0.8678	-0.0158	 1.4888	 1.4730	64.4498	99.9956	
  1073	 0.6775	 0.2803	 0.9577	 0.3929	 0.4658	 0.8588	 0.0596	 1.1539	 1.2135	65.0686	99.9833	
  1074	 0.5300	 0.3016	 0.8316	 0.6629	 0.2667	 0.9296	 0.2250	 0.7664	 0.9915	66.9425	99.9704	
  1075	 0.3768	 0.3664	 0.7432	 0.0882	 0.4292	 0.5174	 0.3093	 0.6034	 0.9127	68.0331	99.9762	
  1076	 0.4853	 0.2435	 0.7288	 0.8194	 0.1734	 0.9928	 0.1842	 0.6942	 0.8784	67.0215	99.9602	
  1077	 0.4891	 0.3084	 0.7975	 0.5154	 0.2714	 0.7868	 0.4115	 0.5463	 0.9578	68.1105	99.9712	
  1078	 0.4187	 0.3758	 0.7945	 0.6857	 0.1730	 0.8587	 0.3432	 0.5407	 0.8838	68.2705	99.9697	
  1079	 0.3787	 0.3989	 0.7776	 0.3963	 0.2799	 0.6762	 0.4383	 0.4674	 0.9057	68.8119	99.9739	
  1080	 0.3521	 0.3673	 0.7194	 0.3395	 0.2724	 0.6120	 0.3266	 0.4593	 0.7859	68.5846	99.9720	
  1081	 0.4444	 0.2503	 0.6947	 0.5049	 0.2114	 0.7163	 0.5034	 0.4117	 0.9151	68.6513	99.9694	
  1082	 0.4349	 0.3699	 0.8047	 0.5657	 0.2884	 0.8541	 0.5174	 0.5628	 1.0802	68.4905	99.9723	
  1083	 0.5585	 0.3656	 0.9242	 0.4586	 0.3848	 0.8434	 0.3342	 0.7255	 1.0597	67.4102	99.9745	
  1084	 0.5158	 0.4809	 0.9966	 0.5802	 0.2972	 0.8775	 0.5122	 0.7024	 1.2147	68.1816	99.9829	
  1085	 0.6584	 0.2376	 0.8960	 0.5008	 0.3834	 0.8842	 0.3750	 0.6789	 1.0539	67.1760	99.9683	
  1086	 0.6175	 0.2444	 0.8619	 0.6427	 0.2813	 0.9239	 0.5710	 0.5239	 1.0950	68.1440	99.9674	
  1087	 0.5262	 0.3776	 0.9038	 0.5186	 0.3271	 0.8457	 0.4261	 0.5909	 1.0170	68.1118	99.9721	
  1088	 0.5348	 0.3827	 0.9175	 0.5138	 0.3644	 0.8781	 0.2403	 0.8233	 1.0636	66.9813	99.9762	
  1089	 0.6299	 0.4553	 1.0852	 0.7577	 0.3240	 1.0818	 0.4573	 0.8357	 1.2930	67.4059	99.9790	
  1090	 0.7460	 0.3213	 1.0672	 0.6126	 0.3705	 0.9831	 0.3175	 0.8819	 1.1994	66.4738	99.9781	
  1091	 0.8268	 0.1505	 0.9773	 0.6443	 0.3091	 0.9534	 0.3954	 0.7150	 1.1104	66.6302	99.9709	
  1092	 0.7583	 0.2504	 1.0087	 0.6807	 0.3312	 1.0119	 0.5199	 0.7308	 1.2507	67.1725	99.9739	
  1093	 0.6347	 0.3955	 1.0302	 0.5989	 0.3756	 0.9745	 0.2626	 1.0151	 1.2777	66.2782	99.9832	
  1094	 0.7393	 0.2077	 0.9470	 0.7513	 0.3335	 1.0848	 0.1860	 1.2066	 1.3925	64.8802	99.9819	
  1095	 0.4130	 0.7011	 1.1142	 0.5405	 0.3403	 0.8808	 0.5525	 0.5246	 1.0771	69.5562	99.9795	
  1096	 0.6147	 0.3366	 0.9513	 0.5032	 0.3043	 0.8076	 0.3834	 0.6006	 0.9840	67.7650	99.9745	
  1097	 0.6889	 0.3341	 1.0230	 0.6264	 0.3654	 0.9918	-0.2558	 1.7478	 1.4920	62.6197	99.9942	
  1098	 0.6689	 0.5569	 1.2259	 0.8858	 0.4686	 1.3543	 0.4208	 1.2060	 1.6268	66.3161	99.9814	
  1099	 0.9648	 0.2488	 1.2135	 0.7795	 0.5788	 1.3584	 0.6015	 0.9943	 1.5958	66.1613	99.9669	
  1100	 0.7175	 0.6799	 1.3974	 0.8557	 0.5578	 1.4135	 0.5664	 1.0325	 1.5989	67.4032	99.9770	
  1101	 0.9762	 0.3026	 1.2788	 0.8614	 0.5344	 1.3958	 0.6455	 1.0090	 1.6545	66.3162	99.9715	
  1102	 1.1179	 0.1839	 1.3019	 0.9725	 0.5076	 1.4801	 0.8064	 0.8923	 1.6987	66.5093	99.9648	
  1103	 0.7375	 0.7388	 1.4763	 0.8768	 0.5571	 1.4339	 0.7528	 0.9312	 1.6840	68.2135	99.9788	
  1104	 0.9172	 0.4238	 1.3410	 0.8687	 0.5388	 1.4075	 0.5830	 0.9950	 1.5779	66.6274	99.9714	
  1105	 0.7251	 0.6688	 1.3939	 0.8468	 0.5256	 1.3724	 0.6717	 0.9179	 1.5896	67.9451	99.9773	
  1106	 0.8430	 0.4263	 1.2694	 0.8549	 0.5439	 1.3988	 0.5855	 1.0441	 1.6296	66.5872	99.9729	
  1107	 0.8021	 0.5740	 1.3762	 0.9449	 0.5178	 1.4627	 0.7189	 0.8751	 1.5940	67.8282	99.9703	
  1108	 0.7013	 0.8268	 1.5281	 0.8841	 0.5615	 1.4456	 0.8083	 0.8103	 1.6186	68.9929	99.9761	
  1109	 0.7793	 0.7482	 1.5276	 0.8914	 0.5660	 1.4573	 0.8964	 0.8398	 1.7361	68.7520	99.9780	
  1110	 0.9429	 0.4392	 1.3821	 0.9790	 0.4981	 1.4771	 0.7451	 0.9028	 1.6479	67.2462	99.9706	
  1111	 0.9553	 0.3683	 1.3236	 1.0130	 0.4784	 1.4914	 0.8306	 0.8832	 1.7138	67.2811	99.9697	
  1112	 0.9686	 0.3137	 1.2823	 1.0414	 0.4822	 1.5235	 0.7694	 0.8937	 1.6631	66.9732	99.9643	
  1113	 1.0342	 0.3060	 1.3402	 0.9619	 0.5683	 1.5302	 0.8830	 0.8198	 1.7028	67.3205	99.9604	
  1114	 0.7594	 0.8302	 1.5896	 1.1459	 0.4649	 1.6108	 0.9008	 0.8068	 1.7077	69.1048	99.9751	
  1115	 1.1018	 0.3308	 1.4326	 1.0016	 0.5252	 1.5269	 0.9960	 0.7336	 1.7295	67.7849	99.9638	
  1116	 0.8802	 0.6364	 1.5166	 1.0576	 0.5188	 1.5764	 0.8938	 0.7907	 1.6845	68.4855	99.9692	
  1117	 1.1817	 0.1438	 1.3255	 0.8841	 0.5615	 1.4456	 0.7164	 0.9449	 1.6613	65.9675	99.9641	
  1118	 0.8459	 0.6159	 1.4618	 1.1451	 0.4509	 1.5961	 0.7055	 0.9740	 1.6795	67.5180	99.9728	
  1119	 0.9154	 0.5322	 1.4476	 0.7601	 0.6073	 1.3674	 0.6545	 0.9431	 1.5976	67.2107	99.9739	
  1120	 0.9763	 0.5844	 1.5606	 0.9497	 0.6012	 1.5510	 1.0687	 0.7062	 1.7750	68.8277	99.9673	
  1121	 1.2530	 0.2335	 1.4865	 1.1135	 0.5124	 1.6259	 0.9717	 0.7427	 1.7144	67.2466	99.9577	
  1122	 0.9211	 0.6296	 1.5507	 1.0657	 0.5371	 1.6028	 0.7566	 0.8860	 1.6426	67.8323	99.9685	
  1123	 1.1608	 0.2096	 1.3703	 0.8768	 0.5571	 1.4339	 0.7828	 0.9137	 1.6965	66.3938	99.9674	
  1124	 0.9230	 0.5211	 1.4441	 0.8971	 0.5425	 1.4396	 0.7655	 0.9390	 1.7045	67.4005	99.9758	
  1125	 1.0209	 0.3607	 1.3816	 0.9798	 0.5120	 1.4918	 0.7891	 0.9176	 1.7067	66.9739	99.9700	
  1126	 0.9667	 0.5630	 1.5297	 1.1946	 0.4540	 1.6486	 1.0598	 0.7722	 1.8319	68.5526	99.9712	
  1127	 0.8869	 0.7500	 1.6368	 1.0811	 0.5599	 1.6409	 0.9123	 0.7900	 1.7023	68.7996	99.9692	
  1128	 1.0200	 0.4853	 1.5053	 0.9968	 0.5626	 1.5593	 0.9136	 0.8145	 1.7281	67.8649	99.9672	
  1129	 0.9820	 0.5408	 1.5228	 1.1200	 0.5029	 1.6228	 1.0336	 0.7445	 1.7781	68.5177	99.9676	
  1130	 1.0247	 0.4255	 1.4503	 1.0641	 0.5093	 1.5734	 0.8402	 0.8296	 1.6698	67.5180	99.9649	
  1131	 1.1541	 0.2369	 1.3910	 0.9684	 0.5588	 1.5272	 1.0272	 0.7406	 1.7678	67.5121	99.9605	
  1132	 0.8944	 0.5980	 1.4924	 0.9497	 0.6012	 1.5510	 0.8568	 0.7921	 1.6489	68.2936	99.9645	
  1133	 1.2378	 0.2557	 1.4935	 1.0113	 0.5714	 1.5827	 1.0572	 0.7231	 1.7803	67.5533	99.9593	
  1134	 1.0019	 0.5997	 1.6017	 0.9068	 0.5887	 1.4955	 1.0087	 0.7413	 1.7500	68.6010	99.9719	
  1135	 1.1199	 0.3573	 1.4771	 1.1946	 0.4540	 1.6486	 0.8000	 0.8885	 1.6885	66.9374	99.9643	
  1136	 1.0780	 0.3479	 1.4259	 1.0503	 0.5144	 1.5647	 0.8313	 0.8955	 1.7268	67.0129	99.9668	
  1137	 1.0913	 0.2932	 1.3845	 0.9392	 0.5412	 1.4804	 0.7368	 0.9810	 1.7178	66.3937	99.9702	
  1138	 0.8174	 0.6927	 1.5101	 0.9109	 0.5375	 1.4483	 0.6889	 1.0115	 1.7004	67.5960	99.9809	
  1139	 0.9658	 0.5468	 1.5126	 1.2076	 0.4350	 1.6426	 0.9034	 0.8559	 1.7593	67.9407	99.9712	
  1140	 1.2055	 0.2676	 1.4731	 1.1759	 0.4964	 1.6723	 0.9704	 0.7181	 1.6886	67.4792	99.9542	
  1141	 1.0114	 0.4802	 1.4916	 1.0495	 0.5005	 1.5499	 0.9717	 0.7427	 1.7144	68.2123	99.9678	
  1142	 1.0514	 0.3163	 1.3676	 1.1127	 0.4984	 1.6111	 0.9832	 0.7258	 1.7090	67.8220	99.9573	
  1143	 0.9734	 0.3948	 1.3682	 0.9295	 0.4950	 1.4246	 0.5299	 1.1650	 1.6950	65.8124	99.9793	
  1144	 0.9886	 0.2317	 1.2203	 0.8833	 0.4268	 1.3102	 0.0658	 1.6333	 1.6992	62.9385	99.9883	
  1145	 0.6205	 0.7157	 1.3362	 0.9839	 0.3400	 1.3239	 0.0237	 1.6554	 1.6791	64.5295	99.9918	
  1146	 0.9524	 0.3196	 1.2721	 0.9498	 0.3597	 1.3095	 0.0115	 1.7788	 1.7904	62.6316	99.9931	
  1147	 0.6614	 0.7089	 1.3703	 0.9425	 0.3553	 1.2978	-0.0300	 1.8132	 1.7832	63.8329	99.9947	
  1148	 0.7546	 0.4673	 1.2219	 0.6945	 0.4469	 1.1413	 0.0065	 1.6806	 1.6871	63.6003	99.9951	
  1149	 0.9334	 0.1361	 1.0694	 0.9685	 0.3173	 1.2857	-0.1857	 1.7903	 1.6047	61.7677	99.9863	
  1150	 0.4911	 0.7635	 1.2546	 1.0163	 0.2925	 1.3088	-0.1187	 1.8903	 1.7716	63.7992	99.9917	
  1151	 0.7422	 0.3973	 1.1394	 0.7618	 0.3936	 1.1554	-0.0350	 1.5961	 1.5611	63.6344	99.9910	
  1152	 0.8135	 0.3461	 1.1596	 0.8980	 0.3149	 1.2128	 0.0403	 1.6179	 1.6582	63.4848	99.9920	
  1153	 0.9771	 0.1779	 1.1550	 0.9547	 0.3223	 1.2770	 0.0940	 1.4601	 1.5541	63.4378	99.9846	
  1154	 0.7232	 0.4955	 1.2186	 0.9442	 0.2623	 1.2065	 0.0442	 1.5726	 1.6168	64.1413	99.9927	
  1155	 0.6927	 0.3990	 1.0917	 0.6345	 0.3837	 1.0183	 0.1585	 1.3921	 1.5505	64.7655	99.9931	
  1156	 0.8953	 0.0507	 0.9459	 0.9620	 0.2060	 1.1680	 0.3813	 0.9205	 1.3018	65.5782	99.9716	
  1157	 0.7669	 0.2555	 1.0224	 0.9126	 0.3237	 1.2363	 0.2555	 1.2368	 1.4923	64.9984	99.9801	
  1158	 0.8639	 0.2197	 1.0836	 0.8323	 0.2752	 1.1075	 0.5212	 0.7554	 1.2765	66.8624	99.9738	
  1159	 0.5919	 0.5108	 1.1027	 0.6556	 0.3831	 1.0387	 0.4917	 0.9041	 1.3958	67.4412	99.9839	
  1160	 0.8097	 0.1403	 0.9500	 0.9207	 0.2212	 1.1419	 0.5052	 0.8052	 1.3104	66.5495	99.9719	
  1161	 0.8249	 0.1181	 0.9430	 0.8194	 0.2942	 1.1135	 0.5709	 0.7617	 1.3327	66.7428	99.9698	
  1162	 0.6860	 0.2854	 0.9714	 0.8161	 0.2385	 1.0547	-0.0247	 1.4358	 1.4111	63.9840	99.9890	
  1163	 0.5386	 0.5885	 1.1271	 0.7942	 0.3461	 1.1403	-0.1243	 1.6609	 1.5366	64.0235	99.9921	
  1164	 0.7583	 0.3913	 1.1496	 0.8104	 0.3827	 1.1931	-0.1704	 1.8471	 1.6768	62.5120	99.9933	
  1165	 0.7603	 0.4238	 1.1840	 0.7747	 0.3746	 1.1493	-0.2176	 1.8899	 1.6723	62.3523	99.9950	
  1166	 0.5633	 0.5876	 1.1510	 0.6969	 0.3678	 1.0647	-0.0056	 1.5663	 1.5607	64.5305	99.9949	
  1167	 0.6214	 0.4502	 1.0715	 0.7342	 0.4038	 1.1380	 0.0339	 1.6140	 1.6480	64.0333	99.9926	
  1168	 0.8049	 0.2001	 1.0050	 0.8850	 0.3339	 1.2189	-0.0165	 1.7143	 1.6978	62.7207	99.9900	
  1169	 0.8649	 0.2359	 1.1008	 0.8996	 0.3427	 1.2423	-0.0025	 1.7466	 1.7441	62.6402	99.9918	
  1170	 0.7517	 0.4186	 1.1703	 0.8307	 0.3681	 1.1988	-0.0031	 1.7343	 1.7312	63.2955	99.9942	
  1171	 0.7013	 0.4041	 1.1054	 0.8501	 0.3396	 1.1898	-0.1563	 1.7605	 1.6042	62.9375	99.9913	
  1172	 0.7298	 0.3273	 1.0570	 0.9304	 0.2674	 1.1978	-0.2400	 1.9358	 1.6959	61.9759	99.9922	
  1173	 0.5234	 0.6107	 1.1341	 0.7594	 0.3519	 1.1112	 0.0927	 1.5544	 1.6471	64.8845	99.9949	
  1174	 0.8249	 0.2590	 1.0839	 0.8023	 0.3644	 1.1667	 0.0167	 1.7582	 1.7748	62.7613	99.9945	
  1175	 0.8383	 0.3452	 1.1835	 0.7966	 0.3878	 1.1844	 0.0914	 1.6488	 1.7401	63.4511	99.9942	
  1176	 0.9115	 0.1856	 1.0971	 0.9037	 0.2915	 1.1951	-0.0095	 1.8493	 1.8398	62.1069	99.9954	
  1177	 0.6176	 0.5262	 1.1437	 0.8964	 0.2871	 1.1834	-0.0465	 1.7318	 1.6853	63.6824	99.9938	
  1178	 0.6318	 0.4878	 1.1196	 0.8623	 0.3067	 1.1690	-0.1174	 1.7960	 1.6786	63.2163	99.9938	
  1179	 0.8924	 0.1429	 1.0353	 0.7950	 0.3600	 1.1550	 0.0281	 1.7413	 1.7695	62.4538	99.9936	
  1180	 0.7003	 0.5288	 1.2291	 0.7982	 0.4156	 1.2139	 0.1558	 1.5808	 1.7366	64.4586	99.9940	
  1181	 0.8716	 0.3495	 1.2211	 0.8923	 0.3383	 1.2306	 0.1367	 1.6881	 1.8247	63.3780	99.9953	
  1182	 0.7156	 0.5066	 1.2221	 1.0350	 0.2501	 1.2851	 0.1073	 1.7179	 1.8252	63.8436	99.9941	
  1183	 0.8477	 0.2257	 1.0734	 0.6353	 0.3977	 1.0330	-0.0095	 1.7304	 1.7209	62.6789	99.9964	
  1184	 0.7850	 0.2820	 1.0670	 0.8899	 0.2966	 1.1864	-0.2527	 1.9281	 1.6754	61.7771	99.9924	
  1185	 0.6956	 0.4476	 1.1432	 0.9263	 0.3186	 1.2449	 0.1105	 1.5415	 1.6520	64.3023	99.9904	
  1186	 0.7745	 0.5262	 1.3008	 0.8420	 0.4421	 1.2841	 0.6257	 1.1041	 1.7298	66.8177	99.9870	
  1187	 0.9933	 0.1719	 1.1652	 1.0787	 0.3973	 1.4760	 0.4399	 1.3365	 1.7764	64.5019	99.9781	
  1188	 0.9286	 0.3367	 1.2653	 0.8087	 0.4757	 1.2844	 0.3346	 1.3322	 1.6668	64.8039	99.9855	
  1189	 1.0646	 0.1207	 1.1854	 0.8550	 0.4231	 1.2781	 0.3671	 1.3638	 1.7309	64.0333	99.9854	
  1190	 1.1560	-0.0125	 1.1435	 0.9255	 0.4255	 1.3510	 0.2114	 1.4598	 1.6712	62.9415	99.9798	
  1191	 1.3082	-0.0935	 1.2146	 0.9798	 0.3912	 1.3710	 0.2038	 1.4314	 1.6351	62.5808	99.9788	
  1192	 1.0904	 0.4179	 1.5083	 0.9441	 0.5039	 1.4480	 0.3480	 1.3522	 1.7002	64.7198	99.9842	
  1193	 0.9325	 0.6834	 1.6159	 0.9466	 0.4248	 1.3714	 0.1335	 1.6267	 1.7602	64.2886	99.9951	
  1194	 1.0028	 0.3342	 1.3370	 0.9523	 0.2806	 1.2329	 0.1545	 1.6751	 1.8296	63.2154	99.9967	
  1195	 0.9239	 0.3965	 1.3204	 1.0074	 0.2603	 1.2677	 0.7777	 0.6966	 1.4743	67.9096	99.9785	
  1196	 1.1579	 0.1609	 1.3188	 0.9499	 0.2389	 1.1888	 0.5332	 1.1075	 1.6407	65.1516	99.9900	
  1197	 0.9306	 0.5100	 1.4406	 0.9547	 0.3223	 1.2770	 0.1347	 1.7701	 1.9049	63.4099	99.9977	
  1198	 1.2093	 0.1916	 1.4009	 1.0577	 0.2772	 1.3349	 0.1979	 1.6776	 1.8755	62.6305	99.9952	
  1199	 1.1208	 0.3735	 1.4943	 1.1015	 0.1829	 1.2844	 0.6410	 1.0420	 1.6830	66.1614	99.9924	
  1200	 1.1256	 0.3137	 1.4393	 1.2215	 0.0675	 1.2890	 1.0804	 0.2138	 1.2942	69.5974	99.9697	
  1201	 0.9533	 0.0541	 1.0074	 0.7944	-0.0163	 0.7781	 0.9299	-0.1864	 0.7435	70.2454	99.9568	
  1202	 0.3996	-0.0895	 0.3100	 0.1549	-0.2419	-0.0870	 0.2803	-0.3179	-0.0376	69.8848	99.9677	
  1203	 0.1494	-0.1298	 0.0196	 0.2036	-0.2528	-0.0492	 0.0959	-0.2987	-0.2029	69.7218	99.9534	
  1204	 0.1199	-0.0691	 0.0507	 0.0342	-0.2613	-0.2271	 0.0346	-0.2883	-0.2537	69.7692	99.9652	
  1205	 0.0694	-0.0837	-0.0142	-0.1466	-0.2229	-0.3696	-0.2232	-0.2540	-0.4773	69.1940	99.9630	
  1206	 0.0418	-0.1315	-0.0897	-0.2642	-0.1866	-0.4508	-0.2296	-0.2579	-0.4875	69.1105	99.9622	
  1207	-0.0599	 0.1050	 0.0451	-0.1807	-0.0825	-0.2632	-0.1390	-0.1793	-0.3183	69.7760	99.9627	
  1208	 0.1132	 0.0991	 0.2123	 0.0341	-0.0197	 0.0144	-0.1940	-0.0460	-0.2400	68.9501	99.9535	
  1209	 0.0039	 0.3467	 0.3505	-0.2189	 0.1092	-0.1097	-0.1008	-0.0372	-0.1380	69.9000	99.9663	
  1210	 0.2217	 0.1170	 0.3387	-0.0195	 0.0285	 0.0090	-0.1059	-0.0165	-0.1224	68.9085	99.9602	
  1211	 0.1085	 0.2997	 0.4083	-0.1913	 0.0990	-0.0923	-0.1487	-0.0067	-0.1554	69.4316	99.9666	
  1212	 0.1922	 0.1776	 0.3699	-0.0705	-0.0024	-0.0729	-0.0523	-0.0554	-0.1077	69.3448	99.9675	
  1213	 0.1437	 0.1956	 0.3393	-0.0770	 0.0071	-0.0699	-0.2584	 0.0220	-0.2365	68.7989	99.9649	
  1214	 0.2131	 0.1119	 0.3250	-0.3218	 0.1543	-0.1675	-0.0376	-0.0109	-0.0485	69.0199	99.9638	
  1215	 0.2017	 0.1990	 0.4007	 0.0227	 0.0271	 0.0498	-0.1997	 0.0813	-0.1185	68.6343	99.9643	
  1216	 0.2541	 0.1051	 0.3591	 0.0097	 0.0461	 0.0558	-0.0319	-0.0193	-0.0512	68.9829	99.9591	
  1217	 0.1294	 0.2340	 0.3634	-0.1062	 0.1102	 0.0040	-0.0746	-0.0095	-0.0841	69.3816	99.9607	
  1218	 0.0971	 0.2459	 0.3430	 0.0122	-0.0329	-0.0208	-0.1538	 0.0139	-0.1398	69.2272	99.9681	
  1219	 0.1798	 0.1076	 0.2875	 0.0713	 0.0163	 0.0876	-0.1774	 0.0353	-0.1421	68.6296	99.9554	
  1220	 0.1561	 0.2656	 0.4217	 0.1005	 0.0339	 0.1344	-0.0912	 0.0280	-0.0632	69.2651	99.9612	
  1221	 0.2255	 0.1819	 0.4075	-0.2854	 0.1764	-0.1090	-0.0734	 0.0150	-0.0583	69.0262	99.9638	
  1222	 0.2550	 0.1213	 0.3763	-0.0859	 0.0957	 0.0097	-0.0376	-0.0109	-0.0485	68.9837	99.9600	
  1223	 0.1513	 0.1845	 0.3358	-0.0803	 0.0722	-0.0080	-0.1283	 0.0294	-0.0989	68.9855	99.9625	
  1224	 0.2036	 0.0906	 0.2942	-0.0665	 0.0672	 0.0007	-0.1812	 0.0806	-0.1007	68.3892	99.9608	
