OxySoft export of:	C:\Users\TO3 TechSupport\Documents\Train2Adapt\T2A_65
Export date:	2022/09/09 05:35:08
Start of measurement:	2022-09-09 04:16:44.507

Datafile sample rate:	10.00	Hz
Datafile duration:	3256.600	s
Datafile total number of samples:	32566

Description:	

Optode-template:	PortaMon TSI Fit Factor
Optode distance (mm):	 35.00
Optode gradients (mm):	 5.00
DPF:	6.37

Device id:	334
# Receivers:	1
# Light sources:	6
# ADC:	2

Light source wavelengths:
device	index	wavelength
1	1	849	nm
1	2	759	nm
1	3	846	nm
1	4	757	nm
1	5	848	nm
1	6	757	nm

Export sample rate:	10.00	Hz
Selected time span:	0	3256.600
Selected time span (sample numbers):	0	32566


Legend:
Column	Trace (Measurement)
1	(Sample number)
2	Rx1-Tx1 O2Hb (T2A_65)
3	Rx1-Tx1 HHb (T2A_65)
4	Rx1-Tx1 tHb (T2A_65)
5	Rx1-Tx2 O2Hb (T2A_65)
6	Rx1-Tx2 HHb (T2A_65)
7	Rx1-Tx2 tHb (T2A_65)
8	Rx1-Tx3 O2Hb (T2A_65)
9	Rx1-Tx3 HHb (T2A_65)
10	Rx1-Tx3 tHb (T2A_65)
11	Rx1-Tx1,Tx2,Tx3 TSI% (T2A_65)
12	Rx1-Tx1,Tx2,Tx3 TSI Fit Factor (T2A_65)
13	(Event)


1	2	3	4	5	6	7	8	9	10	11	12	13
     0	116.2812	63.2195	179.5006	90.4565	51.3242	141.7807	70.5558	45.4411	115.9969	11.5652	98.7634	
     1	-0.3274	-0.2015	-0.5290	-0.4054	-0.2119	-0.6173	-0.4006	-0.1634	-0.5640	66.9140	99.9899	
     2	-0.0868	-0.0388	-0.1258	-0.1167	-0.0592	-0.1760	-0.0657	-0.0413	-0.1070	67.2219	99.9901	
     3	 0.0020	 0.0304	 0.0323	-0.0138	-0.0085	-0.0223	 0.0510	-0.0122	 0.0388	67.3945	99.9901	
     4	-0.0290	 0.0260	-0.0031	-0.0354	-0.0344	-0.0698	 0.0437	-0.0389	 0.0047	67.4991	99.9897	
     5	-0.0619	-0.0089	-0.0709	-0.1045	-0.0770	-0.1815	-0.0579	-0.1027	-0.1606	67.4703	99.9901	
     6	-0.1527	-0.1086	-0.2614	-0.2054	-0.2021	-0.4075	-0.2649	-0.1996	-0.4645	67.2685	99.9912	
     7	-0.2894	-0.2073	-0.4969	-0.3473	-0.2391	-0.5864	-0.3622	-0.1946	-0.5568	67.0197	99.9904	
     8	-0.1357	-0.0835	-0.2194	-0.1468	-0.1156	-0.2624	-0.1658	-0.0822	-0.2480	67.1204	99.9913	
     9	-0.1527	-0.1086	-0.2614	-0.1875	-0.1281	-0.3155	-0.1904	-0.1087	-0.2991	67.1213	99.9911	
    10	-0.1118	-0.0688	-0.1807	-0.1192	-0.0986	-0.2177	-0.1261	-0.0903	-0.2164	67.2250	99.9916	
    11	-0.1198	-0.0737	-0.1936	-0.1521	-0.0937	-0.2457	-0.1658	-0.0822	-0.2480	67.1213	99.9915	
    12	-0.1347	-0.0683	-0.2032	-0.1582	-0.0848	-0.2430	-0.1711	-0.0744	-0.2455	67.1208	99.9917	
    13	-0.1338	-0.0531	-0.1870	-0.1704	-0.0671	-0.2375	-0.1591	-0.0669	-0.2261	67.1554	99.9912	
    14	-0.1258	-0.0482	-0.1741	-0.1435	-0.0632	-0.2067	-0.1697	-0.0515	-0.2212	67.0859	99.9920	
    15	-0.0868	-0.0388	-0.1258	-0.1021	-0.0376	-0.1397	-0.0882	-0.0334	-0.1215	67.1529	99.9916	
    16	-0.0159	-0.0098	-0.0258	-0.0077	-0.0173	-0.0251	 0.0225	-0.0080	 0.0145	67.2545	99.9914	
    17	 0.0220	-0.0156	 0.0063	 0.0260	-0.0091	 0.0169	 0.0285	-0.0042	 0.0243	67.1857	99.9921	
    18	 0.0150	-0.0053	 0.0096	-0.0000	 0.0000	 0.0000	 0.0225	-0.0080	 0.0145	67.2210	99.9916	
    19	 0.0070	-0.0103	-0.0033	 0.0122	-0.0177	-0.0055	 0.0225	-0.0080	 0.0145	67.2206	99.9917	
    20	 0.0000	 0.0000	-0.0000	-0.0000	 0.0000	 0.0000	 0.0000	-0.0000	-0.0000	67.1865	99.9921	
    21	-0.0080	-0.0049	-0.0129	-0.0260	 0.0092	-0.0168	 0.0106	-0.0155	-0.0049	67.2559	99.9917	
    22	-0.0309	-0.0044	-0.0355	-0.0398	 0.0007	-0.0391	-0.0239	-0.0151	-0.0389	67.2219	99.9920	
    23	-0.0689	 0.0014	-0.0676	-0.0675	-0.0163	-0.0838	-0.0643	-0.0184	-0.0826	67.2228	99.9919	
    24	-0.0928	-0.0133	-0.1063	-0.1142	-0.0199	-0.1342	-0.1212	-0.0100	-0.1312	67.0843	99.9917	
    25	-0.0779	-0.0187	-0.0967	-0.0769	-0.0599	-0.1368	-0.1261	-0.0903	-0.2164	67.2977	99.9930	
    26	-0.5747	-0.5874	-1.1621	-1.0379	-0.8663	-1.9042	-1.5856	-1.0406	-2.6262	66.8259	99.9948	
    27	-2.7289	-1.6508	-4.3797	-3.2657	-1.7344	-5.0001	-3.4454	-1.5797	-5.0250	65.3902	99.9818	
    28	-3.3119	-1.8929	-5.2049	-3.5757	-2.0136	-5.5892	-3.6198	-1.8992	-5.5190	66.3817	99.9846	
    29	-2.9864	-1.8385	-4.8249	-2.9853	-1.9273	-4.9126	-2.8676	-1.8131	-4.6808	67.2693	99.9864	
    30	-2.1766	-1.6466	-3.8233	-2.3397	-1.8069	-4.1466	-2.4184	-1.7959	-4.2144	67.3915	99.9890	
    31	-2.1287	-1.6171	-3.7459	-2.3112	-1.7768	-4.0880	-2.4037	-1.7425	-4.1462	67.2463	99.9884	
    32	-2.0299	-1.5125	-3.5425	-2.2051	-1.6736	-3.8786	-2.2829	-1.6445	-3.9273	67.2794	99.9883	
    33	-1.8223	-1.3846	-3.2071	-1.9761	-1.5199	-3.4960	-2.0327	-1.4983	-3.5310	67.3086	99.9888	
    34	-1.7524	-1.3708	-3.1233	-1.9294	-1.5163	-3.4457	-2.0095	-1.4948	-3.5043	67.2743	99.9887	
    35	-1.7205	-1.3512	-3.0717	-1.8550	-1.4957	-3.3507	-1.8988	-1.4694	-3.3682	67.4133	99.9885	
    36	-1.6067	-1.2519	-2.8587	-1.6866	-1.3541	-3.0407	-1.6486	-1.3232	-2.9719	67.5081	99.9883	
    37	-1.4061	-1.1138	-2.5200	-1.5097	-1.1821	-2.6918	-1.4586	-1.1265	-2.5851	67.2882	99.9875	
    38	-1.1147	-0.8760	-1.9908	-1.3034	-0.9668	-2.2702	-1.3290	-0.9788	-2.3078	67.2227	99.9888	
    39	-1.4002	-1.0226	-2.4229	-1.6853	-1.2273	-2.9126	-1.8261	-1.3133	-3.1394	67.3905	99.9895	
    40	-2.3037	-1.3598	-3.6636	-2.4789	-1.3758	-3.8547	-2.2909	-1.2077	-3.4986	66.6143	99.9805	
    41	-1.2168	-0.6760	-1.8929	-1.2538	-0.8101	-2.0639	-1.3698	-0.8940	-2.2638	67.5091	99.9936	
    42	-1.6558	-1.0632	-2.7191	-2.0695	-1.3127	-3.3822	-2.3751	-1.4594	-3.8345	67.0475	99.9914	
    43	-2.8907	-1.6627	-4.5535	-3.4634	-1.9192	-5.3826	-3.7741	-1.8857	-5.6599	65.9459	99.9843	
    44	-3.0985	-1.5571	-4.6557	-3.5283	-1.6818	-5.2101	-3.5818	-1.5550	-5.1367	65.8322	99.9805	
    45	-2.3881	-0.8861	-3.2743	-2.4254	-0.8385	-3.2638	-2.1490	-0.6656	-2.8146	66.4276	99.9826	
    46	-1.1982	-0.2704	-1.4687	-1.1612	-0.2866	-1.4478	-0.9706	-0.2786	-1.2493	67.2626	99.9888	
    47	-0.6842	 0.0898	-0.5945	-0.8789	-0.0245	-0.9034	-0.7852	-0.0627	-0.8479	67.0634	99.9859	
    48	-1.0067	-0.0357	-1.0424	-1.3815	-0.1954	-1.5769	-1.3954	-0.0817	-1.4770	66.0788	99.9795	
    49	-1.4788	-0.3409	-1.8198	-1.8135	-0.7263	-2.5398	-2.2769	-0.6908	-2.9677	66.2353	99.9896	
    50	-3.1108	-1.2726	-4.3835	-3.3570	-1.3872	-4.7442	-3.3949	-1.3161	-4.7110	66.1595	99.9861	
    51	-3.7892	-2.0407	-5.8299	-4.1543	-2.2313	-6.3856	-4.3585	-2.1425	-6.5010	66.0197	99.9860	
    52	-4.4928	-2.4885	-6.9814	-4.8276	-2.5831	-7.4108	-5.0419	-2.5167	-7.5586	65.7964	99.9896	
    53	-4.8304	-2.4919	-7.3224	-5.2058	-2.6774	-7.8831	-5.4742	-2.6337	-8.1079	65.7967	99.9891	
    54	-4.8204	-2.4565	-7.2771	-4.8658	-2.5562	-7.4221	-4.8094	-2.7572	-7.5666	67.6889	99.9932	
    55	-5.5938	-3.1516	-8.7455	-5.8261	-3.3495	-9.1755	-5.8994	-3.2985	-9.1979	66.6661	99.9868	
    56	-5.0777	-2.8777	-7.9555	-5.5576	-3.0958	-8.6535	-5.5653	-3.0002	-8.5655	66.2501	99.9766	
    57	-4.4070	-2.4648	-6.8719	-5.0090	-2.7201	-7.7291	-4.9395	-2.6291	-7.5686	66.3224	99.9689	
    58	-4.0678	-2.0808	-6.1486	-4.6027	-2.2806	-6.8833	-4.4639	-2.1756	-6.6395	66.2415	99.9696	
    59	-3.4380	-1.5909	-5.0291	-3.9808	-1.7967	-5.7775	-3.8312	-1.6896	-5.5209	66.2005	99.9685	
    60	-2.8711	-1.2419	-4.1131	-3.5168	-1.4982	-5.0151	-3.5140	-1.4792	-4.9932	66.1659	99.9728	
    61	-3.0558	-1.3702	-4.4260	-3.6197	-1.5490	-5.1687	-3.6907	-1.6455	-5.3361	66.3156	99.9834	
    62	-2.6243	-1.3382	-3.9626	-3.2030	-1.5823	-4.7853	-3.2969	-1.7846	-5.0815	67.0229	99.9850	
    63	-2.1000	-1.2928	-3.3930	-2.9006	-1.6355	-4.5362	-3.0884	-1.8524	-4.9408	66.9970	99.9807	
    64	-2.4875	-1.3561	-3.8437	-3.2088	-1.6741	-4.8829	-3.2983	-1.8076	-5.1058	66.8413	99.9776	
    65	-2.2670	-1.1474	-3.4144	-2.8822	-1.4477	-4.3299	-2.9606	-1.6396	-4.6001	67.1682	99.9822	
    66	-2.8936	-1.7084	-4.6021	-3.7501	-2.1463	-5.8964	-4.0920	-2.2953	-6.3872	66.5607	99.9797	
    67	-4.0422	-1.6854	-5.7277	-4.6341	-1.7200	-6.3541	-4.5884	-1.6684	-6.2568	65.2392	99.9785	
    68	-4.1101	-1.6688	-5.7790	-4.9444	-1.8986	-6.8429	-5.2283	-1.8938	-7.1221	64.7674	99.9793	
    69	-4.7512	-1.7423	-6.4936	-5.2044	-1.5922	-6.7966	-4.6076	-1.4153	-6.0229	65.3239	99.9633	
    70	-2.0233	-1.1725	-3.1959	-2.6326	-1.4957	-4.1283	-2.7461	-1.7036	-4.4497	67.3909	99.9832	
    71	-2.7442	-1.2952	-4.0395	-2.9904	-1.4765	-4.4669	-2.8563	-1.5298	-4.3861	67.3557	99.9833	
    72	-1.7640	-0.7209	-2.4851	-2.0469	-0.8449	-2.8918	-1.7906	-0.9154	-2.7060	67.4376	99.9804	
    73	-1.1571	-0.4641	-1.6212	-1.5939	-0.6162	-2.2101	-1.4508	-0.7129	-2.1638	67.1930	99.9801	
    74	-0.9465	-0.2906	-1.2372	-1.2311	-0.3423	-1.5735	-0.9346	-0.4438	-1.3785	67.4529	99.9814	
    75	-0.5242	-0.1621	-0.6863	-0.8091	-0.1832	-0.9923	-0.5154	-0.2577	-0.7731	67.3731	99.9813	
    76	-0.2497	 0.0507	-0.1991	-0.5276	 0.0658	-0.4618	-0.2523	 0.0070	-0.2453	67.1558	99.9823	
    77	-0.2028	 0.0650	-0.1379	-0.5981	-0.1036	-0.7017	-0.5045	-0.3613	-0.8657	67.8248	99.9858	
    78	-1.3077	-0.6590	-1.9668	-1.8550	-0.7518	-2.6068	-1.7949	-0.7966	-2.5915	66.5164	99.9799	
    79	-1.5434	-0.6289	-2.1724	-1.9416	-0.7548	-2.6963	-1.7586	-0.8622	-2.6208	67.2306	99.9809	
    80	-1.1980	-0.5039	-1.7019	-1.4968	-0.6573	-2.1540	-1.2350	-0.7540	-1.9890	67.7149	99.9798	
    81	-1.0777	-0.8971	-1.9749	-1.9382	-1.2318	-3.1699	-2.2159	-1.3925	-3.6084	66.6897	99.9802	
    82	-2.8440	-1.4150	-4.2591	-3.2681	-1.5593	-4.8274	-3.0999	-1.4731	-4.5730	66.5225	99.9741	
    83	-1.6802	-0.6110	-2.2913	-1.7541	-0.6267	-2.3807	-1.3837	-0.6487	-2.0324	67.5158	99.9829	
    84	-0.7826	-0.3650	-1.1477	-1.2109	-0.4433	-1.6542	-0.9992	-0.5617	-1.5610	67.2886	99.9804	
    85	-0.5670	-0.2323	-0.7994	-0.8527	-0.3487	-1.2014	-0.5353	-0.4911	-1.0264	67.9792	99.9804	
    86	-0.1058	-0.0943	-0.2001	-0.3034	-0.1742	-0.4776	 0.2188	-0.1829	 0.0359	68.1109	99.9726	
    87	 1.3719	 0.3482	 1.7200	 1.3052	 0.4637	 1.7689	 1.7558	 0.5289	 2.2847	67.7516	99.9804	
    88	 1.1092	 0.4347	 1.5437	 0.7917	 0.4373	 1.2291	 0.9945	 0.4812	 1.4757	67.0349	99.9800	
    89	 0.8764	 0.5104	 1.3867	 0.5685	 0.3755	 0.9440	 0.6898	 0.2898	 0.9797	67.5726	99.9832	
    90	 1.0013	 0.4267	 1.4279	 0.6071	 0.2479	 0.8550	 0.7161	-0.0361	 0.6800	68.2931	99.9855	
    91	 0.7949	 0.0806	 0.8754	 0.2190	-0.2181	 0.0009	 0.2690	-0.4938	-0.2248	68.3666	99.9808	
    92	 0.7032	-0.0343	 0.6687	 0.0799	-0.3164	-0.2364	 0.1263	-0.5724	-0.4461	68.1936	99.9796	
    93	 0.6044	-0.1389	 0.4654	-0.0962	-0.4753	-0.5715	-0.1790	-0.7753	-0.9543	68.1482	99.9817	
    94	 0.2931	-0.4474	-0.1544	-0.6030	-0.9261	-1.5291	-0.8655	-1.2950	-2.1605	68.2035	99.9812	
    95	-0.1193	-0.5406	-0.6600	-0.9571	-0.9552	-1.9122	-1.1105	-1.2612	-2.3717	67.9705	99.9791	
    96	-0.1323	-0.5049	-0.6373	-1.0636	-0.9577	-2.0213	-1.2807	-1.2246	-2.5052	67.6118	99.9764	
    97	-0.3941	-0.4032	-0.7974	-1.2911	-0.7701	-2.0613	-1.4380	-0.8816	-2.3197	66.7881	99.9718	
    98	-0.8804	-0.4544	-1.3349	-1.6082	-0.7385	-2.3467	-1.5035	-0.8233	-2.3268	67.0652	99.9692	
    99	-0.6635	-0.6567	-1.3202	-1.0005	-0.9063	-1.9068	-0.6407	-0.9992	-1.6399	68.5240	99.9727	
   100	 0.2860	-0.3203	-0.0345	-0.1328	-0.4221	-0.5549	 0.0735	-0.4951	-0.4216	67.7316	99.9786	
   101	 0.9446	 0.2603	 1.2048	 0.5468	 0.1352	 0.6820	 0.6816	-0.0356	 0.6460	67.8984	99.9832	
   102	 0.9625	 0.3005	 1.2630	 0.5172	 0.1926	 0.7098	 0.6208	 0.0034	 0.6243	67.7275	99.9837	
   103	 0.8586	 0.3534	 1.2119	 0.4754	 0.2677	 0.7430	 0.6316	 0.0876	 0.7192	67.7544	99.9839	
   104	 0.7807	 0.3346	 1.1152	 0.3761	 0.1687	 0.5448	 0.4398	-0.0440	 0.3958	67.8752	99.9852	
   105	 0.4963	 0.0865	 0.5828	 0.0430	-0.1626	-0.1196	 0.0766	-0.3496	-0.2730	67.9635	99.9828	
   106	 0.4166	-0.0793	 0.3371	 0.0023	-0.1750	-0.1727	 0.2424	-0.2675	-0.0250	67.7246	99.9784	
   107	 0.4925	-0.0910	 0.4014	 0.0792	-0.1151	-0.0359	 0.3980	-0.0703	 0.3277	67.2550	99.9732	
   108	 0.0800	-0.0675	 0.0123	-0.4127	-0.1155	-0.5282	-0.1077	-0.1672	-0.2749	67.2342	99.9743	
   109	 0.1377	 0.1140	 0.2516	-0.2354	-0.0441	-0.2795	-0.0354	-0.1107	-0.1460	67.5526	99.9785	
   110	 0.4224	 0.1286	 0.5509	-0.0428	-0.1524	-0.1951	-0.0084	-0.4251	-0.4335	68.2571	99.9841	
   111	 0.4195	-0.0337	 0.3857	-0.0786	-0.3005	-0.3792	-0.0319	-0.5282	-0.5601	68.1507	99.9821	
   112	 0.4655	-0.0346	 0.4307	-0.1315	-0.2953	-0.4267	-0.0498	-0.5395	-0.5893	68.0841	99.9794	
   113	 0.4655	-0.0346	 0.4307	-0.1729	-0.3208	-0.4938	-0.1482	-0.6455	-0.7936	68.2420	99.9817	
   114	-0.0734	-0.5416	-0.6150	-0.9030	-1.0480	-1.9510	-1.1508	-1.4522	-2.6030	68.4695	99.9828	
   115	-0.6085	-0.7542	-1.3627	-1.3893	-1.1710	-2.5603	-1.5694	-1.4392	-3.0086	67.8305	99.9803	
   116	-0.5757	-0.6026	-1.1783	-1.4539	-1.0343	-2.4882	-1.6810	-1.2883	-2.9693	67.4300	99.9785	
   117	-0.7855	-0.5273	-1.3129	-1.7246	-0.8984	-2.6230	-1.8816	-0.9947	-2.8762	66.5352	99.9703	
   118	-1.1849	-0.5397	-1.7247	-1.9440	-0.7941	-2.7381	-1.8307	-0.8191	-2.6498	66.6311	99.9665	
   119	-0.9342	-0.5751	-1.5094	-1.3249	-0.7783	-2.1032	-0.9537	-0.8534	-1.8071	68.0313	99.9715	
   120	 0.0173	-0.3251	-0.3079	-0.4747	-0.4689	-0.9435	-0.2990	-0.5746	-0.8736	67.6403	99.9778	
   121	 0.6430	 0.2207	 0.8635	 0.1269	 0.1160	 0.2429	 0.2246	 0.0086	 0.2332	67.2051	99.9804	
   122	 0.8176	 0.4303	 1.2478	 0.3356	 0.3707	 0.7063	 0.3883	 0.2439	 0.6322	67.0247	99.9838	
   123	 0.8613	 0.6325	 1.4937	 0.5028	 0.5998	 1.1025	 0.6268	 0.4822	 1.1089	67.1525	99.9848	
   124	 1.0969	 0.7191	 1.8159	 0.7191	 0.6574	 1.3764	 0.8064	 0.5067	 1.3130	67.2935	99.9855	
   125	 0.8943	 0.5506	 1.4448	 0.4376	 0.4083	 0.8460	 0.4888	 0.1967	 0.6855	67.5563	99.9848	
   126	 0.5131	 0.2283	 0.7414	-0.0626	 0.0624	-0.0002	-0.0248	-0.1261	-0.1509	67.3603	99.9817	
   127	 0.1157	 0.1297	 0.2453	-0.4292	 0.1517	-0.2775	-0.1755	 0.2320	 0.0565	66.2478	99.9720	
   128	 0.1565	 0.2862	 0.4426	-0.2340	 0.2972	 0.0632	 0.0707	 0.4089	 0.4796	66.4864	99.9731	
   129	-0.1841	 0.3539	 0.1697	-0.5978	 0.3252	-0.2726	-0.3011	 0.3409	 0.0398	66.6318	99.9751	
   130	 0.1094	 0.5054	 0.6147	-0.3262	 0.4169	 0.0906	-0.1243	 0.3195	 0.1952	66.9879	99.9795	
   131	 0.1204	 0.4392	 0.5595	-0.3621	 0.2687	-0.0934	-0.2176	 0.1062	-0.1114	67.3163	99.9801	
   132	 0.0176	 0.3905	 0.4080	-0.4951	 0.1616	-0.3335	-0.4379	-0.0212	-0.4591	67.3275	99.9813	
   133	-0.1890	 0.2779	 0.0888	-0.8557	 0.0276	-0.8281	-0.7850	-0.2504	-1.0354	67.4158	99.9795	
   134	-0.8058	-0.1310	-0.9370	-1.5552	-0.5294	-2.0846	-1.6877	-0.8286	-2.5163	67.4159	99.9810	
   135	-1.2841	-0.2941	-1.5782	-2.0017	-0.6531	-2.6548	-2.1119	-0.9074	-3.0193	67.1228	99.9809	
   136	-1.2632	-0.2082	-1.4715	-2.0764	-0.5731	-2.6495	-2.2712	-0.7866	-3.0578	66.5737	99.9798	
   137	-1.2763	-0.0557	-1.3321	-2.2027	-0.3609	-2.5637	-2.3544	-0.4523	-2.8067	65.6849	99.9726	
   138	-1.4004	 0.1600	-1.2405	-2.2863	 0.0037	-2.2826	-2.2715	 0.0637	-2.2078	64.8852	99.9663	
   139	-1.5562	 0.2392	-1.3171	-2.1777	 0.1462	-2.0315	-1.8245	 0.2341	-1.5903	65.6864	99.9623	
   140	-0.8751	 0.2205	-0.6546	-1.3524	 0.1629	-1.1895	-1.0008	 0.0780	-0.9228	66.7825	99.9743	
   141	-0.0485	 0.5542	 0.5057	-0.6567	 0.5537	-0.1029	-0.5511	 0.4820	-0.0691	65.9699	99.9796	
   142	 0.4076	 0.9664	 1.3738	-0.1784	 0.9744	 0.7961	-0.1300	 0.8903	 0.7603	65.8275	99.9822	
   143	 0.4363	 1.1739	 1.6101	-0.0676	 1.2570	 1.1893	 0.0153	 1.2025	 1.2178	65.5816	99.9837	
   144	 0.6039	 1.3938	 1.9976	 0.1992	 1.4844	 1.6835	 0.2763	 1.4327	 1.7091	65.6517	99.9858	
   145	 0.7336	 1.5029	 2.2364	 0.3236	 1.5610	 1.8846	 0.3891	 1.4926	 1.8817	65.7561	99.9858	
   146	 0.6399	 1.3576	 1.9974	 0.1459	 1.3759	 1.5217	 0.1731	 1.2464	 1.4195	65.8969	99.9857	
   147	 0.2277	 1.0309	 1.2585	-0.4105	 0.9827	 0.5723	-0.4765	 0.8602	 0.3837	65.6508	99.9840	
   148	-0.3225	 0.9403	 0.6177	-0.9177	 1.1619	 0.2442	-0.5999	 1.2908	 0.6909	64.6422	99.9725	
   149	-0.1131	 1.3320	 1.2188	-0.5484	 1.5408	 0.9924	-0.1502	 1.6949	 1.5446	64.8954	99.9729	
   150	-0.6286	 1.4235	 0.7949	-1.1443	 1.5771	 0.4327	-0.8663	 1.7309	 0.8646	64.3298	99.9735	
   151	-0.7367	 1.6490	 0.9123	-1.2532	 1.7496	 0.4964	-0.9823	 1.7132	 0.7310	64.8470	99.9784	
   152	-0.8375	 1.6307	 0.7931	-1.4744	 1.6133	 0.1389	-1.3516	 1.5916	 0.2400	64.5886	99.9769	
   153	-0.9256	 1.8101	 0.8844	-1.4536	 1.8405	 0.3869	-1.2618	 1.7475	 0.4857	64.8414	99.9806	
   154	-1.0735	 1.8943	 0.8207	-1.7117	 1.8580	 0.1462	-1.6161	 1.7789	 0.1628	64.4430	99.9790	
   155	-1.3830	 1.8497	 0.4666	-2.1000	 1.7070	-0.3930	-2.1548	 1.5177	-0.6371	64.5310	99.9824	
   156	-2.1307	 1.4332	-0.6975	-2.9650	 1.1615	-1.8035	-3.1793	 0.9180	-2.2613	64.4662	99.9833	
   157	-2.6718	 1.2461	-1.4258	-3.5647	 1.0316	-2.5330	-3.7101	 0.8827	-2.8273	63.8353	99.9786	
   158	-2.6011	 1.5086	-1.0926	-3.5295	 1.3811	-2.1484	-3.6936	 1.3460	-2.3476	62.8891	99.9768	
   159	-2.5654	 1.7058	-0.8596	-3.6188	 1.6539	-1.9649	-3.7163	 1.7293	-1.9870	62.0217	99.9690	
   160	-2.7791	 1.7203	-1.0590	-3.7431	 1.7916	-1.9515	-3.6131	 1.9157	-1.6975	62.0349	99.9650	
   161	-2.6413	 1.7175	-0.9239	-3.2585	 1.8885	-1.3701	-2.8279	 1.9783	-0.8496	63.2876	99.9687	
   162	-1.6517	 1.8449	 0.1931	-2.3905	 2.0576	-0.3329	-2.2069	 2.0814	-0.1255	63.0301	99.9767	
   163	-0.9221	 2.3379	 1.4157	-1.7532	 2.5762	 0.8231	-1.8290	 2.6281	 0.7991	62.1396	99.9819	
   164	-0.6978	 2.7242	 2.0263	-1.4343	 2.9997	 1.5654	-1.5105	 3.0492	 1.5386	62.0629	99.9846	
   165	-0.5991	 2.9455	 2.3463	-1.2378	 3.2720	 2.0343	-1.2812	 3.3258	 2.0446	62.0560	99.9863	
   166	-0.4285	 3.0944	 2.6658	-1.0730	 3.4617	 2.3887	-1.0866	 3.5033	 2.4167	62.0000	99.9863	
   167	-0.4016	 3.1548	 2.7531	-1.0454	 3.4788	 2.4334	-1.1158	 3.4960	 2.3803	62.0591	99.9874	
   168	-0.6281	 2.9715	 2.3433	-1.3866	 3.2308	 1.8442	-1.5497	 3.2565	 1.7068	61.8069	99.9865	
   169	-1.0972	 2.7119	 1.6145	-2.0960	 3.0458	 0.9498	-2.1981	 3.0810	 0.8829	61.0941	99.9812	
   170	-1.7656	 2.9282	 1.1625	-2.6145	 3.4703	 0.8557	-2.3905	 3.7001	 1.3097	60.3552	99.9744	
   171	-2.0556	 3.3045	 1.2488	-2.6676	 3.7906	 1.1230	-2.3485	 4.0137	 1.6652	60.8183	99.9765	
   172	-2.6571	 3.6059	 0.9486	-3.4126	 4.1007	 0.6881	-3.0957	 4.2953	 1.1996	60.0124	99.9742	
   173	-2.7355	 4.0540	 1.3185	-3.4738	 4.5043	 1.0305	-3.2777	 4.6117	 1.3340	59.8120	99.9797	
   174	-3.0762	 4.2385	 1.1622	-3.8006	 4.5930	 0.7924	-3.6155	 4.6314	 1.0159	59.9902	99.9803	
   175	-3.3221	 4.4667	 1.1445	-4.1172	 4.7383	 0.6211	-3.9688	 4.7738	 0.8050	59.7068	99.9783	
   176	-3.7057	 4.5810	 0.8751	-4.5148	 4.7582	 0.2434	-4.4310	 4.6380	 0.2071	59.9970	99.9818	
   177	-4.4923	 4.1551	-0.3373	-5.5001	 4.2016	-1.2985	-5.6317	 4.0713	-1.5604	59.3638	99.9815	
   178	-5.2712	 3.9677	-1.3036	-6.2876	 4.0443	-2.2433	-6.3919	 3.9470	-2.4449	58.8849	99.9805	
   179	-5.4291	 4.1332	-1.2960	-6.4908	 4.1965	-2.2943	-6.6550	 4.1573	-2.4977	58.2730	99.9795	
   180	-5.2475	 4.3326	-0.9150	-6.4346	 4.4581	-1.9765	-6.6064	 4.4860	-2.1203	57.5077	99.9760	
   181	-5.3324	 4.3242	-1.0084	-6.6101	 4.6273	-1.9828	-6.6248	 4.7506	-1.8743	56.7703	99.9694	
   182	-5.3565	 4.4262	-0.9304	-6.3726	 4.8115	-1.5611	-6.0809	 5.0040	-1.0769	57.5512	99.9657	
   183	-4.7293	 4.4035	-0.3259	-5.4591	 4.8573	-0.6018	-5.1466	 5.0609	-0.0857	58.3941	99.9745	
   184	-3.5849	 4.5532	 0.9682	-4.7150	 5.0635	 0.3485	-4.8912	 5.1994	 0.3082	56.9571	99.9821	
   185	-3.0489	 4.8977	 1.8487	-4.1607	 5.5311	 1.3704	-4.4265	 5.7564	 1.3299	56.2213	99.9849	
   186	-2.7206	 5.2312	 2.5105	-3.6044	 5.9242	 2.3199	-3.8290	 6.2313	 2.4024	56.3815	99.9874	
   187	-2.6268	 5.2598	 2.6329	-3.4906	 5.8304	 2.3398	-3.8302	 6.0207	 2.1905	56.9055	99.9903	
   188	-3.3694	 4.8026	 1.4331	-4.2286	 5.4009	 1.1723	-4.4514	 5.6303	 1.1789	56.8775	99.9880	
   189	-3.9253	 4.3874	 0.4620	-4.8269	 4.8685	 0.0415	-5.1273	 5.0951	-0.0322	56.9316	99.9876	
   190	-4.5363	 4.1865	-0.3499	-5.3868	 4.7379	-0.6489	-5.6619	 5.0905	-0.5714	56.2971	99.9867	
   191	-4.7661	 4.3078	-0.4584	-5.5900	 4.8901	-0.6999	-5.8290	 5.2727	-0.5563	56.0346	99.9863	
   192	-4.7822	 4.4147	-0.3676	-5.5826	 5.0081	-0.5745	-5.7757	 5.3946	-0.3811	56.0656	99.9858	
   193	-4.7603	 4.5158	-0.2447	-5.5638	 5.0953	-0.4685	-5.7874	 5.4867	-0.3007	55.9536	99.9861	
   194	-4.7883	 4.5569	-0.2315	-5.6455	 5.1711	-0.4744	-5.8686	 5.5682	-0.3005	55.6610	99.9855	
   195	-4.8593	 4.6446	-0.2148	-5.7377	 5.2908	-0.4469	-5.9855	 5.7267	-0.2587	55.2353	99.9855	
   196	-4.9533	 4.7328	-0.2206	-5.8410	 5.3407	-0.5003	-6.1205	 5.7744	-0.3461	55.1366	99.9855	
   197	-5.0652	 4.7807	-0.2846	-5.9669	 5.4522	-0.5147	-6.2637	 5.9716	-0.2921	54.5164	99.9848	
   198	-5.0135	 4.9877	-0.0258	-5.9237	 5.7184	-0.2053	-6.1728	 6.2385	 0.0657	54.3181	99.9845	
   199	-4.8568	 5.1572	 0.3002	-5.8041	 5.9307	 0.1267	-6.0120	 6.4280	 0.4160	54.2456	99.9840	
   200	-4.8410	 5.2837	 0.4426	-5.7889	 6.0661	 0.2772	-5.9963	 6.5925	 0.5962	54.0547	99.9834	
   201	-4.8950	 5.3965	 0.5013	-5.8787	 6.2252	 0.3465	-6.0825	 6.7813	 0.6987	53.6439	99.9828	
   202	-4.8892	 5.6044	 0.7151	-5.9054	 6.4356	 0.5302	-6.1582	 6.9546	 0.7964	53.4050	99.9843	
   203	-5.3274	 5.3493	 0.0218	-6.5560	 6.2366	-0.3194	-6.9150	 6.8878	-0.0272	51.9822	99.9805	
   204	-5.4128	 5.8078	 0.3949	-6.4886	 6.7824	 0.2938	-6.6750	 7.4362	 0.7613	52.1533	99.9809	
   205	-5.2291	 5.9208	 0.6916	-6.3503	 6.8676	 0.5173	-6.4947	 7.4722	 0.9775	52.4018	99.9792	
   206	-4.6699	 6.0315	 1.3614	-5.4417	 7.0491	 1.6075	-5.3155	 7.6830	 2.3675	53.8600	99.9800	
   207	-3.5690	 6.6946	 3.1256	-4.3604	 7.6522	 3.2918	-4.5272	 8.3661	 3.8389	53.2824	99.9841	
   208	-3.3836	 7.0716	 3.6879	-4.2732	 7.9833	 3.7101	-4.4672	 8.5032	 4.0360	53.5160	99.9863	
   209	-3.7272	 7.0937	 3.3664	-4.5895	 8.0280	 3.4385	-4.7372	 8.5987	 3.8614	53.2606	99.9851	
   210	-3.8032	 7.2221	 3.4188	-4.7008	 8.1611	 3.4604	-4.8980	 8.6965	 3.7985	53.0133	99.9864	
   211	-3.9910	 7.2817	 3.2905	-4.8881	 8.2474	 3.3593	-5.0685	 8.8212	 3.7527	52.7168	99.9858	
   212	-3.9902	 7.4136	 3.4233	-4.8962	 8.3307	 3.4345	-5.1055	 8.8753	 3.7699	52.7559	99.9861	
   213	-4.3136	 7.2729	 2.9592	-5.3097	 8.2021	 2.8923	-5.5577	 8.7126	 3.1549	52.4075	99.9863	
   214	-4.6691	 7.2292	 2.5600	-5.6647	 8.1599	 2.4953	-5.9149	 8.6981	 2.7832	52.1314	99.9859	
   215	-4.7991	 7.3536	 2.5545	-5.8617	 8.3033	 2.4415	-6.0914	 8.8191	 2.7277	51.8619	99.9849	
   216	-4.8801	 7.5227	 2.6425	-5.9421	 8.5059	 2.5638	-6.1310	 9.1145	 2.9835	51.4428	99.9825	
   217	-4.7117	 7.8746	 3.1629	-5.7834	 8.9189	 3.1356	-5.9299	 9.4950	 3.5651	51.3101	99.9829	
   218	-4.5880	 8.0092	 3.4211	-5.6756	 9.0484	 3.3728	-5.8224	 9.5625	 3.7402	51.4430	99.9838	
   219	-4.8015	 7.7902	 2.9886	-5.9367	 8.6983	 2.7616	-6.2049	 9.2227	 3.0178	51.3834	99.9836	
   220	-5.2237	 7.5448	 2.3210	-6.3482	 8.4953	 2.1470	-6.6202	 9.0059	 2.3857	51.2214	99.9850	
   221	-5.5392	 7.4090	 1.8697	-6.5930	 8.4075	 1.8145	-6.8023	 9.0351	 2.2328	50.9804	99.9833	
   222	-5.3898	 7.8222	 2.4323	-6.4432	 8.8907	 2.4475	-6.5665	 9.5147	 2.9482	50.8230	99.9823	
   223	-5.2213	 8.1741	 2.9527	-6.2686	 9.2378	 2.9692	-6.4219	 9.8154	 3.3935	50.7756	99.9841	
   224	-5.2563	 8.2256	 2.9691	-6.3031	 9.2165	 2.9133	-6.4731	 9.7280	 3.2548	51.0642	99.9847	
   225	-5.4250	 8.1071	 2.6820	-6.4472	 9.0395	 2.5924	-6.6372	 9.5807	 2.9435	51.1301	99.9842	
   226	-5.6237	 7.9994	 2.3757	-6.6615	 8.9075	 2.2460	-6.9039	 9.4462	 2.5424	50.9855	99.9849	
   227	-5.9331	 7.8381	 1.9049	-6.9884	 8.7817	 1.7934	-7.1970	 9.3504	 2.1535	50.7561	99.9837	
   228	-6.1079	 7.8619	 1.7539	-7.1063	 8.8100	 1.7037	-7.3127	 9.4324	 2.1197	50.6129	99.9838	
   229	-6.1729	 7.9241	 1.7512	-7.1863	 8.9120	 1.7257	-7.3686	 9.5518	 2.1832	50.3925	99.9832	
   230	-6.2250	 8.0673	 1.8422	-7.1858	 9.0257	 1.8399	-7.3153	 9.6737	 2.3584	50.5827	99.9821	
   231	-6.0802	 8.1710	 2.0906	-7.0113	 9.1584	 2.1471	-7.1175	 9.8090	 2.6915	50.6472	99.9826	
   232	-5.9196	 8.2845	 2.3648	-6.8759	 9.3049	 2.4290	-6.9686	 9.9910	 3.0224	50.4547	99.9814	
   233	-5.8508	 8.3999	 2.5490	-6.8063	 9.4613	 2.6550	-6.8966	10.1356	 3.2390	50.3484	99.9824	
   234	-5.8419	 8.5367	 2.6947	-6.7851	 9.5878	 2.8027	-6.8651	10.2769	 3.4118	50.3063	99.9819	
   235	-5.8370	 8.6127	 2.7757	-6.8115	 9.6976	 2.8862	-6.8641	10.3880	 3.5238	50.1536	99.9810	
   236	-5.8770	 8.7049	 2.8278	-6.8309	 9.8117	 2.9808	-6.9166	10.5648	 3.6482	49.8065	99.9813	
   237	-5.8142	 8.8458	 3.0314	-6.7284	 9.9631	 3.2348	-6.8061	10.7779	 3.9718	49.6751	99.9806	
   238	-5.6875	 8.9092	 3.2216	-6.5918	10.0221	 3.4303	-6.6926	10.8492	 4.1566	49.6593	99.9810	
   239	-5.7184	 8.9047	 3.1862	-6.6645	10.0277	 3.3632	-6.7516	10.8232	 4.0716	49.6323	99.9807	
   240	-5.7784	 8.9262	 3.1478	-6.7121	10.0110	 3.2989	-6.8258	10.8318	 4.0060	49.5805	99.9803	
   241	-5.8403	 8.9173	 3.0770	-6.7804	 9.9815	 3.2011	-6.8862	10.7828	 3.8966	49.6594	99.9800	
   242	-5.9341	 8.8888	 2.9545	-6.8886	 9.9527	 3.0642	-6.9494	10.6878	 3.7384	49.8743	99.9802	
   243	-5.9890	 8.8696	 2.8804	-6.9353	 9.9491	 3.0138	-6.9719	10.6958	 3.7239	49.8582	99.9797	
   244	-5.8562	 8.9075	 3.0512	-6.7857	10.0035	 3.2178	-6.8075	10.7550	 3.9475	49.9365	99.9799	
   245	-5.7324	 8.9253	 3.1928	-6.6731	 9.9972	 3.3241	-6.7174	10.7231	 4.0057	50.0541	99.9804	
   246	-5.7973	 8.8708	 3.0734	-6.7760	 9.9464	 3.1705	-6.7820	10.6052	 3.8232	50.2225	99.9802	
   247	-5.9330	 8.7872	 2.8541	-6.9220	 9.8439	 2.9219	-6.9334	10.4770	 3.5435	50.2766	99.9805	
   248	-6.0847	 8.6938	 2.6090	-7.1200	 9.7597	 2.6398	-7.0901	10.3564	 3.2663	50.3056	99.9793	
   249	-6.1806	 8.6348	 2.4542	-7.1968	 9.6998	 2.5029	-7.1544	10.3381	 3.1836	50.2504	99.9783	
   250	-6.1027	 8.6536	 2.5508	-7.0887	 9.7286	 2.6399	-7.0100	10.3516	 3.3416	50.4640	99.9786	
   251	-6.0168	 8.6772	 2.6603	-7.0411	 9.7453	 2.7042	-6.9861	10.3666	 3.3805	50.3744	99.9782	
   252	-6.0777	 8.6835	 2.6057	-7.1070	 9.7551	 2.6482	-7.0662	10.3714	 3.3052	50.2889	99.9788	
   253	-6.1377	 8.7050	 2.5673	-7.1712	 9.7912	 2.6200	-7.1324	10.4182	 3.2859	50.1525	99.9788	
   254	-6.1388	 8.8066	 2.6677	-7.1170	 9.9128	 2.7958	-7.0418	10.5856	 3.5438	50.1294	99.9782	
   255	-5.9681	 8.9554	 2.9872	-6.9462	10.0937	 3.1475	-6.9073	10.8137	 3.9064	49.8351	99.9787	
   256	-5.6598	 9.2182	 3.5584	-6.5375	10.3581	 3.8206	-6.4435	11.0720	 4.6285	50.2442	99.9796	
   257	-5.4212	 9.3505	 3.9292	-6.2988	10.4547	 4.1559	-6.2802	11.2078	 4.9276	50.1145	99.9799	
   258	-5.2605	 9.4640	 4.2034	-6.1520	10.5704	 4.4183	-6.1136	11.3014	 5.1878	50.2073	99.9796	
   259	-5.1957	 9.5186	 4.3228	-6.1028	10.6133	 4.5105	-6.0897	11.3164	 5.2267	50.2193	99.9805	
   260	-5.2745	 9.4846	 4.2100	-6.2118	10.5714	 4.3596	-6.2236	11.2875	 5.0639	50.0462	99.9800	
   261	-5.4263	 9.3912	 3.9649	-6.4114	10.4610	 4.0495	-6.4408	11.1179	 4.6772	50.0598	99.9806	
   262	-5.6368	 9.2178	 3.5809	-6.6083	10.2893	 3.6810	-6.6431	11.0018	 4.3587	49.9071	99.9798	
   263	-5.6976	 9.1073	 3.4096	-6.7014	10.1815	 3.4800	-6.7052	10.8302	 4.1250	50.1043	99.9798	
   264	-5.8344	 9.0086	 3.1741	-6.8206	10.0828	 3.2622	-6.8075	10.7550	 3.9475	50.1043	99.9792	
   265	-5.7524	 8.9714	 3.2189	-6.7556	10.0599	 3.3043	-6.7625	10.7390	 3.9766	50.0321	99.9794	
   266	-5.7145	 8.9656	 3.2510	-6.7210	10.0812	 3.3602	-6.7147	10.7691	 4.0544	49.9864	99.9793	
   267	-5.6825	 8.9852	 3.3026	-6.7003	10.0939	 3.3937	-6.6908	10.7841	 4.0933	49.9864	99.9787	
   268	-5.6126	 8.9991	 3.3863	-6.5799	10.1050	 3.5251	-6.5351	10.7936	 4.2585	50.2416	99.9788	
   269	-5.4698	 8.9556	 3.4857	-6.5019	10.0774	 3.5756	-6.4689	10.7468	 4.2778	50.1818	99.9784	
   270	-5.5107	 8.9158	 3.4050	-6.5389	10.0168	 3.4779	-6.5473	10.6865	 4.1392	50.1469	99.9793	
   271	-5.5376	 8.8555	 3.3178	-6.5560	 9.9558	 3.3998	-6.5627	10.6216	 4.0589	50.2103	99.9796	
   272	-5.5785	 8.8157	 3.2371	-6.6321	 9.9090	 3.2769	-6.6133	10.5456	 3.9323	50.2860	99.9786	
   273	-5.6264	 8.7862	 3.1597	-6.6674	 9.8746	 3.2071	-6.6452	10.4924	 3.8472	50.3792	99.9792	
   274	-5.5834	 8.7396	 3.1561	-6.5971	 9.8297	 3.2325	-6.5341	10.4297	 3.8956	50.6468	99.9791	
   275	-5.4955	 8.6770	 3.1814	-6.5407	 9.7762	 3.2355	-6.4483	10.3290	 3.8807	50.8419	99.9788	
   276	-5.5064	 8.6264	 3.1199	-6.5578	 9.7152	 3.1574	-6.4816	10.2528	 3.7712	50.8849	99.9792	
   277	-5.5473	 8.5867	 3.0392	-6.5688	 9.6454	 3.0766	-6.4956	10.2109	 3.7152	50.9570	99.9788	
   278	-5.5802	 8.5518	 2.9714	-6.6034	 9.6241	 3.0208	-6.5051	10.1497	 3.6446	51.0889	99.9792	
   279	-5.6112	 8.5473	 2.9360	-6.6302	 9.6202	 2.9900	-6.4840	10.1188	 3.6348	51.2713	99.9786	
   280	-5.4973	 8.5298	 3.0324	-6.4916	 9.6047	 3.1131	-6.3574	10.1210	 3.7636	51.3296	99.9791	
   281	-5.4284	 8.5285	 3.0999	-6.4265	 9.5817	 3.1552	-6.3335	10.1360	 3.8025	51.2196	99.9789	
   282	-5.3844	 8.4971	 3.1126	-6.4127	 9.5903	 3.1775	-6.2885	10.1201	 3.8316	51.2277	99.9786	
   283	-5.3295	 8.5163	 3.1867	-6.3444	 9.6197	 3.2753	-6.2228	10.1614	 3.9386	51.2141	99.9789	
   284	-5.2886	 8.5561	 3.2674	-6.2891	 9.6538	 3.3647	-6.1525	10.1835	 4.0309	51.3320	99.9789	
   285	-5.2487	 8.5807	 3.3319	-6.2277	 9.6790	 3.4513	-6.0756	10.2208	 4.1452	51.3939	99.9787	
   286	-5.1009	 8.6133	 3.5123	-6.0598	 9.7068	 3.6470	-5.9382	10.3071	 4.3689	51.2910	99.9786	
   287	-4.9691	 8.6360	 3.6668	-5.9187	 9.7307	 3.8120	-5.8440	10.3442	 4.5002	51.2276	99.9798	
   288	-4.9381	 8.6405	 3.7022	-5.9102	 9.7612	 3.8510	-5.7962	10.3742	 4.5780	51.2141	99.9786	
   289	-4.9062	 8.6601	 3.7538	-5.8451	 9.7382	 3.8931	-5.7948	10.3972	 4.6023	51.1387	99.9793	
   290	-4.9062	 8.6601	 3.7538	-5.8451	 9.7382	 3.8931	-5.7723	10.3892	 4.6169	51.2141	99.9788	
   291	-4.8932	 8.6243	 3.7311	-5.8407	 9.7031	 3.8624	-5.7526	10.3354	 4.5827	51.3111	99.9787	
   292	-4.7912	 8.5411	 3.7498	-5.7659	 9.6231	 3.8572	-5.6682	10.2117	 4.5435	51.4973	99.9788	
   293	-4.8121	 8.4552	 3.6430	-5.7855	 9.5228	 3.7373	-5.6818	10.0816	 4.3999	51.6800	99.9791	
   294	-4.8550	 8.3850	 3.5299	-5.8554	 9.4671	 3.6116	-5.6940	 9.9746	 4.2805	51.8750	99.9783	
   295	-4.8889	 8.3350	 3.4460	-5.8412	 9.3749	 3.5337	-5.7260	 9.9213	 4.1954	51.9010	99.9791	
   296	-4.8709	 8.2585	 3.3875	-5.8705	 9.3317	 3.4611	-5.7400	 9.8794	 4.1394	51.7918	99.9781	
   297	-4.7201	 8.3367	 3.6164	-5.6164	 9.4630	 3.8466	-5.4094	10.1203	 4.7109	51.8120	99.9766	
   298	-4.1781	 8.6557	 4.4775	-5.0060	 9.7634	 4.7573	-4.8317	10.3618	 5.5301	52.2213	99.9801	
   299	-4.1322	 8.6548	 4.5225	-5.0463	 9.6503	 4.6040	-4.9964	10.2030	 5.2066	52.1872	99.9806	
   300	-4.3168	 8.5265	 4.2096	-5.2253	 9.5527	 4.3274	-5.1352	10.0938	 4.9586	52.2171	99.9805	
   301	-4.3767	 8.4313	 4.0546	-5.3538	 9.4105	 4.0567	-5.2538	 9.8425	 4.5887	52.5367	99.9803	
   302	-4.5843	 8.3035	 3.7191	-5.5283	 9.2778	 3.7495	-5.3993	 9.7180	 4.3187	52.6346	99.9800	
   303	-4.5023	 8.2663	 3.7639	-5.4685	 9.2768	 3.8082	-5.3251	 9.7093	 4.3843	52.6118	99.9798	
   304	-4.5833	 8.3187	 3.7353	-5.4522	 9.3246	 3.8724	-5.2524	 9.8654	 4.6130	52.6018	99.9779	
   305	-4.1371	 8.5788	 4.4416	-4.8435	 9.5987	 4.7552	-4.6657	10.2562	 5.5905	52.6641	99.9795	
   306	-3.8437	 8.8470	 5.0031	-4.5698	 9.8304	 5.2606	-4.3829	10.4671	 6.0842	52.7920	99.9785	
   307	-3.5682	 8.9582	 5.3899	-4.1856	 9.9158	 5.7302	-4.0406	10.6159	 6.5753	52.9318	99.9799	
   308	-3.6610	 8.8281	 5.1671	-4.3714	 9.8139	 5.4425	-4.3225	10.5161	 6.1936	52.4462	99.9811	
   309	-3.8996	 8.8126	 4.9128	-4.6296	 9.8314	 5.2019	-4.5066	10.5108	 6.0042	52.4131	99.9799	
   310	-4.0613	 8.6839	 4.6224	-4.7894	 9.7203	 4.9310	-4.6911	10.4059	 5.7148	52.2842	99.9809	
   311	-4.2441	 8.7027	 4.4585	-4.9983	 9.7808	 4.7825	-4.8585	10.4885	 5.6300	52.0260	99.9795	
   312	-4.1295	 8.9339	 4.8043	-4.7531	 9.9823	 5.2292	-4.6161	10.6961	 6.0800	52.3025	99.9817	
   313	-3.8910	 9.1829	 5.2918	-4.3330	10.2158	 5.8828	-4.0588	10.9800	 6.9212	52.9133	99.9802	
   314	-3.3138	 9.2171	 5.9032	-3.8724	10.2474	 6.3750	-3.7488	10.9760	 7.2272	52.7237	99.9825	
   315	-3.3604	 8.8526	 5.4921	-4.1446	 9.8276	 5.6830	-4.1199	10.4445	 6.3246	52.6425	99.9820	
   316	-3.8993	 8.4624	 4.5630	-4.7322	 9.4656	 4.7334	-4.8118	10.1202	 5.3084	52.0419	99.9835	
   317	-4.2947	 8.3941	 4.0993	-5.0993	 9.4412	 4.3419	-5.0100	10.0730	 5.0629	52.2546	99.9810	
   318	-4.2977	 8.3485	 4.0508	-5.1103	 9.3713	 4.2610	-5.0296	 9.9392	 4.9096	52.4857	99.9821	
   319	-4.4983	 8.2104	 3.7120	-5.3515	 9.2354	 3.8839	-5.2453	 9.7926	 4.5472	52.4453	99.9809	
   320	-4.6280	 8.1014	 3.4732	-5.4853	 9.1151	 3.6299	-5.4034	 9.6491	 4.2456	52.4684	99.9818	
   321	-4.7897	 7.9726	 3.1828	-5.6536	 8.9736	 3.3200	-5.5397	 9.4861	 3.9464	52.6118	99.9811	
   322	-4.8555	 7.9029	 3.0473	-5.6870	 8.8648	 3.1777	-5.5797	 9.3947	 3.8150	52.7400	99.9809	
   323	-4.7826	 7.8456	 3.0629	-5.6192	 8.7805	 3.1613	-5.5230	 9.2867	 3.7637	52.9254	99.9811	
   324	-4.7935	 7.7951	 3.0015	-5.6493	 8.7241	 3.0748	-5.5827	 9.2492	 3.6664	52.8019	99.9809	
   325	-4.8015	 7.7902	 2.9886	-5.6501	 8.7110	 3.0609	-5.5841	 9.2262	 3.6421	52.8663	99.9812	
   326	-4.7626	 7.7995	 3.0369	-5.5965	 8.7189	 3.1224	-5.5536	 9.2565	 3.7029	52.8055	99.9816	
   327	-4.6059	 7.9690	 3.3629	-5.4268	 8.9873	 3.5605	-5.3004	 9.5482	 4.2478	52.6737	99.9808	
   328	-4.2417	 8.2662	 4.0244	-5.0278	 9.3087	 4.2809	-4.9059	 9.8955	 4.9896	52.6264	99.9815	
   329	-3.7466	 8.5710	 4.8243	-4.4349	 9.6487	 5.2138	-4.2748	10.2589	 5.9840	52.8724	99.9825	
   330	-3.2614	 8.7237	 5.4622	-3.9279	 9.7846	 5.8566	-3.8721	10.4567	 6.5845	52.7459	99.9838	
   331	-3.1565	 8.6861	 5.5295	-3.9207	 9.6882	 5.7675	-3.9655	10.2434	 6.2779	52.8542	99.9858	
   332	-3.8272	 8.2731	 4.4458	-4.7763	 9.1863	 4.4101	-4.8174	 9.5534	 4.7360	53.0739	99.9845	
   333	-4.4021	 7.9192	 3.5170	-5.2980	 8.8144	 3.5164	-5.2755	 9.1993	 3.9238	53.2430	99.9835	
   334	-4.5788	 7.7959	 3.2170	-5.4709	 8.7080	 3.2371	-5.4558	 9.1633	 3.7075	52.9666	99.9827	
   335	-4.6167	 7.8017	 3.1849	-5.4969	 8.7172	 3.2203	-5.4702	 9.2094	 3.7392	52.8823	99.9819	
   336	-4.4989	 7.8450	 3.3460	-5.3411	 8.7627	 3.4215	-5.3111	 9.2763	 3.9653	52.9558	99.9822	
   337	-4.3731	 7.8933	 3.5200	-5.2419	 8.8616	 3.6197	-5.2134	 9.3708	 4.1574	52.8041	99.9826	
   338	-4.3083	 7.9478	 3.6394	-5.1719	 8.9173	 3.7454	-5.1298	 9.4234	 4.2936	52.8560	99.9824	
   339	-4.2664	 8.0028	 3.7363	-5.1158	 8.9645	 3.8487	-5.0739	 9.4916	 4.4177	52.8402	99.9821	
   340	-4.2494	 8.0278	 3.7783	-5.0943	 8.9904	 3.8961	-5.0726	 9.5146	 4.4420	52.8027	99.9828	
   341	-4.2574	 8.0229	 3.7654	-5.1211	 8.9865	 3.8654	-5.0964	 9.4996	 4.4031	52.7919	99.9826	
   342	-4.2973	 7.9983	 3.7009	-5.1756	 8.9655	 3.7899	-5.1428	 9.4925	 4.3497	52.7206	99.9819	
   343	-4.2574	 8.0229	 3.7654	-5.0943	 8.9904	 3.8961	-4.9938	 9.4867	 4.4930	53.0677	99.9816	
   344	-4.1426	 8.0206	 3.8780	-4.9739	 9.0015	 4.0276	-4.8957	 9.4931	 4.5974	53.0748	99.9826	
   345	-4.0886	 8.0246	 3.9359	-4.9081	 8.9916	 4.0836	-4.8704	 9.5311	 4.6607	52.9434	99.9827	
   346	-4.0267	 8.0335	 4.0067	-4.8605	 9.0083	 4.1478	-4.7963	 9.5225	 4.7262	53.0516	99.9823	
   347	-3.9878	 8.0429	 4.0550	-4.8007	 9.0073	 4.2066	-4.7710	 9.5605	 4.7895	52.9576	99.9826	
   348	-3.9568	 8.0473	 4.0904	-4.7869	 9.0158	 4.2289	-4.7485	 9.5525	 4.8040	52.9878	99.9825	
   349	-3.9428	 8.0268	 4.0839	-4.7617	 8.9935	 4.2318	-4.7485	 9.5525	 4.8040	52.9204	99.9828	
   350	-3.9039	 8.0361	 4.1322	-4.7141	 9.0102	 4.2961	-4.6167	 9.5470	 4.9303	53.1945	99.9814	
   351	-3.7590	 8.0231	 4.2640	-4.5365	 8.9810	 4.4445	-4.4465	 9.5103	 5.0638	53.4132	99.9821	
   352	-3.6851	 7.9810	 4.2958	-4.4922	 8.9452	 4.4530	-4.4240	 9.5024	 5.0784	53.2721	99.9815	
   353	-3.6861	 7.9658	 4.2796	-4.4930	 8.9321	 4.4391	-4.4029	 9.4715	 5.0686	53.3762	99.9814	
   354	-3.6571	 7.9399	 4.2827	-4.4618	 8.9010	 4.4392	-4.3646	 9.4403	 5.0758	53.4468	99.9811	
   355	-3.6291	 7.8987	 4.2695	-4.4053	 8.8475	 4.4422	-4.3223	 9.3785	 5.0562	53.5810	99.9821	
   356	-3.6161	 7.8629	 4.2467	-4.4451	 8.8482	 4.4031	-4.3237	 9.3555	 5.0318	53.5441	99.9811	
   357	-3.5472	 7.8615	 4.3143	-4.3012	 8.8107	 4.5095	-4.1972	 9.3577	 5.1606	53.7083	99.9816	
   358	-3.3584	 7.8172	 4.4587	-4.1061	 8.7418	 4.6357	-4.0059	 9.2902	 5.2843	53.9191	99.9813	
   359	-3.2864	 7.7447	 4.4582	-4.0366	 8.6837	 4.6471	-3.9637	 9.2283	 5.2647	53.9126	99.9823	
   360	-3.2673	 7.6834	 4.4159	-4.0147	 8.6090	 4.5943	-3.9070	 9.1204	 5.2134	54.1807	99.9819	
   361	-3.2253	 7.6216	 4.3962	-3.9660	 8.5382	 4.5722	-3.8687	 9.0892	 5.2206	54.1535	99.9813	
   362	-3.1903	 7.5702	 4.3798	-3.9355	 8.4939	 4.5584	-3.8106	 9.0042	 5.1936	54.3545	99.9815	
   363	-3.1394	 7.5286	 4.3891	-3.8843	 8.4624	 4.5781	-3.7431	 8.9804	 5.2373	54.4005	99.9810	
   364	-2.9735	 7.4846	 4.5110	-3.6754	 8.4020	 4.7266	-3.5114	 8.9161	 5.4047	54.7321	99.9811	
   365	-2.8476	 7.4161	 4.5684	-3.5547	 8.3124	 4.7577	-3.3971	 8.8112	 5.4141	54.9265	99.9810	
   366	-2.8146	 7.3343	 4.5196	-3.4893	 8.1888	 4.6995	-3.3569	 8.7149	 5.3580	55.0572	99.9810	
   367	-2.7665	 7.2470	 4.4804	-3.4414	 8.1049	 4.6635	-3.3003	 8.6070	 5.3067	55.2215	99.9814	
   368	-2.7175	 7.1750	 4.4574	-3.3866	 8.0252	 4.6386	-3.2422	 8.5219	 5.2797	55.3553	99.9814	
   369	-2.6905	 7.1186	 4.4280	-3.3638	 7.9635	 4.5997	-3.2053	 8.4678	 5.2626	55.4251	99.9806	
   370	-2.5786	 7.0707	 4.4920	-3.2077	 7.9084	 4.7006	-3.0239	 8.4272	 5.4033	55.6563	99.9803	
   371	-2.3918	 6.9959	 4.6041	-3.0135	 7.8263	 4.8129	-2.8631	 8.3294	 5.4662	55.8204	99.9816	
   372	-2.3348	 6.9288	 4.5939	-2.9525	 7.7378	 4.7853	-2.7826	 8.2364	 5.4538	56.0233	99.9808	
   373	-2.2938	 6.8519	 4.5580	-2.9054	 7.6407	 4.7353	-2.7087	 8.1282	 5.4195	56.2595	99.9800	
   374	-2.2448	 6.7798	 4.5350	-2.8628	 7.5788	 4.7160	-2.6784	 8.0589	 5.3805	56.2877	99.9806	
   375	-2.2107	 6.7132	 4.5023	-2.8149	 7.4948	 4.6800	-2.6045	 7.9507	 5.3462	56.5575	99.9804	
   376	-2.1917	 6.6519	 4.4601	-2.7730	 7.4197	 4.6467	-2.5451	 7.8886	 5.3436	56.7009	99.9798	
   377	-2.0438	 6.5677	 4.5238	-2.5995	 7.3249	 4.7254	-2.3843	 7.7908	 5.4064	56.9084	99.9806	
   378	-1.9528	 6.4340	 4.4811	-2.5280	 7.1924	 4.6644	-2.3093	 7.6060	 5.2966	57.1612	99.9813	
   379	-1.9546	 6.2868	 4.3321	-2.5647	 7.0312	 4.4665	-2.3324	 7.4148	 5.0824	57.3411	99.9806	
   380	-2.0723	 6.1268	 4.0543	-2.6973	 6.8234	 4.1261	-2.5045	 7.2293	 4.7248	57.3401	99.9799	
   381	-2.2110	 5.9976	 3.7864	-2.8189	 6.6854	 3.8665	-2.5778	 7.0617	 4.4839	57.6048	99.9795	
   382	-2.2419	 5.8764	 3.6344	-2.8922	 6.5773	 3.6851	-2.6305	 6.9513	 4.3208	57.5936	99.9783	
   383	-2.2308	 5.8102	 3.5792	-2.8166	 6.5103	 3.6938	-2.5134	 6.8923	 4.3790	57.8557	99.9783	
   384	-2.0430	 5.7506	 3.7075	-2.6207	 6.4545	 3.8338	-2.3221	 6.8248	 4.5026	58.0323	99.9790	
   385	-1.8762	 5.7219	 3.8456	-2.4378	 6.4033	 3.9655	-2.1467	 6.7804	 4.6337	58.2085	99.9789	
   386	-1.8161	 5.5836	 3.7674	-2.4484	 6.2328	 3.7844	-2.2214	 6.5898	 4.3684	58.1988	99.9789	
   387	-1.8550	 5.4575	 3.6025	-2.4733	 6.1545	 3.6812	-2.1781	 6.4514	 4.2733	58.4788	99.9797	
   388	-2.6278	 5.2446	 2.6167	-3.3388	 6.0247	 2.6859	-3.1174	 6.5018	 3.3844	57.0715	99.9770	
   389	-3.0438	 5.8061	 2.7622	-3.3454	 6.6637	 3.3183	-2.7590	 7.2019	 4.4430	57.7361	99.9761	
   390	-2.0854	 6.1625	 4.0771	-2.3574	 6.9445	 4.5871	-1.8832	 7.4320	 5.5488	58.1955	99.9796	
   391	-1.7468	 6.1812	 4.4342	-2.0915	 6.9444	 4.8529	-1.6547	 7.4099	 5.7552	58.2492	99.9790	
   392	-1.0948	 6.3052	 5.2103	-1.3020	 7.0273	 5.7253	-0.8554	 7.5145	 6.6590	58.8771	99.9803	
   393	-0.4046	 6.3066	 5.9019	-0.5772	 7.0326	 6.4554	-0.1517	 7.5590	 7.4073	59.1490	99.9805	
   394	-0.0122	 6.3292	 6.3170	-0.1609	 7.0999	 6.9391	 0.2718	 7.6263	 7.8981	59.2785	99.9816	
   395	-0.1429	 6.2049	 6.0620	-0.4594	 6.7899	 6.3305	-0.2980	 7.1358	 6.8377	59.4252	99.9859	
   396	-1.3635	 5.3513	 3.9877	-1.9153	 5.8300	 3.9147	-1.7335	 6.0128	 4.2794	59.6942	99.9827	
   397	-2.1689	 4.7533	 2.5843	-2.6298	 5.3520	 2.7222	-2.2127	 5.6896	 3.4769	59.5670	99.9768	
   398	-2.1548	 4.6160	 2.4611	-2.5270	 5.1884	 2.6614	-2.1152	 5.4968	 3.3817	60.0101	99.9792	
   399	-2.1636	 4.4791	 2.3154	-2.5491	 5.0488	 2.4997	-2.1182	 5.3513	 3.2331	60.1403	99.9785	
   400	-2.1405	 4.3619	 2.2213	-2.5902	 4.9226	 2.3324	-2.1698	 5.1643	 2.9945	60.2851	99.9786	
   401	-2.2054	 4.3074	 2.1019	-2.5918	 4.8963	 2.3045	-2.1445	 5.2023	 3.0578	60.2062	99.9783	
   402	-1.9568	 4.3582	 2.4014	-2.4170	 4.9284	 2.5114	-2.0218	 5.2352	 3.2133	60.0927	99.9776	
   403	-2.0256	 4.2429	 2.2172	-2.6053	 4.7872	 2.1819	-2.2906	 5.0663	 2.7757	59.8720	99.9773	
   404	-2.5945	 3.8634	 1.2689	-3.4031	 4.3587	 0.9556	-3.2963	 4.5889	 1.2927	59.1750	99.9785	
   405	-4.5414	 3.2781	-1.2634	-5.1441	 3.9418	-1.2023	-4.8544	 4.3830	-0.4713	58.2153	99.9763	
   406	-3.7183	 4.1498	 0.4314	-4.0318	 4.8288	 0.7970	-3.4500	 5.2765	 1.8265	59.2547	99.9744	
   407	-1.9883	 4.9374	 2.9491	-2.2333	 5.6341	 3.4008	-1.5584	 6.0565	 4.4981	59.9945	99.9739	
   408	-1.2346	 5.3284	 4.0937	-1.4847	 6.0197	 4.5350	-0.9138	 6.5500	 5.6362	59.6065	99.9734	
   409	-0.3498	 5.3767	 5.0268	-0.5586	 5.9471	 5.3885	-0.0598	 6.3245	 6.2647	60.7552	99.9781	
   410	-0.1756	 4.9875	 4.8118	-0.2255	 5.5346	 5.3091	 0.3479	 5.9400	 6.2879	61.5698	99.9782	
   411	-0.0486	 4.8175	 4.7688	-0.2622	 5.3733	 5.1111	 0.1188	 5.7630	 5.8818	61.0622	99.9806	
   412	-0.1855	 4.8354	 4.6499	-0.4845	 5.5389	 5.0545	 0.1343	 5.8279	 5.9621	61.1500	99.9775	
   413	 0.0839	 5.0889	 5.1727	-0.1113	 5.5545	 5.4432	 0.1198	 5.8740	 5.9939	61.1379	99.9849	
   414	 0.1048	 5.1748	 5.2795	-0.0970	 5.6768	 5.5798	 0.2512	 5.9566	 6.2078	61.3212	99.9834	
   415	 0.1697	 5.2293	 5.3989	-0.0246	 5.7718	 5.7473	 0.4410	 6.0538	 6.4947	61.4440	99.9811	
   416	 0.5321	 5.3794	 5.9114	 0.4044	 5.9352	 6.3396	 0.9270	 6.2045	 7.1315	61.7685	99.9814	
   417	 0.7807	 5.4303	 6.2109	 0.6675	 5.9964	 6.6639	 1.1353	 6.3244	 7.4598	61.5828	99.9819	
   418	 0.9544	 5.5080	 6.4623	 0.9346	 6.1232	 7.0578	 1.4558	 6.4927	 7.9485	61.6482	99.9824	
   419	 0.9454	 5.4879	 6.4332	 0.9916	 6.1835	 7.1750	 1.5893	 6.6097	 8.1990	61.5484	99.9819	
   420	 0.9934	 5.5174	 6.5106	 1.1395	 6.2116	 7.3511	 1.7225	 6.6271	 8.3496	61.7515	99.9845	
   421	 0.9953	 5.5478	 6.5430	 1.1135	 6.2208	 7.3343	 1.6855	 6.6812	 8.3668	61.5899	99.9828	
   422	 0.9973	 5.5782	 6.5754	 1.1005	 6.2254	 7.3259	 1.6518	 6.6931	 8.3449	61.5527	99.9824	
   423	 0.8974	 5.5751	 6.4724	 0.9733	 6.2100	 7.1833	 1.5330	 6.6296	 8.1626	61.6381	99.9825	
   424	 0.7716	 5.5269	 6.2984	 0.8297	 6.1468	 6.9766	 1.3447	 6.5554	 7.9000	61.5591	99.9833	
   425	 0.7706	 5.5117	 6.2822	 0.8549	 6.1245	 6.9795	 1.3995	 6.5125	 7.9121	61.7561	99.9835	
   426	 0.8466	 5.5000	 6.3465	 0.9598	 6.1009	 7.0607	 1.5022	 6.4997	 8.0019	61.8575	99.9836	
   427	 0.8725	 5.5452	 6.4175	 0.9830	 6.1530	 7.1360	 1.5394	 6.5452	 8.0846	61.8604	99.9835	
   428	 0.9054	 5.5800	 6.4853	 1.0261	 6.2048	 7.2309	 1.5766	 6.5907	 8.1673	61.8314	99.9843	
   429	 0.8864	 5.6413	 6.5276	 1.0615	 6.2392	 7.3007	 1.5861	 6.6518	 8.2379	61.8353	99.9849	
   430	 0.9123	 5.6865	 6.5987	 1.0396	 6.3139	 7.3535	 1.5829	 6.6940	 8.2769	61.7693	99.9847	
   431	 0.8783	 5.7531	 6.6313	 1.0091	 6.3582	 7.3673	 1.5459	 6.7481	 8.2941	61.7363	99.9844	
   432	 0.8033	 5.7800	 6.5832	 0.9311	 6.3858	 7.3169	 1.4447	 6.7839	 8.2286	61.6039	99.9847	
   433	 0.7124	 5.7970	 6.5094	 0.8323	 6.4006	 7.2329	 1.3368	 6.8044	 8.1412	61.5034	99.9847	
   434	 0.5606	 5.8204	 6.3809	 0.6539	 6.4167	 7.0706	 1.1810	 6.7950	 7.9760	61.4958	99.9841	
   435	 0.4687	 5.8222	 6.2908	 0.6201	 6.4085	 7.0286	 1.1599	 6.8259	 7.9858	61.5045	99.9839	
   436	 0.4927	 5.8370	 6.3295	 0.6539	 6.4167	 7.0706	 1.2274	 6.8020	 8.0295	61.7001	99.9838	
   437	 0.4777	 5.8423	 6.3199	 0.6018	 6.4351	 7.0369	 1.1599	 6.8259	 7.9858	61.5344	99.9836	
   438	 0.3878	 5.8746	 6.2623	 0.5238	 6.4627	 6.9865	 1.0699	 6.8577	 7.9276	61.4681	99.9840	
   439	 0.3508	 5.8956	 6.2463	 0.4588	 6.4856	 6.9444	 1.0137	 6.8775	 7.8912	61.4005	99.9833	
   440	 0.2449	 5.9180	 6.1629	 0.3453	 6.4788	 6.8241	 0.8593	 6.8910	 7.7504	61.2616	99.9832	
   441	 0.1371	 5.9100	 6.0470	 0.2327	 6.4851	 6.7178	 0.7891	 6.8690	 7.6580	61.3260	99.9830	
   442	 0.0372	 5.9070	 5.9441	 0.1201	 6.4914	 6.6115	 0.6811	 6.8895	 7.5706	61.1948	99.9825	
   443	-0.0457	 5.9289	 5.8831	 0.0673	 6.4966	 6.5639	 0.6070	 6.8981	 7.5051	61.1925	99.9833	
   444	-0.1207	 5.9558	 5.8350	-0.0368	 6.5334	 6.4966	 0.5507	 6.9180	 7.4687	61.1925	99.9821	
   445	-0.1886	 5.9724	 5.7837	-0.1010	 6.5695	 6.4685	 0.5011	 6.9531	 7.4542	61.1304	99.9822	
   446	-0.1387	 6.0323	 5.8935	 0.0348	 6.6153	 6.6501	 0.6729	 7.0390	 7.7119	61.2811	99.9817	
   447	 0.0101	 6.0801	 6.0900	 0.2166	 6.6516	 6.8682	 0.8870	 7.0630	 7.9500	61.5175	99.9816	
   448	 0.0210	 6.1306	 6.1515	 0.2077	 6.7218	 6.9294	 0.8852	 7.1282	 8.0134	61.4226	99.9815	
   449	-0.0759	 6.1731	 6.0971	 0.1296	 6.7494	 6.8790	 0.7952	 7.1600	 7.9551	61.3885	99.9819	
   450	-0.1888	 6.2059	 6.0169	 0.0386	 6.7815	 6.8201	 0.6840	 7.2227	 7.9067	61.2285	99.9821	
   451	-0.2647	 6.2175	 5.9527	-0.0342	 6.7871	 6.7529	 0.6310	 7.2004	 7.8314	61.3222	99.9823	
   452	-0.3266	 6.2086	 5.8819	-0.1208	 6.7842	 6.6634	 0.5157	 7.1942	 7.7099	61.1849	99.9827	
   453	-0.4435	 6.1805	 5.7369	-0.2298	 6.7423	 6.5125	 0.4029	 7.1344	 7.5373	61.2421	99.9832	
   454	-0.5693	 6.1322	 5.5629	-0.3656	 6.6965	 6.3309	 0.2602	 7.0558	 7.3160	61.2639	99.9840	
   455	-0.6980	 6.0384	 5.3403	-0.5315	 6.5943	 6.0628	 0.0909	 6.9162	 7.0072	61.3123	99.9841	
   456	-0.8147	 5.8935	 5.0787	-0.6730	 6.4566	 5.7836	-0.0235	 6.7339	 6.7103	61.4640	99.9840	
   457	-0.8604	 5.6610	 4.8005	-0.7390	 6.2521	 5.5131	-0.0990	 6.5318	 6.4329	61.4562	99.9843	
   458	-0.9190	 5.3475	 4.4283	-0.8526	 5.8165	 4.9638	-0.3737	 5.8842	 5.5105	62.1804	99.9887	
   459	-1.1782	 4.7792	 3.6009	-1.4229	 5.2004	 3.7775	-1.0200	 5.2682	 4.2482	61.8127	99.9845	
   460	-1.2530	 4.6893	 3.4362	-1.6088	 5.0985	 3.4898	-1.2376	 5.1868	 3.9492	61.5208	99.9826	
   461	-1.2390	 4.6687	 3.4296	-1.6779	 5.0559	 3.3780	-1.3756	 5.0890	 3.7133	61.4590	99.9834	
   462	-1.4616	 4.5463	 3.0846	-1.9288	 4.9770	 3.0483	-1.6308	 5.0501	 3.4193	61.1111	99.9829	
   463	-1.3768	 4.6715	 3.2946	-1.7787	 5.1451	 3.3665	-1.4626	 5.2663	 3.8037	60.9697	99.9834	
   464	-1.1452	 4.8140	 3.6687	-1.5225	 5.2021	 3.6796	-1.2798	 5.2486	 3.9688	61.3654	99.9857	
   465	-1.9483	 3.8962	 1.9478	-2.5020	 4.2079	 1.7059	-2.4910	 4.2224	 1.7313	61.0697	99.9875	
   466	-3.2979	 3.1822	-0.1158	-3.9653	 3.6594	-0.3059	-3.9587	 3.8965	-0.0622	59.4002	99.9841	
   467	-3.4501	 3.5557	 0.1055	-3.6988	 4.2018	 0.5031	-3.2446	 4.5883	 1.3437	59.9674	99.9807	
   468	-2.0665	 4.2031	 2.1365	-2.1602	 4.7840	 2.6239	-1.6889	 5.1351	 3.4463	60.9030	99.9828	
   469	-0.8455	 4.7065	 3.8609	-0.8366	 5.4355	 4.5989	-0.1512	 5.8584	 5.7072	61.1918	99.9799	
   470	-0.3724	 5.0270	 4.6544	-0.2035	 5.6742	 5.4707	 0.4287	 5.9467	 6.3754	62.0826	99.9861	
   471	-0.5336	 4.4313	 3.8976	-0.8552	 4.8189	 3.9637	-0.7839	 4.8975	 4.1136	61.6360	99.9896	
   472	-2.0160	 3.6793	 1.6632	-2.3365	 4.1963	 1.8598	-1.9685	 4.4071	 2.4387	61.2258	99.9827	
   473	-2.3983	 3.4586	 1.0602	-2.7184	 3.9359	 1.2175	-2.3560	 4.1747	 1.8186	61.2046	99.9816	
   474	-2.6079	 3.3003	 0.6924	-2.9603	 3.7868	 0.8265	-2.6016	 4.0093	 1.4077	61.1528	99.9816	
   475	-2.7726	 3.2427	 0.4700	-3.1124	 3.6931	 0.5807	-2.7562	 3.9232	 1.1670	61.2125	99.9811	
   476	-2.8414	 3.1274	 0.2859	-3.2194	 3.5768	 0.3574	-2.8275	 3.7900	 0.9626	61.3082	99.9797	
   477	-3.0030	 2.8819	-0.1212	-3.4590	 3.2527	-0.2064	-3.1783	 3.4039	 0.2255	61.4287	99.9811	
   478	-4.2894	 1.9585	-2.3310	-5.1340	 2.2964	-2.8376	-5.2900	 2.5961	-2.6939	59.2143	99.9805	
   479	-6.4063	 1.4730	-4.9334	-6.8444	 2.0497	-4.7947	-6.6317	 2.5482	-4.0834	58.7484	99.9794	
   480	-4.9570	 2.4236	-2.5336	-5.0376	 3.2006	-1.8370	-4.3583	 3.8442	-0.5141	59.6464	99.9737	
   481	-2.0162	 3.9128	 1.8964	-2.1070	 4.6781	 2.5712	-1.4790	 5.0903	 3.6113	60.7484	99.9806	
   482	-1.1956	 4.2720	 3.0762	-1.5272	 4.8083	 3.2812	-1.1974	 5.0905	 3.8931	60.8675	99.9820	
   483	-0.5253	 4.0860	 3.5606	-0.5691	 4.7178	 4.1487	 0.0965	 5.1083	 5.2048	62.0156	99.9780	
   484	 0.4033	 4.3365	 4.7396	 0.0750	 5.0263	 5.1013	 0.6744	 4.9744	 5.6489	62.7370	99.9829	
   485	-0.0171	 4.2383	 4.2211	-0.3040	 4.7045	 4.4005	 0.0555	 4.9058	 4.9613	62.1081	99.9824	
   486	 0.2125	 4.3504	 4.5628	-0.0792	 4.7926	 4.7135	 0.2404	 4.9226	 5.1630	62.3382	99.9844	
   487	 0.0847	 4.2718	 4.3564	-0.1829	 4.7287	 4.5459	 0.1476	 4.9085	 5.0560	62.2083	99.9838	
   488	-0.0081	 4.2584	 4.2502	-0.2609	 4.7563	 4.4954	 0.1159	 4.9548	 5.0707	62.1168	99.9833	
   489	-0.2845	 4.0152	 3.7306	-0.6875	 4.4179	 3.7303	-0.4183	 4.3872	 3.9689	62.5921	99.9858	
   490	-1.7257	 2.9528	 1.2271	-2.5253	 3.1975	 0.6722	-2.6482	 3.2400	 0.5919	61.2020	99.9844	
   491	-3.5223	 2.9126	-0.6099	-3.8808	 3.5223	-0.3585	-3.3225	 3.9650	 0.6424	60.3201	99.9721	
   492	-1.8055	 3.8528	 2.0472	-1.8891	 4.5475	 2.6584	-1.3112	 4.9196	 3.6084	61.1342	99.9817	
   493	-1.3013	 4.0609	 2.7595	-1.6521	 4.6179	 2.9658	-1.3730	 4.8476	 3.4746	60.9112	99.9845	
   494	-0.8178	 3.9498	 3.1318	-0.9863	 4.4229	 3.4366	-0.5124	 4.6373	 4.1250	62.3084	99.9819	
   495	 0.0789	 4.0638	 4.1426	 0.0208	 4.6903	 4.7111	 0.6726	 5.0396	 5.7122	62.4168	99.9788	
   496	 0.5072	 4.2836	 4.7907	 0.5237	 4.7606	 5.2843	 0.8095	 4.9267	 5.7362	62.8739	99.9901	
   497	 0.0708	 4.1756	 4.2464	-0.0959	 4.6310	 4.5351	 0.2711	 4.7651	 5.0362	62.6839	99.9857	
   498	-0.0479	 4.1171	 4.0690	-0.2903	 4.4987	 4.2084	-0.0142	 4.6080	 4.5937	62.6242	99.9859	
   499	-0.3305	 4.0161	 3.6856	-0.6363	 4.3864	 3.7500	-0.3161	 4.4625	 4.1464	62.6445	99.9841	
   500	-0.6929	 3.8660	 3.1731	-1.0307	 4.2443	 3.2135	-0.7160	 4.3106	 3.5946	62.4937	99.9841	
   501	-0.8726	 3.8138	 2.9411	-1.2108	 4.2342	 3.0234	-0.8386	 4.2777	 3.4390	62.4955	99.9837	
   502	-1.0852	 3.7267	 2.6414	-1.3828	 4.1408	 2.7580	-1.0144	 4.2225	 3.2081	62.4268	99.9839	
   503	-1.1550	 3.5961	 2.4410	-1.4577	 4.0064	 2.5487	-1.1359	 4.1130	 2.9771	62.3167	99.9844	
   504	-1.3396	 3.3511	 2.0115	-1.6733	 3.7475	 2.0743	-1.3652	 3.8363	 2.4711	62.4023	99.9843	
   505	-1.5909	 3.0212	 1.4302	-2.0402	 3.4081	 1.3679	-1.7305	 3.4963	 1.7658	62.3076	99.9818	
   506	-2.2566	 2.5676	 0.3108	-2.8304	 2.7826	-0.0478	-2.7191	 2.7315	 0.0124	62.5720	99.9846	
   507	-4.2122	 1.6119	-2.6004	-4.9736	 1.9918	-2.9818	-5.0529	 2.3364	-2.7165	59.6151	99.9797	
   508	-4.1239	 2.2648	-1.8592	-4.5650	 2.7857	-1.7794	-4.2893	 3.1807	-1.1086	60.0862	99.9785	
   509	-3.2127	 2.8404	-0.3723	-3.6854	 3.3527	-0.3327	-3.3332	 3.6931	 0.3599	60.4575	99.9765	
   510	-2.7167	 3.2771	 0.5603	-3.0807	 3.7757	 0.6950	-2.6041	 4.0629	 1.4588	61.1035	99.9765	
   511	-1.0183	 3.6949	 2.6765	-1.2019	 4.1640	 2.9621	-0.7002	 4.2874	 3.5872	62.6955	99.9828	
   512	-0.8154	 3.5132	 2.6977	-1.2293	 3.8319	 2.6026	-0.9681	 3.9423	 2.9742	62.4698	99.9819	
   513	-0.8065	 3.6501	 2.8435	-1.1443	 4.0230	 2.8788	-0.8371	 4.1130	 3.2758	62.5216	99.9837	
   514	-0.7367	 3.7806	 3.0438	-1.0608	 4.1879	 3.1271	-0.6868	 4.3179	 3.6310	62.4038	99.9820	
   515	-0.5012	 3.9840	 3.4827	-0.7404	 4.4231	 3.6828	-0.3436	 4.5777	 4.2341	62.4288	99.9831	
   516	-0.2845	 4.0152	 3.7306	-0.6339	 4.4257	 3.7918	-0.3239	 4.5238	 4.2000	62.3745	99.9837	
   517	-0.5600	 3.7873	 3.2272	-0.9922	 4.1167	 3.1245	-0.7820	 4.1697	 3.3877	62.4023	99.9843	
   518	-0.8135	 3.6604	 2.8467	-1.2776	 4.0165	 2.7389	-1.0459	 4.0812	 3.0353	62.2238	99.9833	
   519	-0.9054	 3.6622	 2.7567	-1.2129	 4.0942	 2.8813	-0.7700	 4.1772	 3.4072	62.6412	99.9820	
   520	-0.7166	 3.6178	 2.9011	-1.0158	 3.9508	 2.9350	-0.6858	 3.9540	 3.2681	63.0988	99.9849	
   521	-1.4639	 2.8512	 1.3872	-2.2972	 3.1236	 0.8264	-2.4394	 3.2718	 0.8324	60.8963	99.9822	
   522	-2.6294	 2.8491	 0.2196	-3.1492	 3.3174	 0.1682	-2.9412	 3.6191	 0.6779	60.6130	99.9797	
   523	-2.3598	 2.8691	 0.5092	-2.8692	 3.2252	 0.3560	-2.7000	 3.4284	 0.7284	61.3266	99.9812	
   524	-1.9275	 3.0330	 1.1054	-2.2022	 3.6865	 1.4843	-1.5937	 3.8584	 2.2647	62.0391	99.9803	
   525	-0.6008	 3.6307	 3.0299	-1.1250	 4.2240	 3.0989	-0.7070	 4.4598	 3.7529	61.3974	99.9772	
   526	-0.3742	 3.8140	 3.4397	-0.8888	 4.2812	 3.3924	-0.6068	 4.5007	 3.8939	61.5478	99.9792	
   527	-0.1148	 4.0321	 3.9173	-0.3659	 4.5656	 4.1997	 0.1069	 4.8056	 4.9124	62.1929	99.9805	
   528	 0.2815	 4.2323	 4.5137	 0.1079	 4.8070	 4.9148	 0.6269	 5.0440	 5.6709	62.3882	99.9816	
   529	 0.5540	 4.4146	 4.9685	 0.4380	 4.9852	 5.4232	 0.9302	 5.2125	 6.1426	62.4988	99.9835	
   530	 0.7766	 4.5371	 5.3136	 0.5970	 5.0831	 5.6802	 1.0444	 5.2953	 6.3396	62.4271	99.9833	
   531	 0.8085	 4.5567	 5.3652	 0.6637	 5.0864	 5.7501	 1.0848	 5.2986	 6.3833	62.4937	99.9843	
   532	 0.8015	 4.5670	 5.3685	 0.6593	 5.1214	 5.7807	 1.0373	 5.3681	 6.4054	62.2309	99.9851	
   533	 0.8983	 4.6412	 5.5395	 0.7646	 5.2116	 5.9762	 1.1606	 5.4125	 6.5731	62.3667	99.9859	
   534	 0.9562	 4.7061	 5.6622	 0.7878	 5.2637	 6.0515	 1.1694	 5.4622	 6.6315	62.2975	99.9854	
   535	 0.9442	 4.7571	 5.7011	 0.8102	 5.3027	 6.1129	 1.1887	 5.4964	 6.6851	62.3658	99.9861	
   536	 1.0610	 4.7852	 5.8461	 0.9391	 5.3442	 6.2833	 1.3299	 5.5520	 6.8820	62.3737	99.9859	
   537	 1.1249	 4.8245	 5.9493	 1.0403	 5.3688	 6.4091	 1.3918	 5.6240	 7.0158	62.2800	99.9864	
   538	 1.1249	 4.8245	 5.9493	 1.0558	 5.4035	 6.4593	 1.4501	 5.6386	 7.0887	62.3524	99.9865	
   539	 1.0809	 4.8558	 5.9366	 1.0253	 5.4478	 6.4731	 1.4198	 5.7079	 7.1277	62.2256	99.9865	
   540	 1.0519	 4.8818	 5.9336	 1.0001	 5.4701	 6.4702	 1.3636	 5.7278	 7.0913	62.1567	99.9873	
   541	 1.0299	 4.8974	 5.9273	 0.9749	 5.4924	 6.4673	 1.3140	 5.7629	 7.0769	62.0243	99.9876	
   542	 0.9560	 4.9395	 5.8954	 0.8969	 5.5200	 6.4169	 1.2915	 5.7709	 7.0623	62.1567	99.9865	
   543	 0.9100	 4.9404	 5.8504	 0.8189	 5.5476	 6.3664	 1.1677	 5.8146	 6.9823	61.8562	99.9871	
   544	 0.8361	 4.9825	 5.8185	 0.7676	 5.5791	 6.3467	 1.1452	 5.8225	 6.9677	61.9888	99.9871	
   545	 0.9000	 5.0219	 5.9217	 0.8506	 5.6302	 6.4808	 1.2422	 5.9055	 7.1477	61.9334	99.9867	
   546	 0.9549	 5.0411	 5.9958	 0.9120	 5.6554	 6.5674	 1.3163	 5.8969	 7.2133	62.0656	99.9872	
   547	 0.9489	 5.0666	 6.0153	 0.8876	 5.6908	 6.5784	 1.3005	 5.9201	 7.2206	62.0320	99.9870	
   548	 0.9199	 5.0925	 6.0123	 0.8624	 5.7131	 6.5755	 1.2509	 5.9552	 7.2061	61.9324	99.9874	
   549	 0.8899	 5.1033	 5.9931	 0.8356	 5.7092	 6.5448	 1.1947	 5.9751	 7.1698	61.8317	99.9875	
   550	 0.8370	 5.1145	 5.9513	 0.7836	 5.7276	 6.5111	 1.1384	 5.9950	 7.1334	61.7654	99.9877	
   551	 0.7690	 5.1310	 5.9000	 0.7055	 5.7551	 6.4607	 1.1046	 6.0069	 7.1115	61.8001	99.9870	
   552	 0.7171	 5.1575	 5.8744	 0.6405	 5.7781	 6.4186	 1.0146	 6.0387	 7.0533	61.6644	99.9871	
   553	 0.6491	 5.1740	 5.8231	 0.5755	 5.8011	 6.3766	 0.9584	 6.0586	 7.0170	61.6318	99.9871	
   554	 0.5962	 5.1853	 5.7813	 0.5226	 5.8063	 6.3290	 0.9021	 6.0785	 6.9806	61.5655	99.9869	
   555	 0.6301	 5.2353	 5.8653	 0.6125	 5.8617	 6.4742	 1.0487	 6.1264	 7.1750	61.7768	99.9868	
   556	 0.7779	 5.2679	 6.0457	 0.7735	 5.8852	 6.6587	 1.1826	 6.1553	 7.3379	61.8123	99.9874	
   557	 0.7938	 5.2777	 6.0715	 0.7857	 5.8675	 6.6532	 1.1812	 6.1323	 7.3135	61.8733	99.9873	
   558	 0.7779	 5.2679	 6.0457	 0.7467	 5.8813	 6.6280	 1.1474	 6.1442	 7.2917	61.7747	99.9872	
   559	 0.7409	 5.2889	 6.0297	 0.7345	 5.8990	 6.6335	 1.1137	 6.1562	 7.2698	61.7737	99.9881	
   560	 0.7339	 5.2992	 6.0330	 0.6955	 5.9128	 6.6083	 1.0912	 6.1641	 7.2553	61.7391	99.9873	
   561	 0.6889	 5.3154	 6.0042	 0.6564	 5.9266	 6.5830	 1.0237	 6.1880	 7.2116	61.6382	99.9879	
   562	 0.6280	 5.3217	 5.9496	 0.5776	 5.9411	 6.5186	 1.0012	 6.1959	 7.1971	61.6740	99.9866	
   563	 0.5831	 5.3378	 5.9207	 0.5568	 5.9283	 6.4851	 0.9449	 6.2158	 7.1607	61.6067	99.9868	
   564	 0.5461	 5.3588	 5.9048	 0.4918	 5.9513	 6.4431	 0.8707	 6.2244	 7.0951	61.5351	99.9868	
   565	 0.4931	 5.3700	 5.8631	 0.4658	 5.9604	 6.4263	 0.8549	 6.2476	 7.1025	61.5394	99.9868	
   566	 0.5640	 5.3991	 5.9630	 0.5618	 6.0070	 6.5687	 1.0014	 6.2955	 7.2969	61.6510	99.9863	
   567	 0.6958	 5.4218	 6.1175	 0.7028	 6.0308	 6.7337	 1.1174	 6.3132	 7.4306	61.6856	99.9872	
   568	 0.6978	 5.4522	 6.1499	 0.6976	 6.0528	 6.7504	 1.1016	 6.3363	 7.4379	61.6510	99.9871	
   569	 0.7068	 5.4723	 6.1790	 0.7244	 6.0567	 6.7811	 1.1480	 6.3434	 7.4914	61.7525	99.9867	
   570	 0.7227	 5.4822	 6.2048	 0.7330	 6.0872	 6.8202	 1.1321	 6.3666	 7.4987	61.6531	99.9875	
   571	 0.7087	 5.5028	 6.2114	 0.7330	 6.0872	 6.8202	 1.1321	 6.3666	 7.4987	61.7180	99.9875	
   572	 0.6867	 5.5184	 6.2051	 0.7078	 6.1095	 6.8173	 1.1177	 6.4127	 7.5304	61.6239	99.9869	
   573	 0.6418	 5.5345	 6.1762	 0.6696	 6.1364	 6.8060	 1.0952	 6.4207	 7.5159	61.6573	99.9872	
   574	 0.6098	 5.5149	 6.1246	 0.6029	 6.1332	 6.7360	 1.0421	 6.3984	 7.4405	61.6207	99.9868	
   575	 0.5569	 5.5261	 6.0829	 0.5553	 6.1165	 6.6718	 0.9521	 6.4302	 7.3823	61.4540	99.9866	
   576	 0.5040	 5.5373	 6.0412	 0.5033	 6.1348	 6.6381	 0.9184	 6.4421	 7.3605	61.4551	99.9865	
   577	 0.5149	 5.5878	 6.1026	 0.5395	 6.1824	 6.7219	 0.9907	 6.4986	 7.4894	61.5299	99.9859	
   578	 0.6397	 5.6209	 6.2605	 0.6952	 6.2279	 6.9231	 1.1148	 6.5545	 7.6693	61.5041	99.9871	
   579	 0.6956	 5.6553	 6.3508	 0.7566	 6.2531	 7.0097	 1.1678	 6.5768	 7.7446	61.5375	99.9873	
   580	 0.6976	 5.6857	 6.3832	 0.7270	 6.3105	 7.0374	 1.1647	 6.6190	 7.7836	61.4739	99.9868	
   581	 0.6626	 5.7371	 6.3996	 0.7233	 6.3587	 7.0820	 1.1470	 6.7073	 7.8543	61.3503	99.9869	
   582	 0.4718	 5.7511	 6.2228	 0.5664	 6.4007	 6.9671	 0.9512	 6.7941	 7.7452	61.0276	99.9880	
   583	 0.1262	 5.7428	 5.8689	 0.2754	 6.4231	 6.6985	 0.7870	 6.8345	 7.6215	61.0780	99.9863	
   584	-0.0565	 5.7617	 5.7050	 0.1229	 6.4301	 6.5530	 0.6956	 6.8433	 7.5389	61.1802	99.9853	
   585	-0.1554	 5.7738	 5.6183	 0.0355	 6.4140	 6.4496	 0.6246	 6.8098	 7.4344	61.3052	99.9850	
   586	-0.2154	 5.7953	 5.5798	-0.0165	 6.4324	 6.4159	 0.5525	 6.8528	 7.4054	61.1756	99.9851	
   587	-0.2354	 5.8414	 5.6059	-0.0461	 6.4898	 6.4437	 0.5686	 6.9292	 7.4979	61.1196	99.9836	
   588	-0.1485	 5.8802	 5.7316	 0.0681	 6.5097	 6.5778	 0.7004	 6.9237	 7.6242	61.3497	99.9839	
   589	-0.0946	 5.8842	 5.7895	 0.1019	 6.5179	 6.6198	 0.7342	 6.9118	 7.6460	61.3796	99.9840	
   590	-0.1106	 5.8744	 5.7637	 0.0897	 6.5356	 6.6253	 0.7004	 6.9237	 7.6242	61.2823	99.9852	
   591	-0.1126	 5.8440	 5.7313	 0.0941	 6.5005	 6.5947	 0.6653	 6.9127	 7.5780	61.1826	99.9857	
   592	-0.1336	 5.8749	 5.7412	 0.0941	 6.5005	 6.5947	 0.6990	 6.9008	 7.5998	61.3784	99.9850	
   593	-0.0946	 5.8842	 5.7895	 0.0897	 6.5356	 6.6253	 0.6779	 6.9317	 7.6096	61.2135	99.9851	
   594	-0.1406	 5.8851	 5.7445	 0.0637	 6.5448	 6.6085	 0.6217	 6.9515	 7.5732	61.1161	99.9861	
   595	-0.1775	 5.9062	 5.7286	 0.0246	 6.5586	 6.5832	 0.5879	 6.9635	 7.5514	61.1149	99.9859	
   596	-0.1686	 5.9263	 5.7576	-0.0058	 6.6029	 6.5970	 0.5668	 6.9944	 7.5612	61.0161	99.9856	
   597	-0.2135	 5.9424	 5.7288	-0.0266	 6.5901	 6.5635	 0.5172	 7.0295	 7.5467	60.9198	99.9853	
   598	-0.2036	 5.9778	 5.7741	-0.0355	 6.6603	 6.6248	 0.5478	 7.0597	 7.6075	60.9556	99.9854	
   599	-0.1517	 6.0681	 5.9163	 0.0873	 6.7107	 6.7980	 0.6746	 7.1615	 7.8361	61.0355	99.9848	
   600	-0.0689	 6.1629	 6.0938	 0.1736	 6.8142	 6.9878	 0.7709	 7.2331	 8.0039	61.1042	99.9855	
   601	-0.0800	 6.2291	 6.1490	 0.1569	 6.8670	 7.0240	 0.7564	 7.2792	 8.0356	61.1030	99.9853	
   602	-0.1169	 6.2501	 6.1330	 0.1093	 6.8503	 6.9597	 0.7034	 7.2569	 7.9603	61.1599	99.9847	
   603	-0.1230	 6.2756	 6.1525	 0.0789	 6.8946	 6.9735	 0.6822	 7.2878	 7.9701	61.0947	99.9846	
   604	-0.1210	 6.3060	 6.1849	 0.0874	 6.9251	 7.0125	 0.7002	 7.2991	 7.9992	61.1599	99.9849	
   605	-0.1510	 6.3168	 6.1657	 0.0529	 6.9038	 6.9567	 0.5922	 7.3196	 7.9119	60.9568	99.9851	
   606	-0.1739	 6.3172	 6.1432	-0.0174	 6.9487	 6.9313	 0.5571	 7.3086	 7.8657	60.9531	99.9854	
   607	-0.2269	 6.3284	 6.1014	-0.0772	 6.9498	 6.8726	 0.5107	 7.3015	 7.8122	60.9828	99.9849	
   608	-0.2788	 6.3548	 6.0759	-0.1162	 6.9635	 6.8473	 0.4896	 7.3324	 7.8220	60.9865	99.9842	
   609	-0.2089	 6.3687	 6.1596	-0.0471	 7.0061	 6.9590	 0.5215	 7.3857	 7.9072	60.8272	99.9853	
   610	-0.1530	 6.4031	 6.2499	 0.0472	 7.0264	 7.0737	 0.6083	 7.3960	 8.0044	60.9605	99.9861	
   611	-0.1301	 6.4026	 6.2724	 0.0481	 7.0395	 7.0876	 0.6210	 7.4150	 8.0360	60.8976	99.9856	
   612	-0.1271	 6.4482	 6.3210	 0.0704	 7.0785	 7.1490	 0.6561	 7.4261	 8.0822	61.0282	99.9861	
   613	-0.1581	 6.4438	 6.2856	 0.0229	 7.0618	 7.0847	 0.6210	 7.4150	 8.0360	61.0258	99.9852	
   614	-0.1980	 6.4192	 6.2211	-0.0178	 7.0494	 7.0316	 0.5746	 7.4080	 7.9825	60.9605	99.9854	
   615	-0.1830	 6.4138	 6.2307	-0.0040	 7.0579	 7.0539	 0.5521	 7.4159	 7.9680	60.8606	99.9864	
   616	-0.2369	 6.4098	 6.1728	-0.0654	 7.0327	 6.9673	 0.4653	 7.4055	 7.8708	60.7888	99.9863	
   617	-0.3308	 6.3813	 6.0503	-0.2125	 7.0177	 6.8051	 0.3419	 7.3612	 7.7031	60.7463	99.9856	
   618	-0.4317	 6.3630	 5.9312	-0.2764	 6.9531	 6.6767	 0.2372	 7.3395	 7.5767	60.7090	99.9856	
   619	-0.5146	 6.3849	 5.8703	-0.3422	 6.9630	 6.6207	 0.2372	 7.3395	 7.5767	60.8777	99.9844	
   620	-0.4527	 6.3938	 5.9411	-0.2341	 6.9918	 6.7577	 0.3771	 7.3722	 7.7493	60.9901	99.9848	
   621	-0.3368	 6.4067	 6.0698	-0.1381	 7.0383	 6.9002	 0.4653	 7.4055	 7.8708	60.9285	99.9854	
   622	-0.2919	 6.3906	 6.0987	-0.1121	 7.0291	 6.9170	 0.4526	 7.3865	 7.8392	60.8568	99.9862	
   623	-0.2989	 6.4009	 6.1020	-0.1174	 7.0511	 6.9337	 0.4653	 7.4055	 7.8708	60.8606	99.9861	
   624	-0.3049	 6.4264	 6.1214	-0.1036	 7.0596	 6.9560	 0.4442	 7.4364	 7.8806	60.7952	99.9865	
   625	-0.3428	 6.4322	 6.0893	-0.1564	 7.0649	 6.9084	 0.4104	 7.4484	 7.8588	60.7631	99.9857	
   626	-0.3728	 6.4430	 6.0701	-0.1694	 7.0695	 6.9000	 0.3879	 7.4563	 7.8442	60.7631	99.9861	
   627	-0.4028	 6.4537	 6.0509	-0.2292	 7.0705	 6.8413	 0.3415	 7.4493	 7.7908	60.7579	99.9852	
   628	-0.4517	 6.4090	 5.9573	-0.2731	 7.0056	 6.7325	 0.2744	 7.3850	 7.6594	60.7824	99.9855	
   629	-0.5095	 6.3442	 5.8346	-0.3431	 6.9499	 6.6068	 0.1809	 7.3594	 7.5403	60.6163	99.9854	
   630	-0.5095	 6.3442	 5.8346	-0.3154	 6.9669	 6.6515	 0.2678	 7.3698	 7.6375	60.7592	99.9849	
   631	-0.3767	 6.3822	 6.0053	-0.1475	 6.9947	 6.8472	 0.4301	 7.3945	 7.8246	60.8964	99.9856	
   632	-0.2689	 6.3902	 6.1212	-0.0601	 7.0107	 6.9506	 0.5215	 7.3857	 7.9072	60.9605	99.9857	
   633	-0.2220	 6.4045	 6.1824	-0.0308	 7.0540	 7.0232	 0.5310	 7.4468	 7.9778	60.7695	99.9859	
   634	-0.1890	 6.4393	 6.2502	 0.0046	 7.0884	 7.0930	 0.5840	 7.4691	 8.0532	60.8373	99.9858	
   635	-0.1881	 6.4545	 6.2664	 0.0176	 7.0838	 7.1014	 0.6178	 7.4572	 8.0750	60.9679	99.9854	
   636	-0.1741	 6.4339	 6.2598	 0.0229	 7.0618	 7.0847	 0.5999	 7.4459	 8.0458	60.9001	99.9855	
   637	-0.1920	 6.3937	 6.2016	-0.0125	 7.0274	 7.0149	 0.5342	 7.4046	 7.9388	60.8272	99.9861	
   638	-0.2319	 6.3691	 6.1371	-0.0609	 6.9976	 6.9367	 0.4864	 7.3746	 7.8610	60.8234	99.9859	
   639	-0.2559	 6.3544	 6.0984	-0.0999	 7.0114	 6.9115	 0.4526	 7.3865	 7.8392	60.7271	99.9860	
   640	-0.2459	 6.3897	 6.1437	-0.0263	 7.0189	 6.9926	 0.5521	 7.4159	 7.9680	60.9014	99.9857	
   641	-0.0682	 6.4115	 6.3433	 0.1615	 7.0464	 7.2078	 0.7556	 7.4554	 8.2110	60.9776	99.9853	
   642	 0.0457	 6.3940	 6.4396	 0.2741	 7.0401	 7.3142	 0.8456	 7.4236	 8.2692	61.0403	99.9864	
   643	 0.0377	 6.3891	 6.4267	 0.2603	 7.0316	 7.2918	 0.8456	 7.4236	 8.2692	61.0415	99.9858	
   644	 0.0767	 6.3985	 6.4750	 0.3131	 7.0263	 7.3394	 0.8298	 7.4468	 8.2766	60.9088	99.9868	
   645	 0.0907	 6.3779	 6.4685	 0.2871	 7.0355	 7.3226	 0.8456	 7.4236	 8.2692	60.9408	99.9862	
   646	 0.0527	 6.3837	 6.4363	 0.2655	 7.0096	 7.2751	 0.8316	 7.3817	 8.2132	61.0983	99.9862	
   647	 0.0198	 6.3489	 6.3686	 0.2041	 6.9844	 7.1885	 0.7659	 7.3404	 8.1062	61.0591	99.9863	
   648	-0.0201	 6.3243	 6.3040	 0.1566	 6.9677	 7.1242	 0.7128	 7.3181	 8.0309	61.0234	99.9865	
   649	-0.0731	 6.3355	 6.2623	 0.1045	 6.9861	 7.0906	 0.6453	 7.3419	 7.9872	60.9247	99.9869	
   650	-0.0871	 6.3561	 6.2689	 0.1131	 7.0165	 7.1296	 0.6772	 7.3951	 8.0724	60.9026	99.9865	
   651	 0.0447	 6.3788	 6.4234	 0.2785	 7.0050	 7.2835	 0.8541	 7.3737	 8.2278	61.1658	99.9864	
   652	 0.0747	 6.3681	 6.4427	 0.3167	 6.9781	 7.2948	 0.8685	 7.3276	 8.1961	61.2571	99.9872	
   653	 0.0428	 6.3484	 6.3911	 0.2692	 6.9614	 7.2306	 0.8559	 7.3086	 8.1644	61.2902	99.9863	
   654	 0.0358	 6.3587	 6.3944	 0.2692	 6.9614	 7.2306	 0.8559	 7.3086	 8.1644	61.3222	99.9862	
   655	 0.0268	 6.3386	 6.3653	 0.2736	 6.9263	 7.1999	 0.8042	 7.3092	 8.1134	61.1896	99.9868	
   656	 0.0248	 6.3082	 6.3329	 0.2382	 6.8919	 7.1302	 0.8060	 7.2441	 8.0501	61.3143	99.9859	
   657	-0.0011	 6.2630	 6.2618	 0.2081	 6.8355	 7.0437	 0.7582	 7.2141	 7.9723	61.2467	99.9855	
   658	-0.0550	 6.2590	 6.2039	 0.1874	 6.8228	 7.0102	 0.7277	 7.1838	 7.9115	61.3419	99.9866	
   659	-0.0570	 6.2286	 6.1715	 0.1520	 6.7884	 6.9404	 0.6535	 7.1924	 7.8459	61.1101	99.9859	
   660	-0.0800	 6.2291	 6.1490	 0.1918	 6.7877	 6.9795	 0.8078	 7.1790	 7.9868	61.4844	99.9846	
   661	 0.0579	 6.2263	 6.2841	 0.3044	 6.7814	 7.0859	 0.8820	 7.1703	 8.0523	61.4480	99.9850	
   662	 0.0709	 6.1905	 6.2613	 0.3349	 6.7371	 7.0720	 0.8978	 7.1472	 8.0450	61.4491	99.9851	
   663	 0.0769	 6.1650	 6.2418	 0.3203	 6.7155	 7.0358	 0.9010	 7.1050	 8.0060	61.5110	99.9848	
   664	 0.0989	 6.1494	 6.2481	 0.3385	 6.6889	 7.0275	 0.8884	 7.0860	 7.9744	61.4746	99.9851	
   665	 0.1209	 6.1337	 6.2545	 0.3507	 6.6712	 7.0220	 0.9095	 7.0551	 7.9646	61.5377	99.9849	
   666	 0.1508	 6.1229	 6.2737	 0.3897	 6.6575	 7.0472	 0.9432	 7.0432	 7.9864	61.5708	99.9851	
   667	 0.2108	 6.1014	 6.3121	 0.4556	 6.6476	 7.1032	 0.9784	 7.0542	 8.0326	61.4757	99.9857	
   668	 0.2947	 6.0947	 6.3893	 0.5040	 6.6774	 7.1814	 1.0459	 7.0303	 8.0762	61.5387	99.9863	
   669	 0.2637	 6.0902	 6.3539	 0.4503	 6.6696	 7.1199	 0.9770	 7.0312	 8.0082	61.4370	99.9860	
   670	 0.2857	 6.0746	 6.3602	 0.5162	 6.6597	 7.1759	 1.0796	 7.0184	 8.0981	61.6082	99.9861	
   671	 0.3846	 6.0624	 6.4469	 0.6332	 6.6183	 7.2516	 1.1697	 6.9866	 8.1563	61.7042	99.9864	
   672	 0.3896	 6.0217	 6.4113	 0.6117	 6.5924	 7.2041	 1.1166	 6.9643	 8.0809	61.5697	99.9868	
   673	 0.3318	 5.9569	 6.2886	 0.5409	 6.5236	 7.0645	 1.0541	 6.8809	 7.9349	61.6286	99.9866	
   674	 0.3128	 5.9015	 6.2142	 0.5031	 6.4499	 6.9529	 0.9705	 6.8283	 7.7988	61.5226	99.9866	
   675	 0.2390	 5.8268	 6.0657	 0.4270	 6.4030	 6.8300	 0.8981	 6.7718	 7.6699	61.4882	99.9871	
   676	 0.1882	 5.7517	 5.9397	 0.3485	 6.3169	 6.6654	 0.8064	 6.6810	 7.4875	61.4783	99.9868	
   677	 0.1303	 5.6869	 5.8171	 0.2777	 6.2480	 6.5258	 0.7724	 6.5934	 7.3658	61.6054	99.9861	
   678	 0.1273	 5.6413	 5.7685	 0.2684	 6.2044	 6.4728	 0.7193	 6.5711	 7.2904	61.4706	99.9866	
   679	 0.1783	 5.5996	 5.7778	 0.2866	 6.1779	 6.4645	 0.6947	 6.5446	 7.2393	61.3333	99.9872	
   680	 0.2492	 5.6287	 5.8778	 0.3826	 6.2244	 6.6070	 0.8445	 6.5503	 7.3948	61.5709	99.9874	
   681	 0.5278	 5.6688	 6.1965	 0.6318	 6.2771	 6.9089	 1.0216	 6.6285	 7.6501	61.3770	99.9882	
   682	 0.6976	 5.6857	 6.3832	 0.7920	 6.2875	 7.0795	 1.1520	 6.6000	 7.7520	61.5030	99.9891	
   683	 0.7825	 5.6941	 6.4765	 0.8318	 6.2868	 7.1187	 1.2051	 6.6223	 7.8274	61.4383	99.9876	
   684	 0.8124	 5.6834	 6.4957	 0.8396	 6.3042	 7.1438	 1.2051	 6.6223	 7.8274	61.3713	99.9881	
   685	 0.7645	 5.6539	 6.4183	 0.8310	 6.2737	 7.1047	 1.1858	 6.5881	 7.7738	61.4372	99.9890	
   686	 0.7116	 5.6651	 6.3766	 0.8042	 6.2698	 7.0740	 1.1678	 6.5768	 7.7446	61.5353	99.9891	
   687	 0.6576	 5.6611	 6.3187	 0.7184	 6.2800	 6.9984	 1.0990	 6.5777	 7.6766	61.4673	99.9886	
   688	 0.6337	 5.6464	 6.2800	 0.6786	 6.2806	 6.9592	 1.0248	 6.5863	 7.6111	61.2997	99.9891	
   689	 0.5568	 5.6428	 6.1995	 0.6042	 6.2600	 6.8642	 0.9380	 6.5759	 7.5139	61.2626	99.9891	
   690	 0.4869	 5.6290	 6.1158	 0.5566	 6.2433	 6.7999	 0.8975	 6.5726	 7.4702	61.2650	99.9891	
   691	 0.5029	 5.6388	 6.1416	 0.5964	 6.2427	 6.8391	 0.9717	 6.5640	 7.5357	61.4338	99.9887	
   692	 0.6018	 5.6267	 6.2283	 0.6822	 6.2325	 6.9147	 1.0459	 6.5554	 7.6013	61.4338	99.9887	
   693	 0.5938	 5.6218	 6.2154	 0.6562	 6.2416	 6.8979	 1.0213	 6.5289	 7.5502	61.4618	99.9892	
   694	 0.5858	 5.6169	 6.2025	 0.6355	 6.2289	 6.8643	 0.9875	 6.5408	 7.5284	61.3623	99.9887	
   695	 0.5558	 5.6276	 6.1833	 0.6477	 6.2112	 6.8588	 0.9749	 6.5218	 7.4967	61.4584	99.9896	
   696	 0.5538	 5.5972	 6.1509	 0.5818	 6.2210	 6.8028	 0.9120	 6.5265	 7.4385	61.2580	99.9891	
   697	 0.4919	 5.5883	 6.0801	 0.5212	 6.2089	 6.7301	 0.8589	 6.5042	 7.3631	61.2881	99.9891	
   698	 0.4390	 5.5995	 6.0384	 0.4997	 6.1830	 6.6827	 0.8059	 6.4819	 7.2877	61.3486	99.9897	
   699	 0.3761	 5.5754	 5.9514	 0.4131	 6.1801	 6.5932	 0.7528	 6.4596	 7.2124	61.3474	99.9893	
   700	 0.3362	 5.5508	 5.8869	 0.3594	 6.1723	 6.5317	 0.7124	 6.4563	 7.1686	61.2823	99.9889	
   701	 0.2663	 5.5370	 5.8031	 0.2850	 6.1517	 6.4367	 0.6593	 6.4340	 7.0933	61.3137	99.9884	
   702	 0.2962	 5.5262	 5.8224	 0.3639	 6.1372	 6.5011	 0.7686	 6.4364	 7.2050	61.4562	99.9882	
   703	 0.3792	 5.5043	 5.8833	 0.4419	 6.1096	 6.5515	 0.8407	 6.3933	 7.2341	61.5525	99.9884	
   704	 0.4311	 5.4778	 5.9089	 0.4931	 6.0781	 6.5712	 0.8586	 6.4046	 7.2632	61.4226	99.9883	
   705	 0.5170	 5.5015	 6.0184	 0.5561	 6.1296	 6.6857	 0.9310	 6.4611	 7.3921	61.3298	99.9880	
   706	 0.6198	 5.5502	 6.1699	 0.6566	 6.1410	 6.7976	 1.0052	 6.4525	 7.4577	61.4551	99.9883	
   707	 0.6098	 5.5149	 6.1246	 0.6159	 6.1286	 6.7445	 0.9648	 6.4492	 7.4140	61.3229	99.9880	
   708	 0.5619	 5.4854	 6.0472	 0.5858	 6.0722	 6.6580	 0.8991	 6.4079	 7.3070	61.3172	99.9884	
   709	 0.5070	 5.4662	 5.9731	 0.5114	 6.0516	 6.5629	 0.8393	 6.3704	 7.2097	61.3451	99.9881	
   710	 0.4741	 5.4313	 5.9053	 0.4837	 6.0345	 6.5183	 0.8021	 6.3249	 7.1270	61.3743	99.9890	
   711	 0.4272	 5.4170	 5.8441	 0.4362	 6.0178	 6.4540	 0.7617	 6.3216	 7.0833	61.3417	99.9887	
   712	 0.4052	 5.4327	 5.8378	 0.4492	 6.0132	 6.4624	 0.8035	 6.3478	 7.1513	61.4159	99.9878	
   713	 0.5130	 5.4407	 5.9536	 0.5504	 6.0378	 6.5882	 0.8956	 6.3505	 7.2461	61.4495	99.9885	
   714	 0.5440	 5.4451	 5.9890	 0.6110	 6.0499	 6.6609	 0.9645	 6.3496	 7.3141	61.5525	99.9891	
   715	 0.5261	 5.4049	 5.9309	 0.5886	 6.0109	 6.5995	 0.9339	 6.3194	 7.2533	61.5179	99.9891	
   716	 0.4881	 5.4107	 5.8987	 0.5504	 6.0378	 6.5882	 0.8956	 6.3505	 7.2461	61.4215	99.9893	
   717	 0.4731	 5.4161	 5.8891	 0.5504	 6.0378	 6.5882	 0.8956	 6.3505	 7.2461	61.4551	99.9894	
   718	 0.4572	 5.4063	 5.8633	 0.5236	 6.0339	 6.5574	 0.8777	 6.3392	 7.2169	61.4540	99.9893	
   719	 0.4192	 5.4121	 5.8312	 0.4959	 6.0168	 6.5127	 0.8246	 6.3169	 7.1415	61.4809	99.9897	
   720	 0.3733	 5.4130	 5.7862	 0.4362	 6.0178	 6.4540	 0.8000	 6.2904	 7.0905	61.5774	99.9893	
   721	 0.3343	 5.4037	 5.7379	 0.3703	 6.0277	 6.3980	 0.7100	 6.3222	 7.0323	61.3451	99.9892	
   722	 0.3522	 5.4439	 5.7960	 0.4325	 6.0660	 6.4985	 0.8373	 6.3359	 7.1732	61.6185	99.9890	
   723	 0.4771	 5.4769	 5.9539	 0.5858	 6.0722	 6.6580	 0.9487	 6.3728	 7.3214	61.6217	99.9894	
   724	 0.5549	 5.4957	 6.0505	 0.6342	 6.1020	 6.7362	 1.0084	 6.4103	 7.4187	61.5590	99.9888	
   725	 0.5589	 5.5565	 6.1153	 0.6956	 6.1272	 6.8228	 1.0245	 6.4867	 7.5112	61.4986	99.9893	
   726	 0.6218	 5.5806	 6.2023	 0.6952	 6.2279	 6.9231	 1.0955	 6.5203	 7.6158	61.5030	99.9889	
   727	 0.6018	 5.6267	 6.2283	 0.6830	 6.2456	 6.9286	 1.0459	 6.5554	 7.6013	61.4338	99.9891	
   728	 0.5887	 5.6625	 6.2511	 0.6786	 6.2806	 6.9592	 1.0427	 6.5976	 7.6403	61.4037	99.9891	
   729	 0.5946	 5.7537	 6.3483	 0.7103	 6.3632	 7.0736	 1.0444	 6.7201	 7.7645	61.2465	99.9894	
   730	 0.5676	 5.8101	 6.3776	 0.6417	 6.4344	 7.0761	 1.0412	 6.7623	 7.8035	61.2812	99.9881	
   731	 0.5326	 5.8615	 6.3941	 0.6502	 6.4649	 7.1151	 1.0169	 6.8354	 7.8522	61.1878	99.9885	
   732	 0.5595	 5.9219	 6.4813	 0.6942	 6.5298	 7.2240	 1.1567	 6.8680	 8.0248	61.4604	99.9873	
   733	 0.7133	 5.9290	 6.6422	 0.8934	 6.5264	 7.4198	 1.3304	 6.8888	 8.2192	61.5334	99.9880	
   734	 0.7902	 5.9325	 6.7226	 0.9332	 6.5258	 7.4590	 1.3641	 6.8769	 8.2410	61.5291	99.9877	
   735	 0.7363	 5.9285	 6.6647	 0.9100	 6.4736	 7.3836	 1.3368	 6.8044	 8.1412	61.7500	99.9879	
   736	 0.6644	 5.8843	 6.5486	 0.8287	 6.4488	 7.2774	 1.2711	 6.7632	 8.0342	61.7479	99.9881	
   737	 0.6015	 5.8602	 6.4616	 0.7665	 6.4104	 7.1769	 1.1842	 6.7528	 7.9370	61.6471	99.9879	
   738	 0.5626	 5.8508	 6.4133	 0.7319	 6.3891	 7.1210	 1.1828	 6.7298	 7.9127	61.7459	99.9871	
   739	 0.5236	 5.8414	 6.3650	 0.6721	 6.3901	 7.0623	 1.1087	 6.7384	 7.8471	61.6128	99.9871	
   740	 0.4757	 5.8119	 6.2876	 0.6185	 6.3823	 7.0008	 1.0444	 6.7201	 7.7645	61.5451	99.9878	
   741	 0.4298	 5.8128	 6.2425	 0.5709	 6.3656	 6.9365	 1.0251	 6.6859	 7.7109	61.6731	99.9872	
   742	 0.3998	 5.8236	 6.2233	 0.5587	 6.3833	 6.9420	 1.0444	 6.7201	 7.7645	61.6804	99.9866	
   743	 0.5166	 5.8517	 6.3683	 0.7189	 6.3937	 7.1126	 1.1842	 6.7528	 7.9370	61.7520	99.9871	
   744	 0.6165	 5.8548	 6.4712	 0.8055	 6.3966	 7.2021	 1.2486	 6.7711	 8.0197	61.6877	99.9870	
   745	 0.6245	 5.8597	 6.4841	 0.8055	 6.3966	 7.2021	 1.2644	 6.7479	 8.0123	61.7832	99.9869	
   746	 0.6245	 5.8597	 6.4841	 0.8063	 6.4098	 7.2161	 1.2711	 6.7632	 8.0342	61.7531	99.9869	
   747	 0.6245	 5.8597	 6.4841	 0.8185	 6.3920	 7.2105	 1.2644	 6.7479	 8.0123	61.7832	99.9872	
   748	 0.6385	 5.8391	 6.4775	 0.8099	 6.3616	 7.1715	 1.2517	 6.7289	 7.9807	61.7479	99.9865	
   749	 0.6365	 5.8087	 6.4451	 0.8152	 6.3396	 7.1548	 1.2549	 6.6868	 7.9417	61.8113	99.9873	
   750	 0.5656	 5.7797	 6.3452	 0.7270	 6.3105	 7.0374	 1.1826	 6.6302	 7.8128	61.8708	99.9871	
   751	 0.5177	 5.7502	 6.2678	 0.6664	 6.2984	 6.9648	 1.0971	 6.6428	 7.7400	61.6742	99.9873	
   752	 0.4878	 5.7609	 6.2486	 0.6404	 6.3075	 6.9479	 1.0971	 6.6428	 7.7400	61.7408	99.9869	
   753	 0.5327	 5.7448	 6.2774	 0.7054	 6.2846	 6.9900	 1.2177	 6.6413	 7.8590	61.8807	99.9855	
   754	 0.6386	 5.7224	 6.3609	 0.8225	 6.2432	 7.0657	 1.2951	 6.5905	 7.8856	61.9743	99.9864	
   755	 0.6436	 5.6817	 6.3252	 0.8086	 6.2347	 7.0433	 1.2884	 6.5752	 7.8637	61.9099	99.9866	
   756	 0.6487	 5.6410	 6.2896	 0.7993	 6.1911	 6.9904	 1.2790	 6.5141	 7.7931	61.9705	99.9866	
   757	 0.6617	 5.6052	 6.2668	 0.8297	 6.1468	 6.9766	 1.2723	 6.4989	 7.7712	61.9050	99.9871	
   758	 0.6387	 5.6057	 6.2443	 0.8029	 6.1429	 6.9458	 1.2934	 6.4679	 7.7614	62.0681	99.9864	
   759	 0.6607	 5.5900	 6.2506	 0.8029	 6.1429	 6.9458	 1.2723	 6.4989	 7.7712	61.8738	99.9861	
   760	 0.6457	 5.5954	 6.2410	 0.8212	 6.1163	 6.9375	 1.2755	 6.4567	 7.7322	62.0331	99.9868	
   761	 0.6368	 5.5752	 6.2119	 0.7683	 6.1216	 6.8900	 1.2576	 6.4454	 7.7030	61.9998	99.9860	
   762	 0.6208	 5.5654	 6.1861	 0.7858	 6.0819	 6.8677	 1.2449	 6.4264	 7.6714	62.0312	99.9864	
   763	 0.6098	 5.5149	 6.1246	 0.7236	 6.0436	 6.7672	 1.1673	 6.3776	 7.5449	61.9255	99.9862	
   764	 0.5779	 5.4952	 6.0730	 0.7159	 6.0262	 6.7421	 1.2042	 6.3235	 7.5278	62.1557	99.9864	
   765	 0.6668	 5.4478	 6.1145	 0.7975	 5.9505	 6.7480	 1.2219	 6.2352	 7.4571	62.2112	99.9875	
   766	 0.6679	 5.3462	 6.0141	 0.6983	 5.8515	 6.5498	 1.0835	 6.0378	 7.1213	62.2854	99.9884	
   767	 0.5063	 5.2175	 5.7237	 0.5133	 5.7627	 6.2760	 0.8741	 5.9946	 6.8686	61.9532	99.9883	
   768	 0.5312	 5.2475	 5.7786	 0.5401	 5.7667	 6.3068	 0.8966	 5.9866	 6.8832	62.0493	99.9883	
   769	 0.4882	 5.2940	 5.7821	 0.5104	 5.8241	 6.3345	 0.9000	 6.0440	 6.9441	62.0551	99.9880	
   770	 0.4723	 5.2842	 5.7563	 0.4621	 5.7942	 6.2563	 0.8561	 5.9833	 6.8394	62.1455	99.9876	
   771	 0.4403	 5.2645	 5.7047	 0.4352	 5.7903	 6.2255	 0.8336	 5.9912	 6.8249	62.0820	99.9876	
   772	 0.4453	 5.2238	 5.6690	 0.4295	 5.6985	 6.1280	 0.7560	 5.9425	 6.6984	61.9731	99.9875	
   773	 0.4284	 5.1988	 5.6270	 0.3896	 5.6992	 6.0888	 0.7539	 5.9080	 6.6619	62.0387	99.9873	
   774	 0.4673	 5.2081	 5.6754	 0.4018	 5.6815	 6.0833	 0.7663	 5.8274	 6.5937	62.2601	99.9875	
   775	 0.5403	 5.1508	 5.6910	 0.4307	 5.6110	 6.0417	 0.7913	 5.7658	 6.5571	62.2556	99.9865	
   776	 0.5104	 5.0449	 5.5552	 0.3826	 5.4805	 5.8632	 0.7172	 5.5867	 6.3040	62.4411	99.9873	
   777	 0.3438	 4.8401	 5.1838	 0.1557	 5.2525	 5.4081	 0.3859	 5.3344	 5.7203	62.3130	99.9886	
   778	 0.1633	 4.6559	 4.8191	-0.0672	 5.0900	 5.0228	 0.1681	 5.1533	 5.3215	62.2676	99.9883	
   779	-0.0442	 4.4114	 4.3670	-0.4471	 4.7551	 4.3080	-0.3602	 4.7771	 4.4169	62.0758	99.9882	
   780	-0.8139	 4.0106	 3.1966	-1.3055	 4.3145	 3.0090	-1.2281	 4.2980	 3.0699	61.9925	99.9872	
   781	-1.6894	 3.6322	 1.9427	-2.1996	 3.9402	 1.7406	-2.0036	 3.9211	 1.9175	62.0052	99.9844	
   782	-2.1526	 3.4638	 1.3111	-2.5794	 3.8197	 1.2403	-2.3020	 3.8331	 1.5311	61.9800	99.9843	
   783	-2.4960	 3.2524	 0.7563	-2.8897	 3.6412	 0.7515	-2.5680	 3.7101	 1.1421	61.8438	99.9834	
   784	-2.6218	 3.2042	 0.5823	-2.8990	 3.5976	 0.6986	-2.5574	 3.6946	 1.1372	61.9967	99.9847	
   785	-2.6047	 3.1125	 0.5077	-2.8857	 3.4924	 0.6067	-2.4874	 3.6171	 1.1297	62.1404	99.9824	
   786	-2.3379	 2.9701	 0.6321	-2.6878	 3.3621	 0.6744	-2.4087	 3.5893	 1.1806	61.6501	99.9818	
   787	-2.0863	 3.0666	 0.9802	-2.4320	 3.5197	 1.0877	-2.1677	 3.7739	 1.6062	61.4270	99.9828	
   788	-2.1852	 3.0787	 0.8934	-2.6348	 3.5713	 0.9364	-2.4483	 3.8847	 1.4365	60.6847	99.9820	
   789	-2.3951	 3.2707	 0.8755	-2.8278	 3.7802	 0.9524	-2.5366	 4.0391	 1.5025	60.8004	99.9812	
   790	-2.3013	 3.2993	 0.9979	-2.6726	 3.7119	 1.0394	-2.3534	 3.9333	 1.5799	61.4223	99.9808	
   791	-1.6940	 3.2060	 1.5119	-1.9164	 3.6860	 1.7696	-1.4469	 4.0059	 2.5590	61.9359	99.9785	
   792	-1.2027	 3.3332	 2.1304	-1.3956	 3.8304	 2.4348	-1.0498	 4.1119	 3.0621	61.9737	99.9837	
   793	-1.3365	 3.2800	 1.9434	-1.6119	 3.7728	 2.1609	-1.2567	 4.0149	 2.7582	61.9224	99.9826	
   794	-1.6241	 3.2198	 1.5956	-1.9770	 3.6739	 1.6969	-1.6387	 3.8743	 2.2356	61.8601	99.9818	
   795	-1.8178	 3.1881	 1.3702	-2.2506	 3.6567	 1.4061	-1.9322	 3.8666	 1.9344	61.5003	99.9807	
   796	-1.6701	 3.3374	 1.6672	-2.0468	 3.8326	 1.7858	-1.6733	 4.0624	 2.3891	61.5623	99.9804	
   797	-1.3757	 3.5041	 2.1284	-1.7268	 3.9541	 2.2273	-1.4255	 4.0746	 2.6491	61.9645	99.9844	
   798	-2.0739	 2.6654	 0.5914	-2.8796	 2.7397	-0.1399	-3.0885	 2.6099	-0.4786	62.1050	99.9872	
   799	-4.7541	 1.1761	-3.5781	-5.9841	 1.4576	-4.5265	-6.3250	 1.8242	-4.5007	58.1673	99.9726	
   800	-6.0960	 1.7662	-4.3298	-6.2559	 2.4248	-3.8312	-5.5564	 3.0362	-2.5202	59.8112	99.9687	
   801	-2.8557	 3.3814	 0.5257	-2.9403	 4.0009	 1.0606	-2.2799	 4.3882	 2.1083	61.2581	99.9776	
   802	-1.8462	 3.6962	 1.8499	-2.5057	 4.0416	 1.5359	-2.4681	 4.1263	 1.6582	60.7877	99.9841	
   803	-1.7321	 3.4453	 1.7130	-1.8671	 3.9433	 2.0762	-1.1820	 4.2055	 3.0235	62.4737	99.9761	
   804	-0.2913	 3.7920	 3.5006	-0.2144	 4.3311	 4.1167	 0.3607	 4.3465	 4.7072	63.7666	99.9880	
   805	-0.4589	 3.5721	 3.1131	-0.9146	 3.9754	 3.0608	-0.7214	 4.0310	 3.3096	62.2998	99.9852	
   806	-0.8572	 3.3415	 2.4842	-1.4546	 3.6301	 2.1754	-1.2730	 3.6513	 2.3783	62.3942	99.9816	
   807	-1.5499	 2.9442	 1.3942	-2.4184	 3.0994	 0.6810	-2.4480	 3.0344	 0.5864	61.9752	99.9812	
   808	-2.3896	 2.7631	 0.3733	-3.0555	 3.0096	-0.0459	-2.8159	 2.9357	 0.1198	62.4000	99.9803	
   809	-2.6851	 2.5812	-0.1040	-3.3458	 2.8307	-0.5151	-3.1058	 2.7978	-0.3081	62.2509	99.9796	
   810	-2.6761	 2.6013	-0.0749	-3.2922	 2.8385	-0.4536	-3.0693	 2.8318	-0.2376	62.2559	99.9802	
   811	-2.7041	 2.6425	-0.0617	-3.2035	 2.9814	-0.2220	-2.8389	 3.0318	 0.1929	62.2632	99.9794	
   812	-2.3298	 2.8583	 0.5284	-2.7651	 3.1884	 0.4233	-2.4288	 3.2563	 0.8275	62.3521	99.9810	
   813	-1.9385	 3.0992	 1.1605	-2.2621	 3.4731	 1.2110	-1.8695	 3.5747	 1.7052	62.4942	99.9818	
   814	-1.4763	 3.2524	 1.7760	-1.8787	 3.5454	 1.6667	-1.6276	 3.5831	 1.9555	62.6132	99.9838	
   815	-1.6269	 3.0574	 1.4304	-2.0536	 3.2989	 1.2453	-1.8524	 3.2872	 1.4348	62.8346	99.9847	
   816	-2.5390	 2.3499	-0.1893	-2.9939	 2.5053	-0.4886	-2.8353	 2.4266	-0.4087	63.2085	99.9854	
   817	-3.9424	 1.5151	-2.4274	-4.5399	 1.8051	-2.7348	-4.6421	 2.0975	-2.5447	60.6053	99.9835	
   818	-4.6151	 2.0209	-2.5943	-4.9706	 2.3593	-2.6112	-4.8394	 2.6362	-2.2031	60.7843	99.9840	
   819	-4.2818	 2.3137	-1.9682	-4.6167	 2.7034	-1.9133	-4.3395	 3.0167	-1.3228	60.8436	99.9804	
   820	-2.7532	 2.8312	 0.0779	-2.7204	 3.2664	 0.5461	-2.1067	 3.5471	 1.4404	62.7137	99.9806	
   821	-0.4917	 3.4205	 2.9287	-0.2507	 4.0692	 3.8185	 0.4976	 4.5209	 5.0185	62.9906	99.9807	
   822	 0.4447	 3.7926	 4.2372	 0.3100	 4.2129	 4.5228	 0.5080	 4.2182	 4.7262	63.3675	99.9908	
   823	-0.8940	 3.2458	 2.3517	-1.3389	 3.4619	 2.1230	-1.2180	 3.4208	 2.2028	63.0498	99.9863	
   824	-1.6308	 2.9966	 1.3657	-2.0016	 3.2805	 1.2789	-1.7111	 3.3428	 1.6317	62.8202	99.9827	
   825	-1.6649	 3.0633	 1.3983	-1.9768	 3.3589	 1.3821	-1.6068	 3.4526	 1.8458	62.9049	99.9813	
   826	-1.4333	 3.2058	 1.7724	-1.7218	 3.5033	 1.7815	-1.3713	 3.5453	 2.1740	63.0808	99.9835	
   827	-1.5888	 2.9349	 1.3459	-2.0712	 3.1242	 1.0530	-1.8888	 3.0655	 1.1768	63.0993	99.9842	
   828	-2.6387	 2.1133	-0.5255	-3.2347	 2.2687	-0.9660	-3.2827	 2.3442	-0.9384	62.1104	99.9846	
   829	-4.3741	 1.7166	-2.6576	-5.1094	 1.9460	-3.1634	-5.3223	 2.1560	-3.1663	60.0926	99.9847	
   830	-4.5591	 1.9385	-2.6206	-5.1519	 2.2224	-2.9296	-5.1352	 2.4945	-2.6407	60.2865	99.9809	
   831	-4.1848	 2.1544	-2.0305	-4.6180	 2.5765	-2.0415	-4.3071	 2.9818	-1.3253	60.4964	99.9747	
   832	-2.8740	 2.7423	-0.1318	-3.0761	 3.2112	 0.1351	-2.6691	 3.5582	 0.8891	61.5109	99.9801	
   833	-2.1722	 3.0430	 0.8707	-2.3365	 3.4525	 1.1160	-1.9707	 3.6105	 1.6398	62.4051	99.9852	
   834	-1.1133	 2.8188	 1.7054	-1.3024	 3.1943	 1.8919	-0.8657	 3.3549	 2.4892	63.3120	99.9819	
   835	-1.2069	 2.5567	 1.3497	-1.9201	 2.9904	 1.0703	-1.2949	 2.9085	 1.6135	63.3398	99.9707	
   836	-2.0962	 1.9655	-0.1309	-3.0495	 2.0425	-1.0070	-3.1057	 2.1351	-0.9706	61.9288	99.9736	
   837	-2.7276	 2.1608	-0.5669	-3.1623	 2.3638	-0.7985	-2.8950	 2.3890	-0.5060	63.0455	99.9816	
   838	-2.5169	 2.2175	-0.2996	-2.9049	 2.5476	-0.3573	-2.5961	 2.6763	 0.0802	62.5852	99.9814	
   839	-1.8582	 2.6814	 0.8231	-2.0704	 3.1373	 1.0669	-1.6066	 3.2649	 1.6582	62.8901	99.9831	
   840	-1.7250	 2.2524	 0.5273	-2.3387	 2.3542	 0.0155	-2.3951	 2.2945	-0.1006	63.0478	99.9862	
   841	-3.4966	 1.0596	-2.4371	-4.5691	 1.2324	-3.3367	-5.0062	 1.4931	-3.5131	59.8519	99.9803	
   842	-5.3543	 1.1424	-4.2120	-5.9260	 1.4303	-4.4956	-5.8834	 1.7151	-4.1683	60.4887	99.9805	
   843	-4.2396	 2.0184	-2.2212	-4.5631	 2.4968	-2.0663	-4.0779	 2.9712	-1.1067	60.7962	99.9709	
   844	-2.3968	 2.8901	 0.4932	-2.6919	 3.2966	 0.6047	-2.4585	 3.5248	 1.0663	61.6490	99.9845	
   845	-1.5688	 2.8888	 1.3199	-2.0150	 3.3858	 1.3708	-1.2672	 3.8427	 2.5756	61.8851	99.9573	
   846	-0.1460	 3.3121	 3.1659	-0.1933	 3.4994	 3.3061	-0.0342	 3.6123	 3.5781	63.8897	99.9889	
   847	-0.7877	 2.7564	 1.9687	-1.5108	 2.8391	 1.3283	-1.4776	 2.7385	 1.2609	63.3181	99.9819	
   848	-1.9706	 2.1304	 0.1598	-2.8271	 2.0912	-0.7359	-2.9749	 2.0185	-0.9563	62.7820	99.9812	
   849	-2.7473	 1.8567	-0.8907	-3.2832	 2.0245	-1.2587	-3.1409	 2.1241	-1.0168	62.6675	99.9802	
   850	-2.2444	 2.2831	 0.0386	-2.4381	 2.7847	 0.3466	-1.9864	 2.9710	 0.9846	62.6774	99.9834	
   851	-1.4804	 2.3592	 0.8787	-1.9837	 2.6108	 0.6271	-1.9081	 2.5563	 0.6483	63.1210	99.9871	
   852	-2.9003	 1.0324	-1.8680	-4.0420	 0.8384	-3.2036	-4.8124	 0.8969	-3.9155	61.1551	99.9856	
   853	-6.0648	 0.5881	-5.4768	-6.6669	 1.0622	-5.6047	-6.5711	 1.4597	-5.1114	59.6096	99.9794	
   854	-4.6807	 1.7177	-2.9631	-5.1317	 2.1214	-3.0103	-4.7774	 2.5205	-2.2569	60.6747	99.9726	
   855	-3.1754	 2.4692	-0.7063	-3.6202	 2.8003	-0.8199	-3.5292	 3.0177	-0.5115	61.1784	99.9842	
   856	-2.4086	 2.7076	 0.2990	-2.6062	 3.0720	 0.4657	-2.0186	 3.2932	 1.2745	62.8568	99.9758	
   857	-0.7509	 2.9689	 2.2178	-1.0086	 3.1106	 2.1021	-0.8793	 3.2249	 2.3455	63.4833	99.9851	
   858	-1.3676	 2.4432	 1.0755	-2.1163	 2.4030	 0.2867	-2.2433	 2.3347	 0.0914	63.1382	99.9828	
   859	-2.3119	 1.9495	-0.3626	-3.2121	 1.9927	-1.2194	-3.2342	 1.9108	-1.3234	62.6750	99.9785	
   860	-2.9989	 1.7602	-1.2388	-3.6508	 1.8863	-1.7645	-3.6051	 1.9539	-1.6512	62.3806	99.9804	
   861	-2.6956	 2.0637	-0.6319	-3.0464	 2.4099	-0.6365	-2.8164	 2.5489	-0.2675	62.4358	99.9844	
   862	-2.0585	 2.1931	 0.1345	-2.6013	 2.4068	-0.1945	-2.5758	 2.3466	-0.2292	62.8829	99.9872	
   863	-3.3677	 1.0367	-2.3311	-4.3466	 0.7517	-3.5949	-5.3217	 0.7426	-4.5790	61.3021	99.9933	
   864	-6.4183	 0.4582	-5.9602	-7.1487	 0.9041	-6.2446	-7.1056	 1.2674	-5.8382	59.2808	99.9783	
   865	-5.0990	 1.5332	-3.5659	-5.6652	 1.8810	-3.7842	-5.4254	 2.2569	-3.1685	60.3167	99.9727	
   866	-3.4659	 2.3633	-1.1027	-3.8597	 2.6906	-1.1691	-3.7302	 2.9245	-0.8057	61.2500	99.9838	
   867	-2.5823	 2.6299	 0.0475	-3.0132	 3.0482	 0.0350	-2.3620	 3.2210	 0.8590	62.4590	99.9703	
   868	-1.2091	 2.7598	 1.5506	-1.2338	 3.1232	 1.8894	-0.8905	 3.0412	 2.1507	64.2209	99.9904	
   869	-1.5034	 2.3596	 0.8562	-2.4367	 2.3821	-0.0545	-2.5161	 2.3842	-0.1319	62.4106	99.9763	
   870	-2.5946	 1.9653	-0.6294	-3.3792	 1.9780	-1.4012	-3.4599	 1.9788	-1.4811	62.4605	99.9802	
   871	-2.8852	 1.9762	-0.9092	-3.5527	 2.0728	-1.4799	-3.5623	 2.0912	-1.4711	62.3737	99.9823	
   872	-2.8035	 2.1725	-0.6312	-3.2443	 2.5402	-0.7042	-3.0108	 2.6586	-0.3522	62.1104	99.9833	
   873	-2.0897	 2.4221	 0.3323	-2.5548	 2.7254	 0.1707	-2.4362	 2.7547	 0.3185	62.4929	99.9862	
   874	-2.6664	 1.8043	-0.8622	-3.4691	 1.9226	-1.5464	-3.6102	 1.7739	-1.8363	62.5158	99.9867	
   875	-4.9583	 0.6269	-4.3314	-6.1443	 0.7033	-5.4410	-6.7883	 1.0028	-5.7855	58.7277	99.9807	
   876	-5.6958	 1.0781	-4.6177	-6.4142	 1.3817	-5.0325	-6.3959	 1.7906	-4.6053	59.5092	99.9738	
   877	-4.0699	 2.1521	-1.9179	-4.3668	 2.5548	-1.8120	-4.0230	 2.9283	-1.0947	61.0816	99.9777	
   878	-3.2483	 2.5265	-0.7220	-3.7796	 2.8030	-0.9766	-3.6283	 2.9002	-0.7280	61.5790	99.9826	
   879	-1.6636	 2.8450	 1.1813	-1.6638	 3.2617	 1.5979	-0.9862	 3.6438	 2.6576	63.0809	99.9739	
   880	-0.5383	 3.0560	 2.5176	-0.7378	 3.1892	 2.4514	-1.0024	 3.2801	 2.2777	62.9412	99.9943	
   881	-1.3497	 2.4835	 1.1337	-2.2033	 2.5007	 0.2975	-2.4056	 2.3100	-0.0957	62.9386	99.9862	
   882	-2.6015	 1.8588	-0.7428	-3.5993	 1.7542	-1.8451	-3.9321	 1.5827	-2.3493	62.4552	99.9846	
   883	-3.9431	 1.1497	-2.7935	-4.8000	 1.1532	-3.6469	-5.0105	 1.1370	-3.8735	61.9722	99.9830	
   884	-4.2526	 1.1051	-3.1476	-4.8016	 1.3413	-3.4602	-4.8842	 1.5145	-3.3697	61.4397	99.9860	
   885	-3.7804	 1.2936	-2.4869	-4.4608	 1.4756	-2.9852	-4.5760	 1.5757	-3.0003	61.6062	99.9848	
   886	-4.1347	 1.0317	-3.1031	-4.9419	 1.1162	-3.8258	-5.1191	 1.1460	-3.9731	61.7273	99.9837	
   887	-5.2775	 0.1968	-5.0807	-6.2978	 0.2683	-6.0294	-6.7904	 0.4934	-6.2970	59.8951	99.9824	
   888	-6.5030	 0.3330	-6.1702	-7.3037	 0.6573	-6.6464	-7.4587	 1.0345	-6.4242	59.0434	99.9793	
   889	-6.0404	 1.0850	-4.9554	-6.5650	 1.4149	-5.1502	-6.4750	 1.7189	-4.7561	60.1541	99.9809	
   890	-5.4685	 1.5101	-3.9585	-5.8388	 1.7614	-4.0774	-5.7209	 2.0271	-3.6938	60.9332	99.9828	
   891	-4.4938	 1.5261	-2.9677	-4.7892	 1.7524	-3.0367	-4.6080	 1.9974	-2.6105	61.9139	99.9824	
   892	-2.8366	 2.2543	-0.5824	-2.9744	 2.6056	-0.3687	-2.6408	 2.7918	 0.1510	62.7150	99.9851	
   893	-1.7392	 2.5065	 0.7671	-2.2930	 2.6598	 0.3667	-2.3012	 2.7070	 0.4058	62.5765	99.9847	
   894	-2.0616	 2.2642	 0.2025	-2.6139	 2.3108	-0.3032	-2.8268	 2.3767	-0.4501	62.4280	99.9876	
   895	-2.5369	 2.1468	-0.3901	-2.8802	 2.4115	-0.4687	-2.7284	 2.4826	-0.2458	62.7733	99.9865	
   896	-2.3502	 2.3055	-0.0448	-2.6780	 2.5612	-0.1168	-2.5313	 2.6065	 0.0752	62.8842	99.9872	
   897	-2.2973	 2.2943	-0.0031	-2.6841	 2.5701	-0.1140	-2.5511	 2.6604	 0.1093	62.5674	99.9858	
   898	-2.0658	 2.5536	 0.4876	-2.3535	 2.8620	 0.5086	-2.1414	 2.9730	 0.8316	62.7041	99.9859	
   899	-1.5758	 2.8991	 1.3232	-1.8065	 3.2116	 1.4051	-1.5641	 3.3026	 1.7385	62.9353	99.9865	
   900	-1.0946	 3.1077	 2.0130	-1.3316	 3.3655	 2.0339	-1.1955	 3.4128	 2.2173	63.1049	99.9887	
   901	-1.1822	 2.8202	 1.6378	-1.7034	 2.9473	 1.2439	-1.7740	 2.8725	 1.0985	63.0409	99.9886	
   902	-2.1811	 1.9570	-0.2242	-3.0885	 2.0562	-1.0323	-3.7166	 2.1047	-1.6119	60.7868	99.9918	
   903	-4.8722	 1.4829	-3.3894	-5.5774	 1.7964	-3.7810	-5.6204	 2.1675	-3.4529	59.6621	99.9776	
   904	-3.7754	 2.3188	-1.4568	-4.0142	 2.7720	-1.2422	-3.6267	 3.2105	-0.4163	60.9866	99.9769	
   905	-2.0356	 3.2585	 1.2228	-2.0859	 3.8464	 1.7605	-1.4943	 4.3627	 2.8685	61.4211	99.9757	
   906	-1.4020	 3.9259	 2.5238	-1.4058	 4.5175	 3.1117	-0.8054	 5.0165	 4.2111	61.4304	99.9771	
   907	-0.9572	 4.5210	 3.5637	-0.9221	 5.1307	 4.2086	-0.4283	 5.5517	 5.1234	61.2800	99.9834	
   908	-0.9112	 4.5201	 3.6087	-1.1812	 4.9206	 3.7395	-0.9988	 5.0496	 4.0508	61.5174	99.9877	
   909	-1.8610	 3.4681	 1.6070	-2.3230	 3.5616	 1.2386	-2.2817	 3.5034	 1.2217	62.5936	99.9866	
   910	-2.7929	 2.5732	-0.2198	-3.1247	 2.7526	-0.3722	-2.8753	 2.8101	-0.0652	62.8484	99.9832	
   911	-2.8565	 2.1837	-0.6729	-3.5775	 2.2089	-1.3686	-3.8087	 2.1020	-1.7067	62.2579	99.9883	
   912	-3.8245	 1.4417	-2.3829	-4.8215	 1.3417	-3.4798	-5.1691	 1.2693	-3.8999	61.7056	99.9830	
   913	-4.8217	 0.8424	-3.9793	-5.5889	 0.8689	-4.7199	-5.8234	 0.9023	-4.9211	61.6160	99.9851	
   914	-5.0373	 0.7097	-4.3276	-5.6860	 0.9100	-4.7760	-5.8249	 1.0670	-4.7579	61.1135	99.9854	
   915	-4.8974	 0.6206	-4.2768	-5.6670	 0.6821	-4.9849	-5.9702	 0.7548	-5.2154	61.3431	99.9865	
   916	-6.6055	-0.0659	-6.6715	-7.6397	 0.1729	-7.4669	-8.1213	 0.5297	-7.5915	58.2924	99.9822	
   917	-6.3160	 1.0905	-5.2256	-6.7992	 1.4976	-5.3016	-6.4783	 1.9488	-4.5296	59.9001	99.9715	
   918	-4.1301	 2.4071	-1.7231	-4.3308	 2.9173	-1.4135	-3.7509	 3.3423	-0.4086	61.0842	99.9737	
   919	-2.6155	 2.9452	 0.3296	-3.3038	 3.1844	-0.1194	-3.4039	 3.2842	-0.1197	60.8383	99.9850	
   920	-2.2330	 2.9325	 0.6994	-2.4094	 3.2437	 0.8343	-1.9554	 3.3881	 1.4327	62.9483	99.9812	
   921	-0.5564	 3.2492	 2.6927	-0.6831	 3.6389	 2.9559	-0.4205	 3.5905	 3.1700	63.6487	99.9902	
   922	-0.5753	 3.0770	 2.5017	-1.1984	 3.1576	 1.9592	-1.4005	 3.0631	 1.6625	62.8918	99.9893	
   923	-1.5896	 2.6862	 1.0965	-2.2279	 2.8512	 0.6233	-2.1663	 2.8469	 0.6806	62.6145	99.9825	
   924	-1.7243	 2.6178	 0.8934	-2.4292	 2.7146	 0.2854	-2.4252	 2.6511	 0.2259	62.7299	99.9828	
   925	-2.1697	 2.4897	 0.3199	-2.7105	 2.6799	-0.0306	-2.5820	 2.7182	 0.1362	62.5828	99.9824	
   926	-2.3173	 2.3404	 0.0230	-2.9436	 2.4607	-0.4828	-2.9737	 2.4169	-0.5569	62.5748	99.9854	
   927	-3.4641	 1.5614	-1.9028	-4.2393	 1.5112	-2.7280	-4.5741	 1.3229	-3.2512	62.5645	99.9901	
   928	-6.0207	 0.4401	-5.5808	-6.9394	 0.7430	-6.1964	-7.2391	 1.1504	-6.0887	58.6038	99.9792	
   929	-5.6193	 1.5486	-4.0708	-5.8863	 1.9591	-3.9271	-5.4768	 2.3572	-3.1196	60.7775	99.9762	
   930	-3.6908	 2.5607	-1.1302	-3.9709	 3.0381	-0.9328	-3.5580	 3.3973	-0.1607	60.9879	99.9782	
   931	-2.3711	 3.1687	 0.7976	-2.8129	 3.4868	 0.6738	-2.5949	 3.5496	 0.9546	61.8893	99.9840	
   932	-1.2783	 2.9946	 1.7163	-1.5239	 3.3731	 1.8492	-1.1074	 3.6338	 2.5264	62.6328	99.9787	
   933	-0.3199	 3.3511	 3.0311	-0.4290	 3.5559	 3.1269	-0.4533	 3.7135	 3.2602	63.0909	99.9912	
   934	-0.7859	 3.0203	 2.2343	-1.3410	 3.3219	 1.9809	-1.1319	 3.4196	 2.2878	62.5425	99.9802	
   935	-1.1405	 2.9919	 1.8513	-1.6016	 3.3000	 1.6985	-1.3712	 3.3576	 1.9864	62.7150	99.9828	
   936	-1.4063	 3.1495	 1.7431	-1.7198	 3.4289	 1.7091	-1.3868	 3.4804	 2.0936	63.0764	99.9829	
   937	-1.4156	 3.4795	 2.0639	-1.8636	 3.6808	 1.8172	-1.5584	 3.6818	 2.1233	62.8868	99.9805	
   938	-1.4867	 3.6840	 2.1972	-2.0139	 3.8277	 1.8138	-1.7674	 3.8377	 2.0703	62.5602	99.9790	
   939	-1.5787	 3.8025	 2.2238	-2.2204	 3.9274	 1.7071	-2.0036	 3.9211	 1.9175	62.2283	99.9772	
   940	-1.7046	 3.8710	 2.1663	-2.3720	 3.9475	 1.5755	-2.2296	 3.8896	 1.6600	62.2064	99.9793	
   941	-1.7825	 3.8523	 2.0697	-2.4611	 3.9053	 1.4442	-2.3206	 3.8103	 1.4897	62.3382	99.9796	
   942	-2.0168	 3.4306	 1.4138	-2.7617	 3.4553	 0.6936	-2.5962	 3.3389	 0.7427	62.5984	99.9772	
   943	-2.1743	 3.1293	 0.9549	-2.8155	 3.2330	 0.4175	-2.4369	 3.2181	 0.7813	62.8451	99.9717	
   944	-1.9266	 3.1649	 1.2382	-2.3455	 3.3082	 0.9627	-1.8760	 3.3718	 1.4958	63.2336	99.9731	
   945	-1.6570	 3.1849	 1.5278	-2.0800	 3.4088	 1.3287	-1.6855	 3.4804	 1.7949	62.9276	99.9771	
   946	-1.4783	 3.2219	 1.7436	-1.8889	 3.4887	 1.5998	-1.4926	 3.5354	 2.0428	62.9689	99.9789	
   947	-1.2536	 3.2581	 2.0044	-1.6490	 3.4977	 1.8487	-1.4132	 3.5190	 2.1059	62.9237	99.9837	
   948	-1.0688	 3.2696	 2.2007	-1.5694	 3.4964	 1.9270	-1.4251	 3.5115	 2.0864	62.6660	99.9838	
   949	-1.1377	 3.2710	 2.1331	-1.6120	 3.5584	 1.9464	-1.4195	 3.6034	 2.1838	62.5053	99.9835	
   950	-1.3962	 3.0680	 1.6717	-2.0240	 3.2415	 1.2175	-2.0699	 3.2057	 1.1358	62.2971	99.9862	
   951	-2.2048	 2.6579	 0.4530	-2.8185	 2.8655	 0.0470	-2.7175	 2.8540	 0.1366	62.3246	99.9831	
   952	-2.6349	 2.2909	-0.3441	-3.2720	 2.5231	-0.7489	-3.1953	 2.5538	-0.6415	62.0561	99.9828	
   953	-2.9383	 2.1041	-0.8343	-3.5424	 2.3439	-1.1985	-3.4606	 2.4423	-1.0183	61.8761	99.9820	
   954	-2.9712	 2.0692	-0.9021	-3.5701	 2.3269	-1.2432	-3.4845	 2.4273	-1.0572	61.8417	99.9823	
   955	-2.9782	 2.0795	-0.8988	-3.5571	 2.3223	-1.2348	-3.4719	 2.4463	-1.0256	61.8451	99.9819	
   956	-2.7945	 2.0758	-0.7187	-3.4022	 2.3547	-1.0475	-3.2810	 2.4668	-0.8142	61.8895	99.9812	
   957	-2.6706	 2.0937	-0.5771	-3.2948	 2.3704	-0.9245	-3.1657	 2.4730	-0.6928	61.9625	99.9808	
   958	-2.5937	 2.0972	-0.4966	-3.2542	 2.3828	-0.8714	-3.1200	 2.4685	-0.6515	61.9603	99.9804	
   959	-2.5628	 2.1017	-0.4612	-3.2221	 2.3648	-0.8573	-3.1088	 2.4646	-0.6442	61.9582	99.9802	
   960	-2.4869	 2.0900	-0.3970	-3.1814	 2.3772	-0.8042	-3.0511	 2.4677	-0.5835	61.9238	99.9796	
   961	-2.4559	 2.0945	-0.3615	-3.1546	 2.3811	-0.7734	-3.0279	 2.4712	-0.5567	61.9238	99.9796	
   962	-2.4259	 2.0837	-0.3423	-3.1164	 2.3542	-0.7621	-2.9843	 2.4323	-0.5520	62.0656	99.9796	
   963	-2.3960	 2.0730	-0.3231	-3.0713	 2.3316	-0.7397	-2.9724	 2.4398	-0.5325	61.9947	99.9798	
   964	-2.3580	 2.0671	-0.2910	-3.0245	 2.3352	-0.6893	-2.9260	 2.4469	-0.4791	61.9979	99.9802	
   965	-2.2042	 2.0742	-0.1301	-2.8583	 2.3368	-0.5215	-2.7193	 2.4442	-0.2751	62.2206	99.9792	
   966	-2.0744	 2.0665	-0.0079	-2.7396	 2.3216	-0.4179	-2.6054	 2.4274	-0.1779	62.2922	99.9789	
   967	-2.0214	 2.0553	 0.0338	-2.6745	 2.2986	-0.3759	-2.5597	 2.4230	-0.1367	62.2932	99.9790	
   968	-1.9545	 2.0235	 0.0690	-2.6477	 2.3026	-0.3451	-2.5041	 2.3917	-0.1125	62.3285	99.9789	
   969	-1.9245	 2.0128	 0.0882	-2.5904	 2.2622	-0.3282	-2.4936	 2.3762	-0.1174	62.3265	99.9796	
   970	-1.9025	 1.9971	 0.0945	-2.5652	 2.2399	-0.3253	-2.4492	 2.3488	-0.1004	62.4344	99.9791	
   971	-1.8436	 1.9604	 0.1168	-2.5331	 2.2219	-0.3112	-2.3937	 2.3175	-0.0762	62.4706	99.9785	
   972	-1.8375	 1.9349	 0.0973	-2.5278	 2.1999	-0.3279	-2.4056	 2.3100	-0.0957	62.3991	99.9787	
   973	-1.7606	 1.9385	 0.1777	-2.4343	 2.2071	-0.2272	-2.2559	 2.3157	 0.0598	62.5855	99.9774	
   974	-1.6318	 1.9156	 0.2837	-2.2896	 2.1828	-0.1069	-2.1300	 2.3064	 0.1764	62.6243	99.9779	
   975	-1.5788	 1.9044	 0.3254	-2.2506	 2.1690	-0.0816	-2.0864	 2.2675	 0.1811	62.7280	99.9781	
   976	-1.5498	 1.8784	 0.3285	-2.2193	 2.1378	-0.0815	-2.0653	 2.2366	 0.1713	62.7624	99.9783	
   977	-1.5209	 1.8525	 0.3315	-2.2010	 2.1113	-0.0898	-2.0435	 2.2172	 0.1737	62.7624	99.9777	
   978	-1.5148	 1.8270	 0.3120	-2.1949	 2.1024	-0.0925	-2.0336	 2.1903	 0.1566	62.7976	99.9785	
   979	-1.5158	 1.8118	 0.2958	-2.1905	 2.0673	-0.1232	-2.0575	 2.1752	 0.1177	62.7598	99.9785	
   980	-1.5248	 1.7916	 0.2667	-2.1921	 2.0411	-0.1510	-2.0484	 2.1368	 0.0885	62.8655	99.9785	
   981	-1.5178	 1.7813	 0.2635	-2.1722	 2.0408	-0.1314	-2.0020	 2.1439	 0.1419	62.9056	99.9780	
   982	-1.4109	 1.7741	 0.3631	-2.0527	 2.0387	-0.0139	-1.8986	 2.1426	 0.2439	62.9431	99.9789	
   983	-1.3660	 1.7580	 0.3920	-2.0137	 2.0249	 0.0113	-1.8656	 2.1191	 0.2536	62.9775	99.9792	
   984	-1.3889	 1.7585	 0.3694	-2.0283	 2.0033	-0.0250	-1.8775	 2.1116	 0.2341	63.0126	99.9785	
   985	-1.3679	 1.7276	 0.3596	-2.0291	 1.9902	-0.0389	-1.8789	 2.0887	 0.2098	62.9759	99.9786	
   986	-1.3759	 1.7227	 0.3467	-2.0490	 1.9905	-0.0585	-1.8909	 2.0812	 0.1903	62.9751	99.9784	
   987	-1.3769	 1.7075	 0.3305	-2.0629	 1.9820	-0.0808	-1.9035	 2.0622	 0.1587	62.9736	99.9785	
   988	-1.4149	 1.7133	 0.2984	-2.0966	 1.9738	-0.1228	-1.9492	 2.0666	 0.1174	62.9368	99.9783	
   989	-1.4378	 1.7138	 0.2758	-2.1165	 1.9742	-0.1424	-1.9492	 2.0666	 0.1174	62.9736	99.9778	
   990	-1.3909	 1.7281	 0.3371	-2.0230	 1.9814	-0.0417	-1.8564	 2.0807	 0.2243	63.0844	99.9786	
   991	-1.3459	 1.7119	 0.3659	-1.9970	 1.9722	-0.0249	-1.8339	 2.0728	 0.2389	63.0485	99.9784	
   992	-1.3689	 1.7124	 0.3434	-2.0178	 1.9594	-0.0584	-1.8803	 2.0657	 0.1854	63.0103	99.9787	
   993	-1.3839	 1.7178	 0.3338	-2.0369	 1.9728	-0.0640	-1.8915	 2.0697	 0.1781	63.0103	99.9789	
   994	-1.3839	 1.7178	 0.3338	-2.0629	 1.9820	-0.0808	-1.9140	 2.0776	 0.1636	62.9384	99.9784	
   995	-1.4139	 1.7285	 0.3145	-2.0698	 1.9778	-0.0920	-1.9260	 2.0701	 0.1441	63.0088	99.9788	
   996	-1.4438	 1.7393	 0.2953	-2.1348	 2.0007	-0.1341	-1.9717	 2.0745	 0.1029	62.9712	99.9782	
   997	-1.4588	 1.7446	 0.2857	-2.1348	 2.0007	-0.1341	-1.9823	 2.0900	 0.1078	62.9368	99.9783	
   998	-1.4119	 1.7589	 0.3469	-2.0673	 2.0171	-0.0502	-1.9225	 2.1275	 0.2050	62.9056	99.9785	
   999	-1.3959	 1.7688	 0.3727	-2.0466	 2.0299	-0.0167	-1.9106	 2.1350	 0.2245	62.9056	99.9791	
  1000	-1.4179	 1.7844	 0.3664	-2.0787	 2.0479	-0.0308	-1.9331	 2.1430	 0.2099	62.9048	99.9789	
  1001	-1.4249	 1.7947	 0.3697	-2.0787	 2.0479	-0.0308	-1.9436	 2.1585	 0.2148	62.8696	99.9787	
  1002	-1.4389	 1.8153	 0.3763	-2.1039	 2.0702	-0.0337	-1.9654	 2.1779	 0.2124	62.8336	99.9785	
  1003	-1.4459	 1.8256	 0.3796	-2.1230	 2.0837	-0.0393	-1.9774	 2.1704	 0.1930	62.8672	99.9786	
  1004	-1.4689	 1.8260	 0.3571	-2.1490	 2.0929	-0.0561	-2.0104	 2.1938	 0.1833	62.7615	99.9786	
  1005	-1.5049	 1.8623	 0.3573	-2.1742	 2.1152	-0.0590	-2.0316	 2.2247	 0.1931	62.7624	99.9782	
  1006	-1.4500	 1.8815	 0.4314	-2.0990	 2.1489	 0.0499	-1.9486	 2.2658	 0.3171	62.7683	99.9786	
  1007	-1.4030	 1.8958	 0.4926	-2.0514	 2.1656	 0.1142	-1.9082	 2.2691	 0.3609	62.8034	99.9792	
  1008	-1.4100	 1.9061	 0.4959	-2.0705	 2.1791	 0.1086	-1.9413	 2.2925	 0.3512	62.6963	99.9791	
  1009	-1.4311	 1.9369	 0.5058	-2.0697	 2.1922	 0.1225	-1.9399	 2.3154	 0.3756	62.7332	99.9790	
  1010	-1.4451	 1.9575	 0.5124	-2.0880	 2.2187	 0.1308	-1.9729	 2.3389	 0.3659	62.6612	99.9795	
  1011	-1.4371	 1.9624	 0.5253	-2.1071	 2.2322	 0.1251	-2.0060	 2.3623	 0.3563	62.5179	99.9792	
  1012	-1.4661	 1.9884	 0.5222	-2.1453	 2.2591	 0.1138	-2.0060	 2.3623	 0.3563	62.6243	99.9786	
  1013	-1.4731	 1.9987	 0.5255	-2.1765	 2.2902	 0.1137	-2.0271	 2.3932	 0.3661	62.5188	99.9782	
  1014	-1.4481	 2.0286	 0.5804	-2.1082	 2.3197	 0.2115	-1.9442	 2.4342	 0.4901	62.5971	99.9785	
  1015	-1.4002	 2.0581	 0.6578	-2.0338	 2.3403	 0.3065	-1.8971	 2.4528	 0.5557	62.6331	99.9798	
  1016	-1.3912	 2.0783	 0.6869	-2.0460	 2.3580	 0.3120	-1.9077	 2.4682	 0.5606	62.5962	99.9792	
  1017	-1.3982	 2.0886	 0.6902	-2.0643	 2.3846	 0.3203	-1.9340	 2.5069	 0.5728	62.4559	99.9792	
  1018	-1.4192	 2.1194	 0.7001	-2.0635	 2.3977	 0.3342	-1.9446	 2.5223	 0.5777	62.4910	99.9797	
  1019	-1.4332	 2.1400	 0.7067	-2.0948	 2.4289	 0.3341	-1.9777	 2.5457	 0.5681	62.4190	99.9797	
  1020	-1.4473	 2.1606	 0.7132	-2.1139	 2.4423	 0.3285	-1.9995	 2.5652	 0.5657	62.3829	99.9794	
  1021	-1.4613	 2.1812	 0.7198	-2.1521	 2.4692	 0.3172	-2.0206	 2.5961	 0.5755	62.3127	99.9783	
  1022	-1.4683	 2.1915	 0.7231	-2.1772	 2.4915	 0.3143	-2.0536	 2.6195	 0.5659	62.2054	99.9784	
  1023	-1.4733	 2.2322	 0.7588	-2.1289	 2.5213	 0.3925	-1.9872	 2.6723	 0.6850	62.2855	99.9782	
  1024	-1.4104	 2.2563	 0.8458	-2.0475	 2.5462	 0.4987	-1.9289	 2.6868	 0.7579	62.3215	99.9797	
  1025	-1.4164	 2.2818	 0.8653	-2.0780	 2.5905	 0.5125	-1.9395	 2.7023	 0.7628	62.3205	99.9797	
  1026	-1.4234	 2.2921	 0.8686	-2.0902	 2.6082	 0.5180	-1.9606	 2.7332	 0.7726	62.2154	99.9796	
  1027	-1.4444	 2.3229	 0.8784	-2.0963	 2.6170	 0.5208	-1.9711	 2.7487	 0.7775	62.2505	99.9795	
  1028	-1.4584	 2.3435	 0.8850	-2.1207	 2.6525	 0.5318	-2.0095	 2.7798	 0.7703	62.1434	99.9801	
  1029	-1.4724	 2.3641	 0.8916	-2.1519	 2.6836	 0.5317	-2.0425	 2.8032	 0.7607	62.0712	99.9801	
  1030	-1.4934	 2.3950	 0.9015	-2.1840	 2.7017	 0.5176	-2.0756	 2.8266	 0.7510	62.0341	99.9795	
  1031	-1.5154	 2.4106	 0.8951	-2.2214	 2.7417	 0.5203	-2.0861	 2.8421	 0.7559	62.0351	99.9795	
  1032	-1.5294	 2.4312	 0.9017	-2.2535	 2.7597	 0.5062	-2.1192	 2.8655	 0.7463	61.9629	99.9789	
  1033	-1.5195	 2.4665	 0.9470	-2.1921	 2.7849	 0.5928	-2.0535	 2.9068	 0.8533	62.0414	99.9794	
  1034	-1.4795	 2.4911	 1.0115	-2.1376	 2.8059	 0.6683	-2.0177	 2.9293	 0.9116	62.0425	99.9802	
  1035	-1.4785	 2.5063	 1.0277	-2.1628	 2.8282	 0.6654	-2.0507	 2.9527	 0.9020	61.9343	99.9799	
  1036	-1.4996	 2.5372	 1.0376	-2.1941	 2.8594	 0.6652	-2.0666	 2.9759	 0.9093	61.9343	99.9794	
  1037	-1.5136	 2.5578	 1.0441	-2.1933	 2.8725	 0.6792	-2.0771	 2.9913	 0.9142	61.9343	99.9799	
  1038	-1.5346	 2.5887	 1.0540	-2.2307	 2.9125	 0.6818	-2.0982	 3.0223	 0.9240	61.8992	99.9795	
  1039	-1.5416	 2.5989	 1.0573	-2.2429	 2.9302	 0.6873	-2.1088	 3.0377	 0.9289	61.8642	99.9795	
  1040	-1.5556	 2.6195	 1.0639	-2.2551	 2.9479	 0.6928	-2.1193	 3.0532	 0.9338	61.8642	99.9795	
  1041	-1.5766	 2.6504	 1.0737	-2.2863	 2.9791	 0.6927	-2.1577	 3.0843	 0.9266	61.7920	99.9795	
  1042	-1.5986	 2.6661	 1.0674	-2.3115	 3.0014	 0.6898	-2.1788	 3.1152	 0.9364	61.7230	99.9792	
  1043	-1.5966	 2.6965	 1.0998	-2.2969	 3.0230	 0.7261	-2.1707	 3.1534	 0.9827	61.6903	99.9791	
  1044	-1.5567	 2.7211	 1.1643	-2.2355	 3.0482	 0.8127	-2.1117	 3.1795	 1.0678	61.7298	99.9797	
  1045	-1.5627	 2.7466	 1.1838	-2.2538	 3.0748	 0.8210	-2.1500	 3.2106	 1.0606	61.6215	99.9799	
  1046	-1.5697	 2.7568	 1.1871	-2.2660	 3.0925	 0.8265	-2.1606	 3.2261	 1.0655	61.5865	99.9799	
  1047	-1.5907	 2.7877	 1.1969	-2.2972	 3.1236	 0.8264	-2.1712	 3.2415	 1.0704	61.6215	99.9795	
  1048	-1.6047	 2.8083	 1.2035	-2.3094	 3.1413	 0.8319	-2.1817	 3.2570	 1.0753	61.6215	99.9795	
  1049	-1.6337	 2.8343	 1.2005	-2.3346	 3.1636	 0.8290	-2.2148	 3.2804	 1.0656	61.5853	99.9797	
  1050	-1.6407	 2.8445	 1.2038	-2.3659	 3.1948	 0.8289	-2.2306	 3.3036	 1.0730	61.5153	99.9793	
  1051	-1.6547	 2.8651	 1.2103	-2.3789	 3.1994	 0.8205	-2.2524	 3.3230	 1.0706	61.4791	99.9789	
  1052	-1.6687	 2.8857	 1.2169	-2.3972	 3.2260	 0.8288	-2.2855	 3.3464	 1.0609	61.4066	99.9795	
  1053	-1.6827	 2.9063	 1.2235	-2.3964	 3.2391	 0.8427	-2.2894	 3.3771	 1.0877	61.3741	99.9793	
  1054	-1.6507	 2.9260	 1.2751	-2.3671	 3.2823	 0.9153	-2.2303	 3.4032	 1.1728	61.4152	99.9793	
  1055	-1.6418	 2.9461	 1.3042	-2.3654	 3.3086	 0.9431	-2.2462	 3.4263	 1.1802	61.3428	99.9799	
  1056	-1.6558	 2.9667	 1.3108	-2.3975	 3.3266	 0.9291	-2.2792	 3.4497	 1.1705	61.2704	99.9793	
  1057	-1.6698	 2.9872	 1.3174	-2.4097	 3.3443	 0.9346	-2.2898	 3.4652	 1.1754	61.2704	99.9793	
  1058	-1.6978	 3.0284	 1.3305	-2.4280	 3.3709	 0.9429	-2.2937	 3.4959	 1.2022	61.3079	99.9787	
  1059	-1.6978	 3.0284	 1.3305	-2.4402	 3.3886	 0.9484	-2.3267	 3.5193	 1.1926	61.1654	99.9792	
  1060	-1.7118	 3.0490	 1.3371	-2.4524	 3.4063	 0.9539	-2.3373	 3.5348	 1.1975	61.1654	99.9792	
  1061	-1.7328	 3.0798	 1.3470	-2.4837	 3.4374	 0.9538	-2.3531	 3.5579	 1.2048	61.1654	99.9788	
  1062	-1.7468	 3.1004	 1.3535	-2.5089	 3.4598	 0.9509	-2.3637	 3.5734	 1.2097	61.1654	99.9783	
  1063	-1.7378	 3.1206	 1.3826	-2.4735	 3.4942	 1.0207	-2.3549	 3.6231	 1.2682	61.0644	99.9796	
  1064	-1.6979	 3.1451	 1.4471	-2.4190	 3.5151	 1.0961	-2.3244	 3.6533	 1.3290	61.0308	99.9803	
  1065	-1.7049	 3.1554	 1.4504	-2.4572	 3.5420	 1.0848	-2.3349	 3.6688	 1.3339	60.9959	99.9794	
  1066	-1.7259	 3.1863	 1.4603	-2.4694	 3.5597	 1.0904	-2.3455	 3.6842	 1.3388	61.0308	99.9794	
  1067	-1.7399	 3.2069	 1.4669	-2.4816	 3.5774	 1.0959	-2.3613	 3.7074	 1.3461	60.9959	99.9793	
  1068	-1.7389	 3.2221	 1.4831	-2.4877	 3.5863	 1.0986	-2.3719	 3.7229	 1.3510	60.9596	99.9790	
  1069	-1.7529	 3.2427	 1.4896	-2.5120	 3.6217	 1.1097	-2.4049	 3.7463	 1.3414	60.8869	99.9796	
  1070	-1.7669	 3.2632	 1.4962	-2.5311	 3.6352	 1.1040	-2.4208	 3.7695	 1.3487	60.8520	99.9790	
  1071	-1.7879	 3.2941	 1.5061	-2.5685	 3.6752	 1.1067	-2.4313	 3.7849	 1.3536	60.8869	99.9787	
  1072	-1.7869	 3.3093	 1.5223	-2.5469	 3.7011	 1.1541	-2.3888	 3.8227	 1.4339	60.8966	99.9784	
  1073	-1.7320	 3.3285	 1.5964	-2.4604	 3.7040	 1.2436	-2.3351	 3.8565	 1.5214	60.8658	99.9790	
  1074	-1.7231	 3.3486	 1.6255	-2.4717	 3.7348	 1.2631	-2.3509	 3.8797	 1.5288	60.7933	99.9791	
  1075	-1.7371	 3.3692	 1.6321	-2.4778	 3.7436	 1.2658	-2.3614	 3.8951	 1.5337	60.7933	99.9790	
  1076	-1.7431	 3.3947	 1.6515	-2.4762	 3.7699	 1.2937	-2.3720	 3.9106	 1.5386	60.7919	99.9798	
  1077	-1.7501	 3.4050	 1.6548	-2.5144	 3.7968	 1.2824	-2.3878	 3.9338	 1.5459	60.7221	99.9789	
  1078	-1.7641	 3.4256	 1.6614	-2.5326	 3.8233	 1.2907	-2.3984	 3.9492	 1.5508	60.7221	99.9790	
  1079	-1.7781	 3.4462	 1.6680	-2.5457	 3.8279	 1.2823	-2.3984	 3.9492	 1.5508	60.7919	99.9784	
  1080	-1.7851	 3.4565	 1.6713	-2.5830	 3.8679	 1.2849	-2.4473	 3.9958	 1.5485	60.5796	99.9785	
  1081	-1.7981	 3.4923	 1.6940	-2.5355	 3.8846	 1.3492	-2.3942	 4.0181	 1.6239	60.7292	99.9792	
  1082	-1.7282	 3.5061	 1.7778	-2.4741	 3.9098	 1.4358	-2.3683	 4.0676	 1.6993	60.5550	99.9797	
  1083	-1.7272	 3.5213	 1.7940	-2.4732	 3.9230	 1.4497	-2.3683	 4.0676	 1.6993	60.5884	99.9800	
  1084	-1.7412	 3.5419	 1.8005	-2.4923	 3.9364	 1.4441	-2.4013	 4.0910	 1.6897	60.5157	99.9799	
  1085	-1.7552	 3.5625	 1.8071	-2.4915	 3.9495	 1.4580	-2.3894	 4.0985	 1.7091	60.5884	99.9799	
  1086	-1.7762	 3.5933	 1.8170	-2.5037	 3.9672	 1.4635	-2.4052	 4.1217	 1.7165	60.5884	99.9798	
  1087	-1.7753	 3.6085	 1.8332	-2.5289	 3.9895	 1.4606	-2.4052	 4.1217	 1.7165	60.6218	99.9792	
  1088	-1.7972	 3.6242	 1.8269	-2.5472	 4.0161	 1.4689	-2.4488	 4.1605	 1.7117	60.4809	99.9799	
  1089	-1.8042	 3.6345	 1.8301	-2.5724	 4.0384	 1.4660	-2.4647	 4.1837	 1.7191	60.4111	99.9794	
  1090	-1.7953	 3.6546	 1.8592	-2.5577	 4.0600	 1.5023	-2.4235	 4.1985	 1.7750	60.4868	99.9790	
  1091	-1.7553	 3.6792	 1.9237	-2.4963	 4.0852	 1.5889	-2.3810	 4.2363	 1.8552	60.4565	99.9797	
  1092	-1.7394	 3.6890	 1.9495	-2.4955	 4.0984	 1.6029	-2.3810	 4.2363	 1.8552	60.4535	99.9798	
  1093	-1.7614	 3.7047	 1.9432	-2.5016	 4.1072	 1.6056	-2.3969	 4.2594	 1.8626	60.4202	99.9800	
  1094	-1.7604	 3.7199	 1.9594	-2.5138	 4.1249	 1.6111	-2.4074	 4.2749	 1.8675	60.3839	99.9797	
  1095	-1.7894	 3.7458	 1.9564	-2.5390	 4.1472	 1.6082	-2.4458	 4.3060	 1.8603	60.3127	99.9799	
  1096	-1.7894	 3.7458	 1.9564	-2.5520	 4.1518	 1.5998	-2.4458	 4.3060	 1.8603	60.3127	99.9794	
  1097	-1.8114	 3.7615	 1.9501	-2.5520	 4.1518	 1.5998	-2.4788	 4.3294	 1.8506	60.2415	99.9800	
  1098	-1.8114	 3.7615	 1.9501	-2.6154	 4.2010	 1.5856	-2.5172	 4.3606	 1.8434	60.0642	99.9792	
  1099	-1.8394	 3.8027	 1.9632	-2.6076	 4.2184	 1.6107	-2.4933	 4.3756	 1.8823	60.2098	99.9792	
  1100	-1.7844	 3.8219	 2.0373	-2.5316	 4.2652	 1.7336	-2.4262	 4.4398	 2.0137	60.1166	99.9801	
  1101	-1.7445	 3.8465	 2.1018	-2.4580	 4.2727	 1.8147	-2.3851	 4.4546	 2.0696	60.1529	99.9812	
  1102	-1.7356	 3.8666	 2.1309	-2.4954	 4.3128	 1.8174	-2.4009	 4.4778	 2.0769	60.0803	99.9804	
  1103	-1.7496	 3.8872	 2.1375	-2.4816	 4.3213	 1.8397	-2.4048	 4.5085	 2.1037	60.0487	99.9807	
  1104	-1.7556	 3.9127	 2.1570	-2.4929	 4.3521	 1.8592	-2.3928	 4.5160	 2.1232	60.1198	99.9806	
  1105	-1.7406	 3.9073	 2.1666	-2.4860	 4.3564	 1.8703	-2.4034	 4.5315	 2.1281	60.0140	99.9808	
  1106	-1.7616	 3.9382	 2.1765	-2.5112	 4.3787	 1.8674	-2.4192	 4.5547	 2.1354	60.0140	99.9803	
  1107	-1.7756	 3.9587	 2.1830	-2.5104	 4.3918	 1.8814	-2.4298	 4.5701	 2.1403	60.0140	99.9808	
  1108	-1.7966	 3.9896	 2.1929	-2.5478	 4.4318	 1.8840	-2.4456	 4.5933	 2.1477	60.0140	99.9804	
  1109	-1.7647	 4.0093	 2.2445	-2.4864	 4.4570	 1.9706	-2.3746	 4.6269	 2.2522	60.0600	99.9807	
  1110	-1.6868	 4.0280	 2.3411	-2.3860	 4.4684	 2.0825	-2.3269	 4.6569	 2.3300	59.9907	99.9820	
  1111	-1.6858	 4.0432	 2.3573	-2.3981	 4.4861	 2.0880	-2.3374	 4.6724	 2.3349	59.9544	99.9818	
  1112	-1.6848	 4.0584	 2.3735	-2.3973	 4.4993	 2.1019	-2.3307	 4.6876	 2.3568	59.9560	99.9815	
  1113	-1.6838	 4.0736	 2.3897	-2.3965	 4.5124	 2.1159	-2.3571	 4.7262	 2.3691	59.8158	99.9816	
  1114	-1.6898	 4.0991	 2.4092	-2.4209	 4.5478	 2.1269	-2.3677	 4.7417	 2.3740	59.8141	99.9815	
  1115	-1.7038	 4.1197	 2.4158	-2.4261	 4.5697	 2.1436	-2.3610	 4.7569	 2.3959	59.8521	99.9816	
  1116	-1.7178	 4.1403	 2.4223	-2.4513	 4.5921	 2.1407	-2.3610	 4.7569	 2.3959	59.9214	99.9812	
  1117	-1.7318	 4.1609	 2.4289	-2.4513	 4.5921	 2.1407	-2.3941	 4.7803	 2.3862	59.8488	99.9815	
  1118	-1.7388	 4.1712	 2.4322	-2.4757	 4.6275	 2.1518	-2.4033	 4.8187	 2.4155	59.7482	99.9811	
  1119	-1.6989	 4.1957	 2.4967	-2.4074	 4.6569	 2.2495	-2.3210	 4.8483	 2.5273	59.8291	99.9814	
  1120	-1.6140	 4.2042	 2.5901	-2.3078	 4.6553	 2.3475	-2.2687	 4.8591	 2.5905	59.7929	99.9825	
  1121	-1.6131	 4.2194	 2.6063	-2.3192	 4.6861	 2.3669	-2.2845	 4.8823	 2.5978	59.7220	99.9828	
  1122	-1.6271	 4.2400	 2.6128	-2.3184	 4.6992	 2.3808	-2.3109	 4.9210	 2.6101	59.6183	99.9831	
  1123	-1.6191	 4.2449	 2.6257	-2.3305	 4.7169	 2.3864	-2.3109	 4.9210	 2.6101	59.6165	99.9830	
  1124	-1.6401	 4.2758	 2.6356	-2.3305	 4.7169	 2.3864	-2.3214	 4.9364	 2.6150	59.6511	99.9828	
  1125	-1.6621	 4.2914	 2.6293	-2.3679	 4.7569	 2.3890	-2.3214	 4.9364	 2.6150	59.7220	99.9829	
  1126	-1.6761	 4.3120	 2.6359	-2.3679	 4.7569	 2.3890	-2.3373	 4.9596	 2.6223	59.6874	99.9827	
  1127	-1.6761	 4.3120	 2.6359	-2.3931	 4.7792	 2.3861	-2.3644	 4.9868	 2.6224	59.5474	99.9825	
  1128	-1.6901	 4.3326	 2.6424	-2.4252	 4.7973	 2.3720	-2.3644	 4.9868	 2.6224	59.6165	99.9816	
  1129	-1.7041	 4.3532	 2.6490	-2.4374	 4.8150	 2.3776	-2.3795	 5.0214	 2.6419	59.5491	99.9813	
  1130	-1.6412	 4.3773	 2.7360	-2.3292	 4.8438	 2.5145	-2.2906	 5.0663	 2.7757	59.5613	99.9825	
  1131	-1.5713	 4.3911	 2.8198	-2.2748	 4.8647	 2.5900	-2.2614	 5.0736	 2.8121	59.5215	99.9833	
  1132	-1.5853	 4.4117	 2.8263	-2.2870	 4.8824	 2.5955	-2.2945	 5.0970	 2.8025	59.4489	99.9837	
  1133	-1.6003	 4.4171	 2.8167	-2.3000	 4.8870	 2.5871	-2.2945	 5.0970	 2.8025	59.4852	99.9835	
  1134	-1.6082	 4.4122	 2.8038	-2.3260	 4.8962	 2.5703	-2.3170	 5.1049	 2.7879	59.4143	99.9833	
  1135	-1.6302	 4.4278	 2.7975	-2.3650	 4.9100	 2.5450	-2.3395	 5.1129	 2.7734	59.4126	99.9826	
  1136	-1.6602	 4.4386	 2.7783	-2.3910	 4.9192	 2.5282	-2.3395	 5.1129	 2.7734	59.4852	99.9822	
  1137	-1.6672	 4.4489	 2.7816	-2.3910	 4.9192	 2.5282	-2.3778	 5.1440	 2.7662	59.3434	99.9825	
  1138	-1.6962	 4.4748	 2.7785	-2.4223	 4.9504	 2.5281	-2.3778	 5.1440	 2.7662	59.4489	99.9824	
  1139	-1.6962	 4.4748	 2.7785	-2.4353	 4.9550	 2.5197	-2.3884	 5.1595	 2.7711	59.3798	99.9819	
  1140	-1.7102	 4.4954	 2.7851	-2.4475	 4.9727	 2.5252	-2.4201	 5.2058	 2.7858	59.2416	99.9817	
  1141	-1.6633	 4.5097	 2.8463	-2.3662	 4.9975	 2.6314	-2.3273	 5.2199	 2.8927	59.3578	99.9826	
  1142	-1.6004	 4.5338	 2.9333	-2.3239	 5.0362	 2.7123	-2.2862	 5.2347	 2.9486	59.3560	99.9830	
  1143	-1.6074	 4.5441	 2.9366	-2.3369	 5.0408	 2.7039	-2.3087	 5.2427	 2.9340	59.3179	99.9829	
  1144	-1.6214	 4.5647	 2.9432	-2.3491	 5.0585	 2.7095	-2.3245	 5.2659	 2.9414	59.2834	99.9829	
  1145	-1.6134	 4.5696	 2.9561	-2.3482	 5.0716	 2.7234	-2.3284	 5.2966	 2.9682	59.1817	99.9826	
  1146	-1.6274	 4.5902	 2.9627	-2.3734	 5.0939	 2.7205	-2.3509	 5.3045	 2.9536	59.1780	99.9827	
  1147	-1.6494	 4.6059	 2.9564	-2.3864	 5.0985	 2.7121	-2.3667	 5.3277	 2.9610	59.1454	99.9823	
  1148	-1.6564	 4.6161	 2.9597	-2.3986	 5.1162	 2.7176	-2.3892	 5.3357	 2.9464	59.1071	99.9829	
  1149	-1.6714	 4.6215	 2.9500	-2.4116	 5.1208	 2.7092	-2.3892	 5.3357	 2.9464	59.1435	99.9826	
  1150	-1.6934	 4.6372	 2.9437	-2.4376	 5.1300	 2.6924	-2.3892	 5.3357	 2.9464	59.2144	99.9820	
  1151	-1.7074	 4.6578	 2.9503	-2.4490	 5.1608	 2.7118	-2.3864	 5.3816	 2.9951	59.1528	99.9815	
  1152	-1.6375	 4.6716	 3.0340	-2.3417	 5.1765	 2.8349	-2.3162	 5.4037	 3.0875	59.1583	99.9831	
  1153	-1.6065	 4.6761	 3.0694	-2.3348	 5.1808	 2.8460	-2.3162	 5.4037	 3.0875	59.1183	99.9829	
  1154	-1.6215	 4.6814	 3.0598	-2.3677	 5.1857	 2.8180	-2.3162	 5.4037	 3.0875	59.1546	99.9817	
  1155	-1.6365	 4.6868	 3.0502	-2.3738	 5.1946	 2.8208	-2.3162	 5.4037	 3.0875	59.1909	99.9820	
  1156	-1.6515	 4.6922	 3.0406	-2.3807	 5.1903	 2.8096	-2.3545	 5.4348	 3.0803	59.0512	99.9821	
  1157	-1.6595	 4.6873	 3.0277	-2.4067	 5.1995	 2.7928	-2.3612	 5.4196	 3.0584	59.0838	99.9820	
  1158	-1.6974	 4.6931	 2.9956	-2.4335	 5.1956	 2.7620	-2.3837	 5.4275	 3.0438	59.0857	99.9817	
  1159	-1.7124	 4.6985	 2.9860	-2.4596	 5.2048	 2.7452	-2.4128	 5.4202	 3.0074	59.0801	99.9820	
  1160	-1.7204	 4.6936	 2.9731	-2.4726	 5.2094	 2.7368	-2.4287	 5.4434	 3.0147	58.9785	99.9817	
  1161	-1.7424	 4.7092	 2.9668	-2.4856	 5.2140	 2.7284	-2.4287	 5.4434	 3.0147	59.0494	99.9814	
  1162	-1.6954	 4.7235	 3.0280	-2.4242	 5.2392	 2.8150	-2.3517	 5.4807	 3.1290	59.0625	99.9812	
  1163	-1.6325	 4.7476	 3.1150	-2.3307	 5.2464	 2.9157	-2.2821	 5.4913	 3.2092	59.1350	99.9821	
  1164	-1.6325	 4.7476	 3.1150	-2.3567	 5.2555	 2.8989	-2.3159	 5.5032	 3.1874	59.0262	99.9819	
  1165	-1.6405	 4.7427	 3.1021	-2.3697	 5.2601	 2.8905	-2.3384	 5.5112	 3.1728	58.9555	99.9821	
  1166	-1.6475	 4.7530	 3.1054	-2.3697	 5.2601	 2.8905	-2.3384	 5.5112	 3.1728	58.9899	99.9821	
  1167	-1.6475	 4.7530	 3.1054	-2.3827	 5.2647	 2.8820	-2.3384	 5.5112	 3.1728	58.9899	99.9817	
  1168	-1.6775	 4.7638	 3.0861	-2.4087	 5.2739	 2.8652	-2.3609	 5.5191	 3.1583	58.9899	99.9817	
  1169	-1.6775	 4.7638	 3.0861	-2.4225	 5.2654	 2.8429	-2.3834	 5.5271	 3.1437	58.9173	99.9810	
  1170	-1.7005	 4.7642	 3.0636	-2.4355	 5.2700	 2.8345	-2.3834	 5.5271	 3.1437	58.9555	99.9811	
  1171	-1.7075	 4.7745	 3.0669	-2.4615	 5.2792	 2.8176	-2.4059	 5.5350	 3.1292	58.9173	99.9806	
  1172	-1.7075	 4.7745	 3.0669	-2.4599	 5.3054	 2.8455	-2.3939	 5.5426	 3.1486	58.9211	99.9813	
  1173	-1.6526	 4.7937	 3.1410	-2.3656	 5.3257	 2.9601	-2.2991	 5.5911	 3.2921	58.9383	99.9815	
  1174	-1.5907	 4.8026	 3.2119	-2.3127	 5.3204	 3.0077	-2.2766	 5.5832	 3.3066	58.9306	99.9819	
  1175	-1.5986	 4.7977	 3.1990	-2.3518	 5.3342	 2.9825	-2.2766	 5.5832	 3.3066	58.9325	99.9808	
  1176	-1.6056	 4.8080	 3.2023	-2.3518	 5.3342	 2.9825	-2.2924	 5.6064	 3.3140	58.8638	99.9807	
  1177	-1.6047	 4.8232	 3.2184	-2.3761	 5.3696	 2.9935	-2.2924	 5.6064	 3.3140	58.8963	99.9807	
  1178	-1.5967	 4.8281	 3.2313	-2.3501	 5.3604	 3.0103	-2.2857	 5.6216	 3.3359	58.8638	99.9807	
  1179	-1.5957	 4.8433	 3.2475	-2.3623	 5.3782	 3.0159	-2.2738	 5.6291	 3.3553	58.9001	99.9801	
  1180	-1.6167	 4.8742	 3.2574	-2.3607	 5.4044	 3.0437	-2.2896	 5.6523	 3.3627	58.9001	99.9810	
  1181	-1.6087	 4.8791	 3.2703	-2.3859	 5.4267	 3.0408	-2.3055	 5.6755	 3.3700	58.7952	99.9804	
  1182	-1.6147	 4.9046	 3.2898	-2.3720	 5.4352	 3.0632	-2.2988	 5.6907	 3.3919	58.8314	99.9805	
  1183	-1.5678	 4.9189	 3.3510	-2.3297	 5.4739	 3.1441	-2.2443	 5.7360	 3.4916	58.7725	99.9804	
  1184	-1.5129	 4.9381	 3.4251	-2.2301	 5.4722	 3.2421	-2.1635	 5.7426	 3.5791	58.8830	99.9813	
  1185	-1.4889	 4.9528	 3.4638	-2.2415	 5.5030	 3.2615	-2.1568	 5.7578	 3.6010	58.8469	99.9807	
  1186	-1.4879	 4.9681	 3.4800	-2.2025	 5.4892	 3.2867	-2.1495	 5.7845	 3.6351	58.8165	99.9808	
  1187	-1.4870	 4.9833	 3.4962	-2.2138	 5.5200	 3.3062	-2.1270	 5.7766	 3.6496	58.9211	99.9809	
  1188	-1.4710	 4.9931	 3.5220	-2.2000	 5.5286	 3.3285	-2.1203	 5.7918	 3.6715	58.8869	99.9808	
  1189	-1.4630	 4.9980	 3.5349	-2.2252	 5.5509	 3.3256	-2.1361	 5.8150	 3.6789	58.7822	99.9801	
  1190	-1.4850	 5.0137	 3.5286	-2.2122	 5.5463	 3.3341	-2.1136	 5.8071	 3.6934	58.9249	99.9804	
  1191	-1.4770	 5.0186	 3.5415	-2.2244	 5.5640	 3.3396	-2.1295	 5.8302	 3.7008	58.8203	99.9801	
  1192	-1.4760	 5.0338	 3.5577	-2.2366	 5.5817	 3.3451	-2.1228	 5.8455	 3.7227	58.8223	99.9794	
  1193	-1.4371	 5.0432	 3.6060	-2.1691	 5.5980	 3.4290	-2.0525	 5.8676	 3.8150	58.8680	99.9799	
  1194	-1.3822	 5.0624	 3.6801	-2.1024	 5.6013	 3.4989	-2.0121	 5.8709	 3.8588	58.9002	99.9806	
  1195	-1.3752	 5.0521	 3.6768	-2.1154	 5.6059	 3.4905	-2.0121	 5.8709	 3.8588	58.8661	99.9802	
  1196	-1.3902	 5.0575	 3.6672	-2.1162	 5.5928	 3.4765	-2.0458	 5.8828	 3.8369	58.7939	99.9805	
  1197	-1.3981	 5.0525	 3.6543	-2.1423	 5.6020	 3.4597	-2.0683	 5.8907	 3.8224	58.7235	99.9803	
  1198	-1.4141	 5.0427	 3.6285	-2.1691	 5.5980	 3.4290	-2.0817	 5.8603	 3.7786	58.7881	99.9804	
  1199	-1.4301	 5.0329	 3.6027	-2.1959	 5.5941	 3.3982	-2.0936	 5.8528	 3.7591	58.7881	99.9800	
  1200	-1.4680	 5.0387	 3.5706	-2.2227	 5.5902	 3.3674	-2.1453	 5.8534	 3.7081	58.7480	99.9806	
  1201	-1.4690	 5.0235	 3.5544	-2.2244	 5.5640	 3.3396	-2.1520	 5.8382	 3.6862	58.7460	99.9803	
  1202	-1.4920	 5.0240	 3.5319	-2.2504	 5.5732	 3.3228	-2.1520	 5.8382	 3.6862	58.7842	99.9799	
  1203	-1.4680	 5.0387	 3.5706	-2.1959	 5.5941	 3.3982	-2.0975	 5.8835	 3.7859	58.7636	99.9801	
  1204	-1.3832	 5.0472	 3.6639	-2.1024	 5.6013	 3.4989	-2.0279	 5.8941	 3.8661	58.7655	99.9808	
  1205	-1.3752	 5.0521	 3.6768	-2.0902	 5.5836	 3.4934	-2.0121	 5.8709	 3.8588	58.8661	99.9805	
  1206	-1.3762	 5.0369	 3.6606	-2.1162	 5.5928	 3.4765	-2.0525	 5.8676	 3.8150	58.7558	99.9811	
  1207	-1.3991	 5.0373	 3.6381	-2.1301	 5.5843	 3.4542	-2.0367	 5.8444	 3.8077	58.8964	99.9807	
  1208	-1.4071	 5.0324	 3.6252	-2.1561	 5.5934	 3.4374	-2.0750	 5.8755	 3.8005	58.7235	99.9804	
  1209	-1.3134	 5.1777	 3.8643	-1.9299	 5.8084	 3.8785	-1.7364	 6.1546	 4.4182	58.8104	99.9799	
  1210	-0.8692	 5.4074	 4.5381	-1.4847	 6.0197	 4.5350	-1.3934	 6.3149	 4.9215	58.8779	99.9835	
  1211	-0.8372	 5.4271	 4.5897	-1.4847	 6.0197	 4.5350	-1.4001	 6.2996	 4.8996	58.9004	99.9830	
  1212	-0.6716	 5.6166	 4.9449	-1.2110	 6.2513	 5.0404	-1.0150	 6.5858	 5.5707	59.0454	99.9818	
  1213	-0.3073	 5.7971	 5.4898	-0.7966	 6.3931	 5.5964	-0.6324	 6.7379	 6.1055	59.2373	99.9826	
  1214	-0.1065	 5.8185	 5.7118	-0.6174	 6.3901	 5.7727	-0.5378	 6.6869	 6.1491	59.3164	99.9849	
  1215	-0.2283	 5.7143	 5.4860	-0.8178	 6.2666	 5.4487	-0.7608	 6.5136	 5.7527	59.3097	99.9847	
  1216	-0.4668	 5.5821	 5.1151	-1.1057	 6.1270	 5.0213	-1.0574	 6.3603	 5.3029	59.2102	99.9841	
  1217	-0.8221	 5.3049	 4.4827	-1.5893	 5.7283	 4.1390	-1.6226	 5.8505	 4.2279	59.4462	99.9840	
  1218	-1.3920	 4.9103	 3.5182	-2.1761	 5.3794	 3.2033	-2.1996	 5.6205	 3.4209	58.9077	99.9817	
  1219	-1.5667	 4.8174	 3.2506	-2.3379	 5.3427	 3.0048	-2.3282	 5.5838	 3.2556	58.8101	99.9822	
  1220	-1.6436	 4.8138	 3.1701	-2.3916	 5.3349	 2.9433	-2.3739	 5.5883	 3.2143	58.8140	99.9821	
  1221	-1.6586	 4.8192	 3.1605	-2.4306	 5.3487	 2.9181	-2.3964	 5.5962	 3.1998	58.7776	99.9815	
  1222	-1.6736	 4.8246	 3.1509	-2.4566	 5.3579	 2.9012	-2.4070	 5.6117	 3.2047	58.7451	99.9807	
  1223	-1.6886	 4.8300	 3.1413	-2.4566	 5.3579	 2.9012	-2.4520	 5.6276	 3.1756	58.6359	99.9818	
  1224	-1.6946	 4.8554	 3.1608	-2.4420	 5.3795	 2.9375	-2.3982	 5.6613	 3.2631	58.7206	99.9808	
