OxySoft export of:	C:\Users\TO3 TechSupport\Documents\Train2Adapt\T2A_37
Export date:	2022/09/09 12:56:12
Start of measurement:	2022-09-09 11:40:16.944

Datafile sample rate:	10.00	Hz
Datafile duration:	4015.200	s
Datafile total number of samples:	40152

Description:	

Optode-template:	PortaMon TSI Fit Factor
Optode distance (mm):	 35.00
Optode gradients (mm):	 5.00
DPF:	6.56

Device id:	291
# Receivers:	1
# Light sources:	6
# ADC:	2

Light source wavelengths:
device	index	wavelength
1	1	847	nm
1	2	761	nm
1	3	848	nm
1	4	761	nm
1	5	848	nm
1	6	762	nm

Export sample rate:	10.00	Hz
Selected time span:	0	4015.200
Selected time span (sample numbers):	0	40152


Legend:
Column	Trace (Measurement)
1	(Sample number)
2	Rx1-Tx1 O2Hb (T2A_37)
3	Rx1-Tx1 HHb (T2A_37)
4	Rx1-Tx1 tHb (T2A_37)
5	Rx1-Tx2 O2Hb (T2A_37)
6	Rx1-Tx2 HHb (T2A_37)
7	Rx1-Tx2 tHb (T2A_37)
8	Rx1-Tx3 O2Hb (T2A_37)
9	Rx1-Tx3 HHb (T2A_37)
10	Rx1-Tx3 tHb (T2A_37)
11	Rx1-Tx1,Tx2,Tx3 TSI% (T2A_37)
12	Rx1-Tx1,Tx2,Tx3 TSI Fit Factor (T2A_37)
13	(Event)


1	2	3	4	5	6	7	8	9	10	11	12	13
     0	117.1183	53.6465	170.7648	92.8839	39.7547	132.6386	76.2967	34.6323	110.9291	43.7250	98.5201	
     1	 0.0691	 0.0126	 0.0816	 0.0454	 0.0028	 0.0483	-0.0270	 0.0274	 0.0004	58.3894	99.9575	
     2	 0.0533	 0.0031	 0.0565	 0.0074	 0.0168	 0.0243	-0.0399	-0.0023	-0.0422	58.4579	99.9548	
     3	 0.0070	-0.0102	-0.0032	-0.0336	-0.0203	-0.0538	-0.0751	-0.0236	-0.0987	58.4922	99.9571	
     4	 0.0140	-0.0204	-0.0064	 0.0216	-0.0733	-0.0516	-0.0733	 0.0102	-0.0631	58.3529	99.9618	
     5	 0.0761	 0.0024	 0.0784	 0.0282	 0.0418	 0.0701	 0.0287	 0.0064	 0.0352	58.5464	99.9543	
     6	 0.0700	 0.0275	 0.0974	 0.0163	 0.0592	 0.0757	-0.0370	 0.0541	 0.0171	58.3164	99.9549	
     7	 0.0315	 0.0188	 0.0503	 0.0081	 0.0296	 0.0379	-0.0270	 0.0274	 0.0004	58.4690	99.9560	
     8	 0.0525	-0.0118	 0.0407	 0.0126	-0.0047	 0.0080	-0.0334	 0.0125	-0.0209	58.3916	99.9575	
     9	 0.0288	-0.0259	 0.0029	-0.0209	-0.0250	-0.0458	-0.0510	 0.0019	-0.0492	58.3916	99.9592	
    10	 0.0446	-0.0165	 0.0281	-0.0425	 0.0483	 0.0059	-0.0557	 0.0209	-0.0348	58.3164	99.9540	
    11	 0.0017	 0.0298	 0.0315	-0.0127	 0.0047	-0.0080	-0.0111	 0.0041	-0.0070	58.6557	99.9589	
    12	 0.0297	-0.0110	 0.0187	-0.0306	 0.0309	 0.0004	-0.0716	 0.0441	-0.0275	58.2457	99.9563	
    13	-0.0079	-0.0047	-0.0126	-0.0679	 0.0577	-0.0101	-0.0240	-0.0255	-0.0496	58.6536	99.9516	
    14	 0.0070	-0.0102	-0.0032	-0.0299	 0.0436	 0.0139	-0.0557	 0.0209	-0.0348	58.3961	99.9532	
    15	 0.0079	 0.0047	 0.0125	 0.0245	-0.0222	 0.0025	-0.0111	 0.0041	-0.0070	58.5850	99.9587	
    16	 0.0227	-0.0008	 0.0219	 0.0126	-0.0047	 0.0080	 0.0206	-0.0423	-0.0217	58.7651	99.9555	
    17	 0.0516	-0.0267	 0.0249	 0.0298	-0.0437	-0.0138	 0.0047	-0.0191	-0.0143	58.5442	99.9594	
    18	 0.0070	-0.0102	-0.0032	-0.0082	-0.0296	-0.0378	-0.0240	-0.0255	-0.0496	58.6149	99.9583	
    19	-0.0306	-0.0040	-0.0346	-0.0164	-0.0593	-0.0756	-0.0240	-0.0255	-0.0496	58.6943	99.9615	
    20	-0.0000	-0.0000	-0.0000	-0.0000	-0.0000	 0.0000	 0.0000	-0.0000	-0.0000	58.6258	99.9573	
    21	-0.0201	 0.0455	 0.0254	-0.0179	 0.0262	 0.0083	-0.0158	 0.0232	 0.0073	58.6601	99.9581	
    22	-0.0061	 0.0251	 0.0190	 0.0074	 0.0168	 0.0243	 0.0446	-0.0168	 0.0278	58.8507	99.9564	
    23	 0.0315	 0.0188	 0.0503	 0.0081	 0.0296	 0.0379	 0.0188	 0.0332	 0.0519	58.5552	99.9580	
    24	-0.0053	 0.0400	 0.0348	 0.0126	-0.0047	 0.0080	-0.0158	 0.0232	 0.0073	58.6215	99.9599	
    25	-0.0061	 0.0251	 0.0190	-0.0381	 0.0140	-0.0239	 0.0047	-0.0191	-0.0143	58.7672	99.9578	
    26	 0.0166	 0.0243	 0.0409	 0.0201	 0.0122	 0.0323	 0.0622	-0.0061	 0.0561	58.8164	99.9581	
    27	 0.0254	 0.0439	 0.0693	 0.0156	 0.0465	 0.0621	 0.0399	 0.0022	 0.0421	58.7715	99.9553	
    28	 0.0227	-0.0008	 0.0219	-0.0351	 0.0652	 0.0302	 0.0000	-0.0000	-0.0000	58.5850	99.9523	
    29	-0.0061	 0.0251	 0.0190	-0.0127	 0.0047	-0.0080	 0.0047	-0.0191	-0.0143	58.7672	99.9575	
    30	-0.0070	 0.0102	 0.0032	-0.0179	 0.0262	 0.0083	 0.0076	 0.0374	 0.0450	58.5617	99.9585	
    31	 0.0026	 0.0447	 0.0473	-0.0217	 0.0733	 0.0517	 0.0399	 0.0022	 0.0421	58.8122	99.9539	
    32	 0.0411	 0.0534	 0.0945	 0.0588	 0.0109	 0.0698	 0.0634	 0.0164	 0.0798	58.7758	99.9594	
    33	 0.0166	 0.0243	 0.0409	-0.0172	 0.0390	 0.0219	 0.0557	-0.0210	 0.0348	58.8486	99.9559	
    34	-0.0061	 0.0251	 0.0190	 0.0253	-0.0094	 0.0160	 0.0223	-0.0084	 0.0139	58.7736	99.9582	
    35	 0.0096	 0.0345	 0.0441	 0.0201	 0.0122	 0.0323	 0.0446	-0.0168	 0.0278	58.8465	99.9570	
    36	 0.0105	 0.0494	 0.0599	 0.0454	 0.0028	 0.0483	 0.0557	-0.0210	 0.0348	58.9193	99.9575	
    37	 0.0166	 0.0243	 0.0409	-0.0045	 0.0343	 0.0299	 0.0000	-0.0000	-0.0000	58.6557	99.9552	
    38	-0.0131	 0.0353	 0.0222	-0.0000	-0.0000	 0.0000	-0.0176	-0.0107	-0.0283	58.7265	99.9574	
    39	-0.0429	 0.0463	 0.0034	-0.0507	 0.0187	-0.0319	-0.0111	 0.0041	-0.0070	58.7715	99.9592	
    40	 0.0166	 0.0243	 0.0409	-0.0053	 0.0215	 0.0163	 0.0446	-0.0168	 0.0278	58.8101	99.9571	
    41	 0.0254	 0.0439	 0.0693	 0.0409	 0.0371	 0.0781	 0.0939	-0.0525	 0.0413	59.0671	99.9530	
    42	 0.0323	 0.0337	 0.0661	 0.0335	 0.0203	 0.0538	 0.0557	-0.0210	 0.0348	58.8444	99.9559	
    43	 0.0420	 0.0683	 0.1103	 0.0565	 0.0836	 0.1402	 0.0651	 0.0503	 0.1154	58.7073	99.9543	
    44	 0.1023	 0.0612	 0.1636	 0.0692	 0.0789	 0.1482	 0.0874	 0.0419	 0.1293	58.6644	99.9555	
    45	 0.0236	 0.0141	 0.0377	-0.0299	 0.0436	 0.0139	-0.0017	-0.0339	-0.0356	58.7222	99.9529	
    46	-0.0464	-0.0134	-0.0597	-0.0850	-0.0144	-0.0992	-0.0575	-0.0130	-0.0704	58.5828	99.9593	
    47	 0.0105	 0.0494	 0.0599	 0.0059	 0.1023	 0.1083	 0.0270	 0.0819	 0.1088	58.5298	99.9543	
    48	 0.0603	 0.1224	 0.1828	 0.1027	 0.0992	 0.2020	 0.0956	 0.0906	 0.1862	58.7479	99.9567	
    49	 0.0411	 0.0534	 0.0945	 0.0715	 0.0062	 0.0778	 0.0399	 0.0022	 0.0421	58.7672	99.9575	
    50	-0.0088	-0.0196	-0.0284	-0.0216	-0.0378	-0.0593	-0.0510	 0.0019	-0.0492	58.4713	99.9601	
    51	 0.0166	 0.0243	 0.0409	 0.0282	 0.0418	 0.0701	 0.0475	 0.0396	 0.0872	58.6388	99.9568	
    52	 0.1207	 0.1154	 0.2361	 0.1265	 0.1753	 0.3019	 0.1384	 0.1493	 0.2877	58.5408	99.9531	
    53	 0.1058	 0.1209	 0.2267	 0.1035	 0.1120	 0.2155	 0.1496	 0.0358	 0.1854	58.9620	99.9543	
    54	 0.0236	 0.0141	 0.0377	-0.0000	-0.0000	 0.0000	 0.0159	-0.0232	-0.0074	58.7286	99.9576	
    55	-0.0280	 0.0408	 0.0128	-0.0179	 0.0262	 0.0083	 0.0287	 0.0064	 0.0352	58.8164	99.9581	
    56	 0.0507	 0.0879	 0.1386	 0.0647	 0.1132	 0.1780	 0.1273	 0.0442	 0.1715	58.8997	99.9533	
    57	 0.0980	 0.1162	 0.2141	 0.0737	 0.1556	 0.2294	 0.1607	 0.0316	 0.1924	59.0025	99.9505	
    58	 0.0498	 0.0730	 0.1228	 0.0238	 0.0761	 0.1000	 0.0939	-0.0525	 0.0413	59.0954	99.9514	
    59	-0.0122	 0.0502	 0.0380	-0.0470	 0.0826	 0.0357	 0.0557	-0.0210	 0.0348	58.9599	99.9531	
    60	 0.0516	 0.1028	 0.1544	 0.0528	 0.1307	 0.1836	 0.1114	 0.0674	 0.1788	58.8249	99.9538	
    61	 0.1076	 0.1507	 0.2583	 0.1191	 0.1584	 0.2776	 0.1895	 0.0381	 0.2276	59.1137	99.9509	
    62	 0.1119	 0.0958	 0.2077	 0.0528	 0.1307	 0.1836	 0.1590	-0.0022	 0.1568	59.0327	99.9517	
    63	 0.0726	 0.0722	 0.1448	 0.0565	 0.0836	 0.1402	 0.1115	-0.0419	 0.0696	59.0609	99.9504	
    64	 0.0498	 0.0730	 0.1228	 0.0059	 0.1023	 0.1083	 0.1003	-0.0377	 0.0626	59.0630	99.9506	
    65	 0.0586	 0.0926	 0.1512	 0.0267	 0.1272	 0.1541	 0.1191	-0.0045	 0.1146	59.0327	99.9506	
    66	 0.0586	 0.0926	 0.1512	-0.0113	 0.1413	 0.1301	 0.1402	-0.0354	 0.1048	59.1784	99.9497	
    67	 0.0350	 0.0785	 0.1135	-0.0142	 0.0901	 0.0760	 0.0557	-0.0210	 0.0348	58.9474	99.9528	
    68	 0.0122	 0.0793	 0.0915	-0.0321	 0.1163	 0.0843	 0.0634	 0.0164	 0.0798	58.8871	99.9531	
    69	 0.0210	 0.0989	 0.1199	-0.0061	 0.1197	 0.1138	 0.1179	-0.0271	 0.0909	59.1804	99.9512	
    70	-0.0009	 0.1146	 0.1137	 0.0037	 0.0639	 0.0677	 0.0780	-0.0293	 0.0487	59.1723	99.9559	
    71	-0.0017	 0.0997	 0.0979	-0.0217	 0.0733	 0.0517	 0.0956	-0.0187	 0.0769	59.1440	99.9568	
    72	 0.0359	 0.0934	 0.1293	-0.0061	 0.1197	 0.1138	 0.0968	 0.0039	 0.1007	58.9963	99.9527	
    73	 0.0359	 0.0934	 0.1293	 0.0185	 0.0976	 0.1162	 0.1402	-0.0354	 0.1048	59.2188	99.9527	
    74	 0.0210	 0.0989	 0.1199	 0.0282	 0.0418	 0.0701	 0.1003	-0.0377	 0.0626	59.1743	99.9570	
    75	 0.0140	 0.1091	 0.1231	 0.0111	 0.0808	 0.0920	 0.1115	-0.0419	 0.0696	59.2492	99.9538	
    76	-0.0009	 0.1146	 0.1137	 0.0290	 0.0546	 0.0837	 0.1115	-0.0419	 0.0696	59.2876	99.9558	
    77	-0.0070	 0.1397	 0.1327	 0.0238	 0.0761	 0.1000	 0.1402	-0.0354	 0.1048	59.4027	99.9561	
    78	 0.0219	 0.1138	 0.1357	-0.0068	 0.1070	 0.1003	 0.1115	-0.0419	 0.0696	59.2472	99.9522	
    79	-0.0096	 0.0949	 0.0853	-0.0701	 0.1304	 0.0603	 0.0716	-0.0442	 0.0274	59.1723	99.9499	
    80	-0.0411	 0.0761	 0.0350	-0.0977	 0.1013	 0.0038	 0.0317	-0.0464	-0.0147	59.0974	99.9517	
    81	-0.0472	 0.1012	 0.0540	-0.0955	 0.1397	 0.0443	 0.0716	-0.0442	 0.0274	59.2512	99.9496	
    82	-0.0227	 0.1303	 0.1075	-0.0016	 0.0854	 0.0840	 0.1338	-0.0503	 0.0835	59.4391	99.9544	
    83	-0.0009	 0.1146	 0.1137	-0.0016	 0.0854	 0.0840	 0.0956	-0.0187	 0.0769	59.1784	99.9550	
    84	-0.0499	 0.0565	 0.0066	-0.0761	 0.0281	-0.0479	 0.0124	-0.0909	-0.0786	59.1622	99.9542	
    85	-0.0481	 0.0863	 0.0382	-0.0522	 0.1042	 0.0520	 0.0634	 0.0164	 0.0798	59.0066	99.9546	
    86	 0.0787	 0.1766	 0.2553	 0.0684	 0.1771	 0.2457	 0.1989	 0.0001	 0.1989	59.3663	99.9499	
    87	 0.0534	 0.1326	 0.1860	 0.0238	 0.0761	 0.1000	 0.0939	-0.0525	 0.0413	59.2332	99.9544	
    88	-0.0420	 0.0612	 0.0192	-0.0939	 0.0542	-0.0396	-0.0193	-0.0445	-0.0639	58.9412	99.9547	
    89	-0.0245	 0.1004	 0.0760	-0.0344	 0.0780	 0.0437	 0.0411	 0.0248	 0.0659	58.9235	99.9576	
    90	 0.0315	 0.1483	 0.1798	 0.0349	 0.1569	 0.1919	 0.1097	 0.0336	 0.1432	59.0712	99.9510	
    91	 0.0158	 0.1389	 0.1547	 0.0185	 0.0976	 0.1162	 0.0287	 0.0064	 0.0352	58.9777	99.9534	
    92	-0.0262	 0.0706	 0.0444	-0.0679	 0.0577	-0.0101	-0.0082	-0.0487	-0.0569	58.9756	99.9537	
    93	-0.0560	 0.0816	 0.0256	-0.0604	 0.0745	 0.0142	 0.0381	-0.0316	 0.0065	59.1035	99.9539	
    94	-0.0017	 0.0997	 0.0979	-0.0098	 0.0558	 0.0462	 0.0446	-0.0168	 0.0278	59.0224	99.9566	
    95	-0.0044	 0.0549	 0.0505	-0.0559	 0.0402	-0.0156	 0.0206	-0.0423	-0.0217	58.9453	99.9563	
    96	-0.0245	 0.1004	 0.0760	-0.0217	 0.0733	 0.0517	 0.0446	-0.0168	 0.0278	59.0630	99.9547	
    97	 0.0158	 0.1389	 0.1547	 0.0312	 0.0929	 0.1242	 0.0587	 0.0355	 0.0941	58.9537	99.9562	
    98	 0.0131	 0.0942	 0.1073	-0.0142	 0.0901	 0.0760	 0.0446	-0.0168	 0.0278	58.9839	99.9529	
    99	-0.0463	 0.1161	 0.0698	-0.0470	 0.0826	 0.0357	 0.0000	-0.0000	-0.0000	58.9839	99.9549	
   100	-0.0236	 0.1154	 0.0917	-0.0649	 0.1088	 0.0440	 0.0540	-0.0548	-0.0008	59.2392	99.9514	
   101	-0.0166	 0.1052	 0.0885	-0.0932	 0.0670	-0.0261	-0.0035	-0.0677	-0.0712	59.1135	99.9548	
   102	-0.0962	 0.0431	-0.0531	-0.2325	 0.0075	-0.2249	-0.1220	-0.1613	-0.2832	59.1277	99.9543	
   103	-0.1522	-0.0048	-0.1570	-0.2772	-0.0936	-0.3707	-0.1876	-0.2229	-0.4105	59.1542	99.9585	
   104	-0.1714	-0.0739	-0.2453	-0.3397	-0.1684	-0.5081	-0.2709	-0.2952	-0.5661	59.0600	99.9592	
   105	-0.2563	-0.2254	-0.4817	-0.5244	-0.3419	-0.8662	-0.5049	-0.4259	-0.9308	58.7175	99.9633	
   106	-0.4986	-0.4711	-0.9697	-0.8477	-0.5621	-1.4097	-0.8680	-0.6346	-1.5026	58.3660	99.9632	
   107	-0.8362	-0.7883	-1.6245	-1.3468	-0.8022	-2.1489	-1.3981	-0.9992	-2.3974	58.1117	99.9536	
   108	-1.4423	-1.1511	-2.5935	-1.8600	-1.0633	-2.9232	-1.9225	-1.2510	-3.1735	57.8674	99.9462	
   109	-1.5875	-1.1661	-2.7536	-1.8779	-1.0371	-2.9149	-1.8908	-1.1881	-3.0789	57.9621	99.9454	
   110	-1.6269	-1.1897	-2.8165	-1.8735	-1.0714	-2.9448	-1.8896	-1.2748	-3.1644	58.2584	99.9405	
   111	-1.8062	-1.2682	-3.0744	-2.0120	-1.1182	-3.1301	-2.0310	-1.3713	-3.4022	58.3620	99.9331	
   112	-1.8849	-1.3153	-3.2002	-2.0612	-1.1849	-3.2460	-2.0726	-1.4074	-3.4800	58.4044	99.9362	
   113	-1.8053	-1.2533	-3.0586	-1.9636	-1.0642	-3.0277	-1.9002	-1.2594	-3.1595	58.3428	99.9380	
   114	-1.4528	-1.0711	-2.5239	-1.5979	-0.7813	-2.3791	-1.3601	-0.8122	-2.1723	57.9995	99.9518	
   115	-0.7478	-0.4477	-1.1955	-0.5045	 0.0034	-0.5010	-0.0798	 0.1047	 0.0249	58.3285	99.9515	
   116	 0.6508	 0.7349	 1.3856	 1.4122	 1.0392	 2.4515	 1.4327	 1.1185	 2.5512	58.9947	99.9268	
   117	 1.5857	 1.2657	 2.8515	 2.4156	 1.4981	 3.9138	 1.8507	 1.9508	 3.8014	57.0886	99.9299	
   118	 2.1306	 1.4912	 3.6218	 2.9080	 1.7342	 4.6423	 1.8780	 2.5904	 4.4684	54.8506	99.9380	
   119	 2.4796	 1.6137	 4.0933	 3.2290	 1.9160	 5.1452	 2.1002	 2.9325	 5.0328	54.0389	99.9426	
   120	 2.6703	 1.7567	 4.4269	 3.5330	 2.0258	 5.5589	 2.2902	 3.3098	 5.6000	53.3803	99.9521	
   121	 2.8469	 1.7905	 4.6374	 3.6648	 2.0685	 5.7335	 2.3864	 3.3025	 5.6889	53.3900	99.9484	
   122	 2.8766	 1.7795	 4.6561	 3.7066	 2.0074	 5.7141	 2.3418	 3.3192	 5.6610	53.1635	99.9507	
   123	 2.9729	 1.8659	 4.8387	 3.8548	 2.1094	 5.9643	 2.5060	 3.5279	 6.0339	52.9729	99.9554	
   124	 3.1443	 1.9397	 5.0840	 4.0552	 2.2183	 6.2736	 2.7863	 3.6757	 6.4620	53.0657	99.9592	
   125	 3.1933	 2.1273	 5.3206	 4.3345	 2.3502	 6.6848	 3.1218	 3.9006	 7.0224	53.5169	99.9616	
   126	 3.2616	 2.3840	 5.6455	 4.5751	 2.5944	 7.1696	 3.4449	 4.1071	 7.5520	54.0943	99.9586	
   127	 3.2738	 2.4633	 5.7371	 4.7018	 2.5476	 7.2495	 3.5336	 3.9530	 7.4866	54.8658	99.9520	
   128	 3.2476	 2.4044	 5.6519	 4.6646	 2.4634	 7.1281	 3.4133	 3.9349	 7.3482	54.5692	99.9530	
   129	 3.2239	 2.3902	 5.6142	 4.5886	 2.4915	 7.0801	 3.4403	 4.0168	 7.4571	54.4100	99.9607	
   130	 3.2423	 2.5739	 5.8163	 4.7740	 2.7887	 7.5628	 3.7170	 4.3155	 8.0325	54.5487	99.9557	
   131	 3.2695	 2.7772	 6.0467	 4.9698	 3.0429	 8.0128	 3.9323	 4.5223	 8.4545	54.8285	99.9464	
   132	 3.3438	 2.8793	 6.2231	 5.0308	 3.2032	 8.2342	 4.0965	 4.6217	 8.7181	55.0023	99.9460	
   133	 3.4016	 2.9570	 6.3586	 5.1806	 3.2198	 8.4004	 4.1610	 4.6607	 8.8217	55.1025	99.9424	
   134	 3.4409	 2.9806	 6.4215	 5.1425	 3.3448	 8.4875	 4.1962	 4.6820	 8.8782	55.1053	99.9380	
   135	 3.5022	 2.9884	 6.4906	 5.2230	 3.2824	 8.5056	 4.2854	 4.6485	 8.9339	55.3055	99.9428	
   136	 3.5319	 2.9774	 6.5093	 5.1708	 3.3866	 8.5576	 4.2519	 4.6611	 8.9130	55.1292	99.9355	
   137	 3.5336	 3.0073	 6.5409	 5.2946	 3.2887	 8.5833	 4.3522	 4.6234	 8.9756	55.5055	99.9397	
   138	 3.4943	 2.9837	 6.4780	 5.1724	 3.3012	 8.4736	 4.2860	 4.5505	 8.8365	55.5781	99.9384	
   139	 3.5336	 3.0073	 6.5409	 5.3214	 3.1939	 8.5154	 4.3769	 4.5509	 8.9278	55.7568	99.9442	
   140	 3.5485	 3.0018	 6.5503	 5.2692	 3.2980	 8.5674	 4.3170	 4.6021	 8.9192	55.4538	99.9379	
   141	 3.6412	 3.0285	 6.6697	 5.3414	 3.4281	 8.7696	 4.4554	 4.7515	 9.2069	55.2478	99.9389	
   142	 3.8048	 3.0976	 6.9024	 5.3980	 3.6227	 9.0208	 4.6408	 4.8199	 9.4607	55.3375	99.9352	
   143	 3.8887	 3.1047	 6.9934	 5.4516	 3.6552	 9.1069	 4.6425	 4.8538	 9.4963	55.1300	99.9324	
   144	 3.8887	 3.1047	 6.9934	 5.4278	 3.6901	 9.1179	 4.6425	 4.8538	 9.4963	55.1300	99.9303	
   145	 3.9027	 3.0843	 6.9870	 5.4501	 3.6296	 9.0798	 4.5868	 4.8747	 9.4615	54.8898	99.9336	
   146	 3.8730	 3.0953	 6.9683	 5.4009	 3.6739	 9.0749	 4.6185	 4.8283	 9.4468	55.1538	99.9306	
   147	 3.8284	 3.1118	 6.9401	 5.4472	 3.5784	 9.0257	 4.5850	 4.8408	 9.4259	55.1538	99.9360	
   148	 3.7969	 3.0929	 6.8898	 5.4092	 3.5925	 9.0017	 4.5164	 4.8321	 9.3485	55.0426	99.9313	
   149	 3.7960	 3.0780	 6.8740	 5.3600	 3.6368	 8.9968	 4.5833	 4.8070	 9.3903	55.2239	99.9316	
   150	 3.8056	 3.1125	 6.9182	 5.4964	 3.5341	 9.0306	 4.6742	 4.8073	 9.4816	55.4718	99.9384	
   151	 3.8432	 3.1063	 6.9495	 5.4487	 3.6040	 9.0528	 4.6742	 4.8073	 9.4816	55.3991	99.9357	
   152	 3.8502	 3.0961	 6.9463	 5.4740	 3.5947	 9.0687	 4.6408	 4.8199	 9.4607	55.2618	99.9333	
   153	 3.8642	 3.0757	 6.9399	 5.4725	 3.5691	 9.0417	 4.6185	 4.8283	 9.4468	55.1272	99.9353	
   154	 3.8502	 3.0961	 6.9463	 5.4248	 3.6389	 9.0638	 4.6167	 4.7944	 9.4112	55.2801	99.9292	
   155	 3.8432	 3.1063	 6.9495	 5.4487	 3.6040	 9.0528	 4.6502	 4.7819	 9.4320	55.4176	99.9325	
   156	 3.8432	 3.1063	 6.9495	 5.4248	 3.6389	 9.0638	 4.6185	 4.8283	 9.4468	55.2239	99.9321	
   157	 3.8432	 3.1063	 6.9495	 5.3980	 3.6227	 9.0208	 4.6185	 4.8283	 9.4468	55.2239	99.9365	
   158	 3.8739	 3.1102	 6.9841	 5.4516	 3.6552	 9.1069	 4.6760	 4.8412	 9.5172	55.2702	99.9331	
   159	 3.9132	 3.1338	 7.0470	 5.4501	 3.7406	 9.1908	 4.7112	 4.8625	 9.5737	55.2730	99.9288	
   160	 3.9281	 3.1283	 7.0564	 5.4501	 3.7406	 9.1908	 4.7429	 4.8161	 9.5589	55.4314	99.9274	
   161	 3.9132	 3.1338	 7.0470	 5.4754	 3.7313	 9.2068	 4.7094	 4.8286	 9.5381	55.3614	99.9249	
   162	 3.9429	 3.1228	 7.0657	 5.4262	 3.7755	 9.2019	 4.7112	 4.8625	 9.5737	55.2030	99.9272	
   163	 3.9290	 3.1432	 7.0722	 5.4993	 3.6963	 9.1957	 4.7763	 4.8035	 9.5798	55.5658	99.9302	
   164	 3.9578	 3.1173	 7.0751	 5.4740	 3.7057	 9.1797	 4.7429	 4.8161	 9.5589	55.3614	99.9302	
   165	 3.9736	 3.1267	 7.1003	 5.4531	 3.7918	 9.2449	 4.7463	 4.8838	 9.6301	55.1792	99.9276	
   166	 3.9823	 3.1463	 7.1287	 5.4232	 3.8354	 9.2588	 4.7780	 4.8374	 9.6154	55.3991	99.9243	
   167	 3.9736	 3.1267	 7.1003	 5.4277	 3.8011	 9.2289	 4.8449	 4.8123	 9.6572	55.5821	99.9288	
   168	 4.0033	 3.1157	 7.1190	 5.4754	 3.7313	 9.2068	 4.8115	 4.8248	 9.6363	55.4074	99.9329	
   169	 3.9884	 3.1212	 7.1097	 5.4784	 3.7824	 9.2609	 4.8467	 4.8461	 9.6928	55.4589	99.9295	
   170	 3.9753	 3.1566	 7.1319	 5.4232	 3.8354	 9.2588	 4.7798	 4.8712	 9.6510	55.3430	99.9273	
   171	 4.0050	 3.1456	 7.1506	 5.4262	 3.8866	 9.3129	 4.8449	 4.8123	 9.6572	55.5712	99.9198	
   172	 4.0120	 3.1354	 7.1474	 5.4739	 3.8167	 9.2907	 4.8449	 4.8123	 9.6572	55.5390	99.9244	
   173	 4.0269	 3.1299	 7.1568	 5.4501	 3.8516	 9.3018	 4.7798	 4.8712	 9.6510	55.2058	99.9232	
   174	 4.0050	 3.1456	 7.1506	 5.4501	 3.8516	 9.3018	 4.7798	 4.8712	 9.6510	55.2730	99.9232	
   175	 3.9753	 3.1566	 7.1319	 5.4247	 3.8610	 9.2858	 4.8467	 4.8461	 9.6928	55.5526	99.9257	
   176	 4.0120	 3.1354	 7.1474	 5.4739	 3.8167	 9.2907	 4.8467	 4.8461	 9.6928	55.4506	99.9271	
   177	 4.0654	 3.1385	 7.2039	 5.4150	 3.9168	 9.3319	 4.9153	 4.8549	 9.7702	55.4938	99.9262	
   178	 4.0811	 3.1480	 7.2291	 5.4642	 3.8725	 9.3368	 4.9487	 4.8423	 9.7911	55.5929	99.9294	
   179	 4.0365	 3.1644	 7.2009	 5.4150	 3.9168	 9.3319	 4.9136	 4.8210	 9.7346	55.6813	99.9237	
   180	 4.0217	 3.1699	 7.1916	 5.4657	 3.8981	 9.3639	 4.8819	 4.8674	 9.7493	55.5232	99.9230	
   181	 4.0505	 3.1440	 7.1945	 5.4895	 3.8632	 9.3528	 4.8484	 4.8800	 9.7284	55.3192	99.9242	
   182	 4.0505	 3.1440	 7.1945	 5.5119	 3.8027	 9.3147	 4.8819	 4.8674	 9.7493	55.4240	99.9309	
   183	 4.0365	 3.1644	 7.2009	 5.4895	 3.8632	 9.3528	 4.8484	 4.8800	 9.7284	55.3835	99.9248	
   184	 4.0208	 3.1550	 7.1758	 5.4642	 3.8725	 9.3368	 4.8801	 4.8336	 9.7137	55.5821	99.9230	
   185	 4.0208	 3.1550	 7.1758	 5.5119	 3.8027	 9.3147	 4.8484	 4.8800	 9.7284	55.3891	99.9294	
   186	 4.0741	 3.1582	 7.2323	 5.5402	 3.8445	 9.3848	 4.9839	 4.8636	 9.8475	55.6412	99.9299	
   187	 4.1205	 3.1715	 7.2920	 5.5119	 3.9137	 9.4257	 4.9540	 4.9439	 9.8979	55.3148	99.9305	
   188	 4.1354	 3.1660	 7.3014	 5.5655	 3.8351	 9.4008	 4.9839	 4.8636	 9.8475	55.5608	99.9315	
   189	 4.0908	 3.1825	 7.2732	 5.5655	 3.8351	 9.4008	 4.9839	 4.8636	 9.8475	55.6652	99.9307	
   190	 4.0689	 3.1982	 7.2671	 5.5417	 3.8700	 9.4118	 4.9857	 4.8975	 9.8831	55.6439	99.9311	
   191	 4.0986	 3.1872	 7.2858	 5.5417	 3.8700	 9.4118	 5.0174	 4.8511	 9.8684	55.7669	99.9298	
   192	 4.0698	 3.2131	 7.2829	 5.5372	 3.9044	 9.4417	 4.9857	 4.8975	 9.8831	55.6733	99.9279	
   193	 4.0986	 3.1872	 7.2858	 5.5924	 3.8513	 9.4438	 5.0191	 4.8849	 9.9040	55.6787	99.9302	
   194	 4.0925	 3.2123	 7.3048	 5.5625	 3.8950	 9.4576	 4.9839	 4.8636	 9.8475	55.7241	99.9248	
   195	 4.0689	 3.1982	 7.2671	 5.5417	 3.8700	 9.4118	 5.0191	 4.8849	 9.9040	55.7481	99.9320	
   196	 4.1135	 3.1817	 7.2952	 5.5924	 3.8513	 9.4438	 5.0526	 4.8724	 9.9249	55.7481	99.9314	
   197	 4.1668	 3.1849	 7.3517	 5.5387	 3.9299	 9.4687	 5.0543	 4.9062	 9.9605	55.5824	99.9310	
   198	 4.1668	 3.1849	 7.3517	 5.6147	 3.9019	 9.5167	 5.0561	 4.9401	 9.9961	55.4944	99.9304	
   199	 4.1913	 3.2139	 7.4052	 5.5357	 3.9898	 9.5256	 5.1229	 4.9150	10.0379	55.7241	99.9304	
   200	 4.1782	 3.2492	 7.4275	 5.5864	 3.9711	 9.5575	 5.0578	 4.9739	10.0317	55.5210	99.9306	
   201	 4.2080	 3.2383	 7.4462	 5.5878	 3.9967	 9.5846	 5.1247	 4.9488	10.0735	55.6600	99.9294	
   202	 4.2228	 3.2328	 7.4556	 5.5878	 3.9967	 9.5846	 5.1247	 4.9488	10.0735	55.6253	99.9296	
   203	 4.2080	 3.2383	 7.4462	 5.6132	 3.9873	 9.6006	 5.1247	 4.9488	10.0735	55.6600	99.9283	
   204	 4.2307	 3.2375	 7.4682	 5.6638	 3.9686	 9.6325	 5.1563	 5.0117	10.1680	55.5189	99.9334	
   205	 4.3068	 3.2399	 7.5466	 5.6608	 4.0285	 9.6894	 5.2567	 4.9740	10.2307	55.7160	99.9315	
   206	 4.3155	 3.2595	 7.5750	 5.6638	 4.0796	 9.7435	 5.1915	 5.0330	10.2245	55.4468	99.9269	
   207	 4.3295	 3.2391	 7.5686	 5.6131	 4.0983	 9.7116	 5.1581	 5.0455	10.2036	55.2785	99.9277	
   208	 4.3592	 3.2281	 7.5873	 5.6370	 4.0634	 9.7005	 5.1915	 5.0330	10.2245	55.3133	99.9314	
   209	 4.3453	 3.2485	 7.5938	 5.6385	 4.0890	 9.7275	 5.1581	 5.0455	10.2036	55.2730	99.9277	
   210	 4.3601	 3.2430	 7.6031	 5.6131	 4.0983	 9.7116	 5.1581	 5.0455	10.2036	55.2382	99.9290	
   211	 4.3304	 3.2540	 7.5844	 5.7003	 4.0400	 9.7404	 5.2232	 4.9866	10.2098	55.6040	99.9272	
   212	 4.3164	 3.2744	 7.5908	 5.6876	 4.0447	 9.7325	 5.2232	 4.9866	10.2098	55.6680	99.9283	
   213	 4.3899	 3.2320	 7.6219	 5.6466	 4.1186	 9.7654	 5.2285	 5.0881	10.3166	55.2021	99.9310	
   214	 4.3986	 3.2517	 7.6503	 5.6973	 4.0999	 9.7973	 5.2249	 5.1297	10.3547	55.1091	99.9332	
   215	 4.4353	 3.2305	 7.6658	 5.6973	 4.0999	 9.7973	 5.2954	 5.0630	10.3584	55.3354	99.9321	
   216	 4.4432	 3.2352	 7.6784	 5.6720	 4.1093	 9.7813	 5.2619	 5.0756	10.3375	55.2285	99.9328	
   217	 4.4143	 3.2611	 7.6754	 5.6988	 4.1255	 9.8244	 5.1581	 5.1548	10.3129	54.8946	99.9292	
   218	 4.4292	 3.2556	 7.6848	 5.7241	 4.1161	 9.8404	 5.1915	 5.1423	10.3338	54.9643	99.9292	
   219	 4.4432	 3.2352	 7.6784	 5.6973	 4.0999	 9.7973	 5.1950	 5.1007	10.2957	55.0197	99.9302	
   220	 4.4047	 3.2265	 7.6313	 5.6973	 4.0999	 9.7973	 5.1616	 5.1132	10.2748	54.9586	99.9274	
   221	 4.4100	 3.1865	 7.5965	 5.6765	 4.0750	 9.7515	 5.1598	 5.0794	10.2392	54.9557	99.9279	
   222	 4.4196	 3.2211	 7.6406	 5.7271	 4.0562	 9.7835	 5.2619	 5.0756	10.3375	55.2368	99.9331	
   223	 4.4353	 3.2305	 7.6658	 5.6481	 4.1442	 9.7924	 5.2619	 5.0756	10.3375	55.2313	99.9299	
   224	 4.4353	 3.2305	 7.6658	 5.6973	 4.0999	 9.7973	 5.2619	 5.0756	10.3375	55.2313	99.9313	
   225	 4.4353	 3.2305	 7.6658	 5.6735	 4.1348	 9.8084	 5.1616	 5.1132	10.2748	54.9180	99.9264	
   226	 4.4283	 3.2407	 7.6690	 5.7226	 4.0906	 9.8133	 5.2285	 5.0881	10.3166	55.1590	99.9297	
   227	 4.4283	 3.2407	 7.6690	 5.7226	 4.0906	 9.8133	 5.2285	 5.0881	10.3166	55.1590	99.9297	
   228	 4.4205	 3.2360	 7.6564	 5.7241	 4.1161	 9.8404	 5.2267	 5.0543	10.2810	55.2493	99.9228	
   229	 4.4056	 3.2415	 7.6471	 5.7271	 4.0562	 9.7835	 5.1933	 5.0668	10.2601	55.1797	99.9294	
   230	 4.3960	 3.2069	 7.6029	 5.7257	 4.0307	 9.7564	 5.2250	 5.0204	10.2454	55.3161	99.9288	
   231	 4.3890	 3.2171	 7.6061	 5.6765	 4.0750	 9.7515	 5.2919	 4.9953	10.2872	55.5563	99.9293	
   232	 4.4336	 3.2007	 7.6342	 5.7271	 4.0562	 9.7835	 5.2919	 4.9953	10.2872	55.4522	99.9280	
   233	 4.4336	 3.2007	 7.6342	 5.7018	 4.0656	 9.7675	 5.2584	 5.0079	10.2663	55.3481	99.9282	
   234	 4.4406	 3.1905	 7.6310	 5.6765	 4.0750	 9.7515	 5.2584	 5.0079	10.2663	55.3161	99.9290	
   235	 4.4038	 3.2116	 7.6155	 5.6720	 4.1093	 9.7813	 5.2250	 5.0204	10.2454	55.3133	99.9238	
   236	 4.4484	 3.1952	 7.6436	 5.6340	 4.1233	 9.7574	 5.2901	 4.9615	10.2516	55.5053	99.9249	
   237	 4.4484	 3.1952	 7.6436	 5.6481	 4.1442	 9.7924	 5.2232	 4.9866	10.2098	55.2967	99.9191	
   238	 4.4406	 3.1905	 7.6310	 5.6101	 4.1582	 9.7684	 5.2567	 4.9740	10.2307	55.4038	99.9210	
   239	 4.4108	 3.2014	 7.6123	 5.6466	 4.1186	 9.7654	 5.3236	 4.9489	10.2725	55.6814	99.9242	
   240	 4.4353	 3.2305	 7.6658	 5.6228	 4.1536	 9.7764	 5.3253	 4.9828	10.3081	55.6148	99.9269	
   241	 4.4790	 3.1991	 7.6781	 5.6988	 4.1255	 9.8244	 5.3922	 4.9577	10.3498	55.6894	99.9253	
   242	 4.4782	 3.1842	 7.6624	 5.6735	 4.1348	 9.8084	 5.3253	 4.9828	10.3081	55.4522	99.9239	
   243	 4.4633	 3.1897	 7.6530	 5.6481	 4.1442	 9.7924	 5.2567	 4.9740	10.2307	55.3663	99.9202	
   244	 4.4345	 3.2156	 7.6500	 5.6973	 4.0999	 9.7973	 5.2919	 4.9953	10.2872	55.4815	99.9258	
   245	 4.4633	 3.1897	 7.6530	 5.7018	 4.0656	 9.7675	 5.2250	 5.0204	10.2454	55.1741	99.9279	
   246	 4.4205	 3.2360	 7.6564	 5.7510	 4.0213	 9.7724	 5.2901	 4.9615	10.2516	55.6333	99.9291	
   247	 4.4038	 3.2116	 7.6155	 5.6370	 4.0634	 9.7005	 5.2567	 4.9740	10.2307	55.5053	99.9311	
   248	 4.3960	 3.2069	 7.6029	 5.7242	 4.0051	 9.7294	 5.3605	 4.8948	10.2553	55.9398	99.9298	
   249	 4.4353	 3.2305	 7.6658	 5.6973	 4.0999	 9.7973	 5.3270	 5.0166	10.3437	55.5270	99.9302	
   250	 4.4432	 3.2352	 7.6784	 5.7525	 4.0469	 9.7995	 5.2954	 5.0630	10.3584	55.3327	99.9345	
   251	 4.4799	 3.2140	 7.6939	 5.7271	 4.0562	 9.7835	 5.3922	 4.9577	10.3498	55.7187	99.9328	
   252	 4.4502	 3.2250	 7.6752	 5.7271	 4.0562	 9.7835	 5.2936	 5.0292	10.3228	55.3883	99.9326	
   253	 4.4878	 3.2187	 7.7065	 5.7525	 4.0469	 9.7995	 5.3270	 5.0166	10.3437	55.4203	99.9334	
   254	 4.4651	 3.2195	 7.6846	 5.7271	 4.0562	 9.7835	 5.3253	 4.9828	10.3081	55.5454	99.9310	
   255	 4.4012	 3.1669	 7.5681	 5.7667	 3.8457	 9.6125	 5.2814	 4.6829	 9.9643	56.2605	99.9240	
   256	 3.8553	 2.0200	 5.8753	 5.2371	 1.7361	 6.9733	 3.7231	 2.1220	 5.8451	58.6631	99.8681	
   257	 2.3666	 0.5965	 2.9631	 3.0954	 0.6136	 3.7091	 2.4119	 0.6071	 3.0190	59.5640	99.8975	
   258	 1.4937	 0.0884	 1.5821	 2.0353	 0.2932	 2.3287	 1.8448	 0.2966	 2.1414	59.5227	99.9228	
   259	 0.8072	-0.0924	 0.7148	 1.4048	 0.9114	 2.3162	 1.7445	 1.8756	 3.6201	55.3777	99.9712	
   260	 3.2851	 1.8801	 5.1652	 4.5061	 1.9603	 6.4665	 2.9519	 3.2512	 6.2031	54.2732	99.9312	
   261	 3.2929	 1.6258	 4.9187	 4.3109	 1.9410	 6.2520	 2.7958	 3.3098	 6.1056	53.1876	99.9356	
   262	 3.2124	 1.4193	 4.6317	 4.0814	 1.8886	 5.9701	 2.6357	 3.2894	 5.9251	52.5723	99.9400	
   263	 3.3182	 1.5402	 4.8585	 4.2021	 1.9616	 6.1638	 2.7694	 3.3485	 6.1179	52.7907	99.9416	
   264	 3.3541	 1.6337	 4.9878	 4.3578	 1.9694	 6.3273	 2.8779	 3.3595	 6.2374	53.1480	99.9387	
   265	 3.3270	 1.5599	 4.8869	 4.2058	 1.9145	 6.1204	 2.7401	 3.2214	 5.9616	53.1074	99.9376	
   266	 3.2456	 1.4680	 4.7136	 4.0956	 1.7985	 5.8942	 2.6469	 3.1759	 5.8228	52.9637	99.9454	
   267	 3.2693	 1.6117	 4.8809	 4.2259	 1.9267	 6.1527	 2.8433	 3.3495	 6.1928	53.1960	99.9486	
   268	 3.3891	 1.8417	 5.2308	 4.5924	 2.1113	 6.7038	 3.2826	 3.6044	 6.8870	53.7675	99.9501	
   269	 3.3971	 2.1054	 5.5024	 4.8427	 2.2997	 7.1425	 3.5289	 3.8628	 7.3917	54.1447	99.9487	
   270	 3.4119	 2.2294	 5.6413	 4.9283	 2.4379	 7.3663	 3.6785	 3.8986	 7.5771	54.6127	99.9429	
   271	 3.4320	 2.1839	 5.6159	 4.8986	 2.2595	 7.1582	 3.5407	 3.6513	 7.1920	54.8693	99.9403	
   272	 3.4819	 1.9979	 5.4797	 4.7399	 2.2005	 6.9405	 3.3512	 3.7224	 7.0736	53.7675	99.9487	
   273	 3.3691	 2.2757	 5.6448	 4.9447	 2.3861	 7.3309	 3.5917	 3.8680	 7.4596	54.6756	99.9407	
   274	 3.3490	 2.3212	 5.6702	 4.9103	 2.6861	 7.5966	 3.6619	 4.2384	 7.9004	53.9364	99.9403	
   275	 3.5772	 2.3284	 5.9056	 5.4492	 2.2716	 7.7209	 4.2858	 3.2278	 7.5136	57.7567	99.9106	
   276	 3.0538	 0.0151	 3.0690	 3.5531	 0.2487	 3.8019	 3.3635	 0.3304	 3.6939	59.9975	99.9306	
   277	 2.5676	-0.1177	 2.4499	 3.5353	-0.0582	 3.4772	 3.4576	-0.2686	 3.1890	62.4908	99.9023	
   278	 3.1361	 0.5104	 3.6465	 3.8950	 0.4555	 4.3506	 3.7231	 0.4714	 4.1945	61.3460	99.9339	
   279	 3.4572	 0.9328	 4.3900	 4.3113	 0.7197	 5.0311	 3.8390	 0.9570	 4.7961	60.5801	99.9421	
   280	 3.5936	 1.0576	 4.6512	 4.7590	 0.9658	 5.7249	 3.9508	 1.9100	 5.8608	58.0352	99.9579	
   281	 3.7276	 1.9148	 5.6424	 5.4136	 1.8799	 7.2936	 4.5416	 3.3388	 7.8804	56.8538	99.9647	
   282	 3.6192	 2.1376	 5.7568	 5.0283	 2.0418	 7.0702	 3.8276	 3.4861	 7.3137	55.5580	99.9600	
   283	 2.8905	 1.2411	 4.1316	 3.3395	 1.3659	 4.7055	 2.5070	 2.2277	 4.7347	55.4884	99.9642	
   284	 0.5824	-0.1694	 0.4130	 0.9194	 0.0131	 0.9326	 1.1210	 0.0335	 1.1545	59.6442	99.9492	
   285	-1.4748	-1.9619	-3.4368	-1.6438	-1.5742	-3.2178	-1.2342	-1.8947	-3.1289	59.6230	99.9302	
   286	-1.9350	-2.6834	-4.6184	-2.3909	-1.9643	-4.3552	-1.9497	-2.3278	-4.2774	58.3941	99.9145	
   287	-1.3953	-2.0294	-3.4247	-1.3435	-1.6393	-2.9827	-0.7690	-1.7990	-2.5680	60.0651	99.9439	
   288	-0.2093	-1.4922	-1.7015	 0.0057	-1.2429	-1.2371	 0.5395	-1.2148	-0.6753	60.4283	99.9597	
   289	 0.5638	-1.1301	-0.5662	 0.9183	-1.0117	-0.0934	 1.1829	-0.8582	 0.3247	60.3101	99.9627	
   290	 0.9207	-1.0028	-0.0821	 1.1090	-1.0691	 0.0400	 1.2880	-1.1334	 0.1546	61.1289	99.9579	
   291	 0.3740	-1.5171	-1.1431	 0.1257	-1.4047	-1.2789	 0.4018	-1.4621	-1.0604	59.8798	99.9619	
   292	-0.4026	-1.6798	-2.0824	-0.7326	-1.4796	-2.2121	-0.4558	-1.5658	-2.0216	59.1932	99.9574	
   293	-1.3900	-2.0695	-3.4595	-1.8755	-1.5539	-3.4293	-1.6443	-1.5855	-3.2298	57.2657	99.9475	
   294	-2.0415	-1.6537	-3.6951	-1.9472	-1.2270	-3.1741	-1.5078	-1.0328	-2.5406	57.9790	99.9612	
   295	-1.4205	-1.2963	-2.7168	-1.2634	-0.8135	-2.0767	-0.4955	-0.4639	-0.9594	58.2930	99.9740	
   296	-0.7925	-0.9492	-1.7417	-0.2837	-0.4307	-0.7144	 0.6417	 0.1041	 0.7459	58.8272	99.9798	
   297	 0.3235	-0.4395	-0.1160	 1.1018	 0.2592	 1.3611	 1.7414	 0.7150	 2.4564	58.7243	99.9593	
   298	 0.4590	-0.4590	-0.0000	 0.9730	 0.0456	 1.0186	 1.3690	 0.4350	 1.8040	58.4952	99.9616	
   299	-0.2512	-0.9129	-1.1641	 0.0226	-0.7267	-0.7040	 0.4337	-0.4044	 0.0293	59.1163	99.9746	
   300	-0.0037	-0.9662	-0.9699	 0.3229	-0.9029	-0.5799	 0.8186	-0.6524	 0.1662	60.1913	99.9764	
   301	 1.2496	-0.5757	 0.6739	 1.6930	-0.5925	 1.1005	 2.0351	-0.3097	 1.7254	60.6392	99.9758	
   302	 1.9047	-0.0253	 1.8794	 2.3611	-0.1144	 2.2468	 2.4649	 0.2019	 2.6667	60.2205	99.9739	
   303	 2.1155	 0.3311	 2.4466	 2.5726	 0.0753	 2.6480	 2.5229	 0.4447	 2.9675	60.0920	99.9783	
   304	 1.7595	-0.0403	 1.7193	 1.9923	-0.2264	 1.7661	 2.0784	-0.0211	 2.0573	60.2779	99.9754	
   305	 1.3266	-0.2994	 1.0272	 1.4985	-0.4880	 1.0105	 1.6561	-0.2767	 1.3794	60.2498	99.9784	
   306	 1.1027	-0.4910	 0.6117	 1.0032	-0.8863	 0.1169	 0.9723	-0.8654	 0.1069	60.5211	99.9761	
   307	-0.8697	-2.0026	-2.8722	-2.3156	-2.1162	-4.4317	-2.7069	-2.4691	-5.1760	56.7488	99.9555	
   308	-3.0798	-3.1673	-6.2471	-4.4448	-2.6883	-7.1330	-4.4450	-2.6793	-7.1243	54.2685	99.9589	
   309	-2.0531	-3.1426	-5.1957	-3.7059	-2.1057	-5.8115	-3.0737	-2.0898	-5.1635	53.9796	99.9489	
   310	-1.2579	-1.5011	-2.7590	-1.5590	-1.2267	-2.7856	-1.2057	-1.0140	-2.2197	57.6226	99.9725	
   311	-0.5870	-1.2003	-1.7874	-0.5972	-0.9288	-1.5259	-0.1230	-0.6210	-0.7440	58.4341	99.9760	
   312	-0.4366	-1.0959	-1.5325	-0.4765	-0.8558	-1.3323	-0.0625	-0.6610	-0.7235	58.6865	99.9709	
   313	-1.1206	-1.6204	-2.7410	-1.4821	-1.4640	-2.9461	-1.3609	-1.8184	-3.1793	59.3133	99.9346	
   314	-1.5090	-2.4141	-3.9231	-2.1957	-1.9450	-4.1406	-1.9080	-2.2916	-4.1997	58.2842	99.9312	
   315	-0.4630	-1.8023	-2.2653	-0.5121	-1.4696	-1.9816	-0.0734	-1.4218	-1.4952	59.4072	99.9594	
   316	 0.8323	-1.3435	-0.5112	 1.0107	-1.2026	-0.1918	 1.2047	-0.9871	 0.2175	59.8144	99.9670	
   317	 1.7393	-0.9013	 0.8380	 2.0395	-0.8642	 1.1755	 2.0828	-0.8164	 1.2663	60.7603	99.9536	
   318	 1.8267	-0.8345	 0.9922	 2.3264	-0.8264	 1.5001	 2.5127	-0.6327	 1.8799	61.1229	99.9647	
   319	 2.0742	-0.8878	 1.1864	 2.5975	-0.7241	 1.8735	 2.6292	-0.1359	 2.4933	59.3322	99.9753	
   320	 2.0009	-0.1979	 1.8029	 2.8796	 0.0141	 2.8939	 2.7381	 0.6514	 3.3895	58.8957	99.9622	
   321	 0.6679	-1.1685	-0.5006	 0.9786	-0.9752	 0.0035	 1.2174	-0.6296	 0.5878	59.4167	99.9709	
   322	 0.1466	-1.6388	-1.4922	-0.0233	-1.4085	-1.4317	 0.1582	-1.2269	-1.0687	58.6752	99.9673	
   323	-0.3956	-1.4310	-1.8266	-0.4757	-1.0651	-1.5407	-0.0748	-0.7886	-0.8634	58.1947	99.9709	
   324	-0.1157	-1.4505	-1.5663	 0.0488	-1.1674	-1.1184	 0.6526	-0.8949	-0.2423	59.6251	99.9743	
   325	 1.4419	-1.0505	 0.3914	 2.2026	-0.7285	 1.4743	 2.5501	-0.2385	 2.3116	60.1070	99.9684	
   326	 2.5929	-0.5918	 2.0011	 3.1570	-0.4474	 2.7096	 2.9894	-0.0928	 2.8966	59.8214	99.9547	
   327	 1.9920	-0.7356	 1.2564	 2.4513	-0.3436	 2.1078	 2.4655	 0.1039	 2.5694	58.7389	99.9590	
   328	 1.7070	-0.5465	 1.1604	 2.1503	-0.1802	 1.9702	 2.2654	 0.2998	 2.5652	58.6126	99.9659	
   329	 1.6003	-0.4233	 1.1770	 2.0772	-0.1010	 1.9763	 2.1903	 0.3855	 2.5757	58.6472	99.9672	
   330	 1.6510	-0.3354	 1.3156	 2.1077	-0.0208	 2.0870	 2.2043	 0.4377	 2.6420	58.6390	99.9658	
   331	 1.6257	-0.3794	 1.2463	 2.1085	-0.0080	 2.1005	 2.2800	 0.4726	 2.7526	58.6394	99.9666	
   332	 1.6554	-0.3904	 1.2650	 2.4788	 0.0185	 2.4974	 2.7528	 0.6057	 3.3584	59.1786	99.9670	
   333	 1.7034	-0.7357	 0.9677	 2.1369	-0.2993	 1.8377	 2.3240	 0.3353	 2.6593	58.2107	99.9738	
   334	 1.8085	-0.2412	 1.5673	 2.6769	 0.0890	 2.7660	 2.7034	 0.7507	 3.4541	58.7384	99.9652	
   335	 1.7804	-0.5889	 1.1915	 2.4803	-0.1780	 2.3024	 2.7887	 0.2011	 2.9898	59.8091	99.9584	
   336	 2.0025	-0.9452	 1.0573	 2.5274	-0.5937	 1.9338	 2.5641	-0.1862	 2.3779	59.3285	99.9574	
   337	 1.8599	-1.0449	 0.8150	 2.3964	-0.7347	 1.6618	 2.5584	-0.4083	 2.1500	59.9880	99.9581	
   338	 2.1389	-1.0793	 1.0596	 2.7726	-0.7169	 2.0558	 2.8921	-0.3266	 2.5655	59.9247	99.9561	
   339	 2.9426	-0.7133	 2.2293	 3.7940	-0.3953	 3.3987	 3.7185	 0.0533	 3.7718	60.0874	99.9486	
   340	 3.7403	-0.4517	 3.2886	 4.4355	-0.3775	 4.0580	 4.0147	 0.0686	 4.0834	60.0032	99.9502	
   341	 3.2260	-0.6732	 2.5528	 3.6770	-0.4044	 3.2727	 3.3290	 0.1018	 3.4308	58.7512	99.9552	
   342	 2.7249	-0.6710	 2.0539	 3.2284	-0.3302	 2.8984	 3.1565	 0.0630	 3.2195	59.3126	99.9537	
   343	 2.5194	-0.8084	 1.7109	 3.1234	-0.4677	 2.6558	 3.1278	 0.0565	 3.1843	59.2865	99.9623	
   344	 2.4477	-0.4772	 1.9705	 3.5427	 0.0697	 3.6125	 3.6382	 1.4695	 5.1077	57.1160	99.9887	
   345	 5.3612	 1.6696	 7.0308	 7.0322	 3.0193	10.0515	 8.4401	 5.2282	13.6684	56.6941	99.9987	
   346	10.1853	 2.8595	13.0448	10.9394	 4.5804	15.5199	13.0887	 4.4781	17.5668	62.7231	99.9270	
   347	 9.5363	 2.2840	11.8203	10.9331	 3.4661	14.3993	13.2712	 4.2715	17.5427	63.2505	99.9831	
   348	 9.9009	 1.8980	11.7988	11.3723	 2.5594	13.9319	12.8968	 3.0721	15.9688	64.5480	99.9771	
   349	 9.9970	 1.5958	11.5928	11.4268	 2.2716	13.6985	12.8828	 2.6920	15.5748	64.8092	99.9718	
   350	 9.5369	 0.8743	10.4112	10.9095	 1.1566	12.0661	11.9814	 1.9606	13.9421	64.3621	99.9905	
   351	 8.8022	 0.2619	 9.0641	10.3443	 0.2225	10.5669	10.6606	 1.2487	11.9094	63.6926	99.9891	
   352	 8.0666	-0.3655	 7.7011	 9.6696	-0.5928	 9.0769	 9.7806	 0.0493	 9.8299	65.1761	99.9724	
   353	 7.4823	-0.8735	 6.6088	 9.0619	-1.2565	 7.8055	 8.9843	-1.0666	 7.9177	66.7076	99.9440	
   354	 7.3581	-0.9191	 6.4390	 8.7186	-1.5999	 7.1187	 8.5727	-1.6655	 6.9072	67.8748	99.9442	
   355	 6.6724	-1.2144	 5.4580	 8.0504	-1.9670	 6.0835	 7.7281	-2.0673	 5.6608	67.8344	99.9349	
   356	 5.9115	-1.8858	 4.0257	 7.1520	-2.2883	 4.8638	 6.6816	-2.0885	 4.5931	65.3940	99.9359	
   357	 5.5013	-2.1457	 3.3556	 6.0478	-2.3638	 3.6841	 5.4462	-2.0273	 3.4189	62.7289	99.9534	
   358	 2.7105	-2.7227	-0.0122	 2.8487	-2.7563	 0.0925	 2.8706	-2.7225	 0.1481	62.5427	99.9591	
   359	 0.0990	-3.6097	-3.5107	 0.2217	-2.9878	-2.7661	 1.2067	-3.3689	-2.1622	63.0792	99.9263	
   360	 0.8879	-3.1087	-2.2208	 1.5209	-2.6709	-1.1499	 2.3427	-2.8234	-0.4807	63.6698	99.9378	
   361	 1.5037	-2.7113	-1.2077	 1.8294	-2.5954	-0.7660	 2.1838	-2.8213	-0.6375	63.3504	99.9395	
   362	 1.4617	-2.7796	-1.3179	 1.5977	-2.6862	-1.0884	 2.1017	-3.0895	-0.9878	63.9470	99.9372	
   363	 0.7357	-3.2430	-2.5072	 0.7684	-2.7065	-1.9380	 1.5455	-2.6391	-1.0937	61.3576	99.9594	
   364	 1.8607	-1.6775	 0.1832	 3.4351	-1.1183	 2.3170	 4.1808	-0.0167	 4.1641	60.7286	99.9846	
   365	 5.7211	-0.3451	 5.3760	 8.0059	-0.5009	 7.5051	 8.0370	 0.5026	 8.5395	63.9427	99.9669	
   366	 7.0398	-0.6492	 6.3907	 9.0252	-0.7728	 8.2525	 9.0226	 0.3339	 9.3564	63.7548	99.9771	
   367	 7.9249	-0.3208	 7.6041	 9.6569	-0.4771	 9.1799	 9.9330	 0.3602	10.2931	64.8379	99.9811	
   368	 8.2843	-0.5373	 7.7470	 9.9557	-0.5679	 9.3879	10.1741	 0.2984	10.4725	64.4913	99.9782	
   369	 8.2720	-1.0051	 7.2669	10.0341	-1.0017	 9.0325	10.1666	-0.0669	10.0997	64.5226	99.9755	
   370	 8.0376	-1.2462	 6.7914	 9.8368	-1.2815	 8.5554	 9.9943	-0.6521	 9.3422	65.6918	99.9610	
   371	 7.2346	-1.9858	 5.2488	 9.0720	-2.2006	 6.8715	 9.2035	-2.1036	 7.0999	68.0131	99.9289	
   372	 6.6162	-2.5574	 4.0588	 8.2190	-2.6301	 5.5890	 8.1559	-2.4752	 5.6807	66.7810	99.9227	
   373	 6.5051	-2.5088	 3.9964	 7.9188	-2.7870	 5.1320	 7.6327	-2.7044	 4.9284	66.7973	99.9229	
   374	 6.2891	-2.6956	 3.5935	 7.3841	-3.1968	 4.1873	 6.7007	-2.9296	 3.7711	65.5947	99.9402	
   375	 5.7993	-3.1471	 2.6522	 6.6257	-3.4457	 3.1800	 6.0115	-3.0735	 2.9380	64.3256	99.9501	
   376	 5.1504	-3.2046	 1.9458	 5.5542	-3.2917	 2.2626	 5.0119	-2.9570	 2.0549	62.7698	99.9536	
   377	 2.5057	-3.6223	-1.1165	 2.2961	-3.3620	-1.0658	 2.7460	-3.7052	-0.9592	63.5741	99.9396	
   378	 0.4391	-4.4133	-3.9743	 0.4909	-3.5901	-3.0991	 1.6521	-3.8754	-2.2233	63.1407	99.9305	
   379	 1.9549	-3.0455	-1.0907	 3.1355	-2.7186	 0.4170	 3.7634	-2.4883	 1.2751	64.0054	99.9512	
   380	 3.0193	-2.5091	 0.5102	 3.9281	-2.4366	 1.4917	 3.8548	-2.1488	 1.7060	62.8043	99.9469	
   381	 2.8383	-2.3585	 0.4798	 3.5771	-2.2417	 1.3356	 3.6330	-1.9332	 1.6997	62.3146	99.9567	
   382	 3.1234	-2.0295	 1.0939	 3.9086	-1.8808	 2.0278	 3.7754	-1.4863	 2.2890	61.5583	99.9522	
   383	 3.3578	-2.3065	 1.0512	 3.9624	-2.4035	 1.5590	 3.7750	-2.2626	 1.5124	62.9601	99.9492	
   384	 2.1569	-3.0973	-0.9404	 2.1818	-2.7648	-0.5828	 2.4993	-2.7614	-0.2621	61.8515	99.9521	
   385	 1.2519	-2.4736	-1.2217	 2.2752	-1.4867	 0.7887	 3.5098	-0.2479	 3.2619	59.2500	99.9911	
   386	 5.4220	-0.2651	 5.1569	 7.9224	-0.4897	 7.4328	 7.7377	 0.8680	 8.6057	62.9383	99.9712	
   387	 7.3346	-0.5447	 6.7899	 9.2672	-0.5030	 8.7643	 9.5956	 0.6479	10.2434	63.7261	99.9849	
   388	 7.8068	-0.7800	 7.0268	 9.5490	-0.7768	 8.7722	 9.8345	 0.2131	10.0476	64.2426	99.9826	
   389	 8.3228	-0.6582	 7.6646	 9.9968	-0.7528	 9.2441	10.2135	 0.0708	10.2843	64.8999	99.9782	
   390	 8.4591	-1.0514	 7.4078	10.1787	-1.0747	 9.1041	10.3397	-0.2354	10.1043	64.9638	99.9739	
   391	 8.1940	-1.5553	 6.6387	 9.9077	-1.5101	 8.3977	10.2531	-0.9218	 9.3313	66.0427	99.9649	
   392	 7.6727	-2.0257	 5.6471	 9.4385	-2.1270	 7.3116	 9.6815	-1.9782	 7.7033	67.8011	99.9355	
   393	 6.9756	-2.6444	 4.3312	 8.5767	-2.7099	 5.8669	 8.6223	-2.5755	 6.0468	67.2410	99.9269	
   394	 6.7334	-2.6311	 4.1022	 8.1252	-2.7979	 5.3274	 8.0211	-2.7754	 5.2457	67.1291	99.9224	
   395	 6.4999	-2.5982	 3.9016	 7.6790	-3.0184	 4.6607	 7.2656	-2.8829	 4.3827	66.4634	99.9372	
   396	 6.0783	-3.0520	 3.0262	 6.9401	-3.3790	 3.5612	 6.3282	-2.9911	 3.3371	64.5074	99.9517	
   397	 5.4530	-3.2249	 2.2280	 6.1473	-3.3279	 2.8195	 5.5421	-2.8110	 2.7311	62.8860	99.9552	
   398	 4.1910	-3.1170	 1.0740	 4.3501	-3.0822	 1.2680	 4.0533	-2.8157	 1.2376	62.0317	99.9598	
   399	 1.2385	-3.9924	-2.7539	 1.0109	-3.4360	-2.4250	 1.9067	-3.8962	-1.9896	63.5162	99.9286	
   400	 0.6254	-4.2155	-3.5901	 0.9639	-3.3533	-2.3893	 2.2632	-3.5930	-1.3298	63.6823	99.9309	
   401	 2.2540	-2.9960	-0.7420	 3.2026	-2.7891	 0.4136	 3.6408	-2.6609	 0.9800	63.9725	99.9487	
   402	 2.2557	-2.8367	-0.5809	 2.9767	-2.5555	 0.4214	 3.2190	-2.3587	 0.8603	62.5556	99.9483	
   403	 1.9838	-2.6829	-0.6991	 2.6228	-2.4117	 0.2112	 2.9473	-2.1187	 0.8286	62.0348	99.9606	
   404	 1.9654	-2.6076	-0.6421	 2.5699	-2.3203	 0.2496	 2.9484	-1.9868	 0.9616	61.8351	99.9649	
   405	 2.1849	-2.6201	-0.4351	 2.8374	-2.3930	 0.4445	 3.1250	-2.0876	 1.0374	62.1415	99.9618	
   406	 1.2981	-2.8488	-1.5506	 1.5215	-2.3250	-0.8034	 2.3025	-1.8421	 0.4604	60.5290	99.9787	
   407	 2.7135	-0.8649	 1.8486	 5.1157	-0.2499	 4.8658	 5.5399	 1.8771	 7.4170	58.6129	99.9935	
   408	 7.0111	 0.2833	 7.2944	 8.7587	 0.4357	 9.1946	 8.5650	 2.0354	10.6004	60.1563	99.9865	
   409	 7.5472	-0.0289	 7.5182	 9.3870	 0.1123	 9.4994	 9.6699	 1.2066	10.8765	63.1043	99.9808	
   410	 7.5847	-0.2942	 7.2905	 9.2806	-0.2729	 9.0078	 9.5732	 0.7655	10.3387	63.5514	99.9849	
   411	 8.0106	-0.5429	 7.4677	 9.6912	-0.5551	 9.1362	 9.7840	 0.3356	10.1195	64.0396	99.9745	
   412	 7.5531	-1.0901	 6.4630	 9.3427	-1.0990	 8.2438	 9.4592	-0.2326	 9.2265	64.5122	99.9713	
   413	 7.0213	-1.3509	 5.6705	 9.0255	-1.4390	 7.5866	 9.1673	-1.0433	 8.1241	66.4954	99.9404	
   414	 6.3111	-2.1933	 4.1178	 7.9425	-2.2668	 5.6758	 7.8724	-2.0237	 5.8487	66.1469	99.9288	
   415	 5.9839	-2.4611	 3.5229	 7.2034	-2.4053	 4.7983	 6.9175	-2.1426	 4.7749	64.5538	99.9260	
   416	 5.8449	-2.3716	 3.4733	 6.7222	-2.5606	 4.1617	 6.1831	-2.2810	 3.9021	63.9588	99.9399	
   417	 5.3455	-2.5986	 2.7469	 5.9392	-2.7874	 3.1519	 5.2756	-2.3601	 2.9155	62.5819	99.9538	
   418	 4.6048	-2.5384	 2.0664	 5.2723	-2.5738	 2.6986	 4.6889	-1.9501	 2.7388	61.3805	99.9606	
   419	 3.7731	-2.3456	 1.4275	 3.9497	-2.2878	 1.6620	 3.3566	-1.6742	 1.6824	59.4572	99.9688	
   420	 0.8477	-3.0177	-2.1699	 0.6820	-2.6354	-1.9533	 1.3414	-2.9594	-1.6179	62.3066	99.9401	
   421	-0.2316	-3.5486	-3.7801	 0.0502	-2.7090	-2.6587	 1.2112	-2.8415	-1.6303	62.0868	99.9371	
   422	 1.1224	-2.4791	-1.3567	 1.9536	-2.1254	-0.1717	 2.5008	-1.8533	 0.6475	62.1058	99.9583	
   423	 1.3726	-2.2287	-0.8561	 2.0474	-1.8466	 0.2009	 2.2836	-1.4382	 0.8454	60.5770	99.9590	
   424	 1.2047	-1.9838	-0.7791	 1.8886	-1.5724	 0.3162	 2.0500	-1.0112	 1.0388	59.6169	99.9644	
   425	 1.0053	-1.8874	-0.8820	 1.6144	-1.5038	 0.1106	 1.7349	-0.8411	 0.8938	58.9698	99.9716	
   426	 0.7037	-1.7226	-1.0190	 1.2641	-1.1851	 0.0790	 1.5524	-0.5253	 1.0271	58.4931	99.9714	
   427	 0.3398	-1.8397	-1.4999	 0.6241	-1.2884	-0.6642	 1.1641	-0.7821	 0.3820	58.7471	99.9738	
   428	 0.0391	-1.2715	-1.2324	 0.8821	-0.0711	 0.8111	 1.7111	 1.7789	 3.4900	54.3547	99.9971	
   429	 4.2269	 1.6237	 5.8506	 6.5334	 1.8909	 8.4244	 5.8978	 3.3070	 9.2049	58.3385	99.9422	
   430	 4.9544	 1.0808	 6.0352	 7.0932	 1.1683	 8.2616	 6.3484	 3.2299	 9.5783	57.2344	99.9772	
   431	 5.5762	 0.9350	 6.5112	 7.4845	 0.9977	 8.4822	 6.8290	 2.7447	 9.5736	58.2812	99.9762	
   432	 5.9557	 1.0615	 7.0173	 7.5962	 1.0283	 8.6246	 6.9188	 2.5039	 9.4227	58.8237	99.9745	
   433	 6.0064	 1.0200	 7.0264	 7.7154	 1.0757	 8.7912	 7.0337	 2.6391	 9.6728	58.5138	99.9737	
   434	 5.7318	 0.8699	 6.6018	 7.5694	 0.9010	 8.4705	 6.8555	 2.3781	 9.2336	58.9782	99.9661	
   435	 5.1266	 0.5220	 5.6486	 6.9005	 0.5211	 7.4217	 6.1876	 1.7662	 7.9538	59.5292	99.9572	
   436	 4.6062	 0.1961	 4.8023	 6.1124	 0.0938	 6.2063	 5.3143	 1.0301	 6.3444	59.9598	99.9473	
   437	 4.2336	 0.1890	 4.4226	 5.2899	 0.0775	 5.3675	 4.4075	 0.7436	 5.1511	59.4837	99.9405	
   438	 3.9372	 0.1841	 4.1213	 4.6283	 0.0476	 4.6759	 3.7899	 0.5556	 4.3455	59.1923	99.9454	
   439	 3.3285	 0.0356	 3.3641	 3.7275	 0.1321	 3.8596	 3.0514	 0.5568	 3.6082	58.2269	99.9450	
   440	 2.4076	 0.0023	 2.4099	 2.8945	 0.1589	 3.0534	 2.2635	 0.7031	 2.9666	57.4920	99.9495	
   441	 1.5794	 0.2548	 1.8342	 1.7826	 0.6216	 2.4044	 1.3570	 1.0836	 2.4407	56.2793	99.9508	
   442	-0.0254	-0.1735	-0.1989	-0.3191	 0.3006	-0.0183	-0.3176	 0.6713	 0.3537	55.4479	99.9662	
   443	-1.9338	-1.2439	-3.1778	-1.8639	-0.6831	-2.5469	-1.4594	-0.3149	-1.7742	56.6509	99.9657	
   444	-1.7685	-1.1450	-2.9135	-1.3671	-0.3703	-1.7373	-0.7169	 0.2001	-0.5168	56.7341	99.9692	
   445	-0.6175	-0.1682	-0.7857	-0.2447	 0.5801	 0.3355	 0.1182	 0.9678	 1.0860	56.5953	99.9523	
   446	-0.7547	 0.0806	-0.6741	-0.3342	 0.9331	 0.5990	-0.0938	 1.4845	 1.3907	55.3893	99.9531	
   447	-0.9602	 0.3317	-0.6285	-0.6934	 1.2094	 0.5161	-0.4799	 1.8192	 1.3393	54.4416	99.9584	
   448	-1.2741	 0.4171	-0.8570	-1.0705	 1.4009	 0.3305	-0.7410	 2.0438	 1.3028	53.9221	99.9608	
   449	-1.4516	 0.7569	-0.6947	-1.2651	 1.6164	 0.3515	-1.0702	 2.3801	 1.3099	53.2414	99.9691	
   450	-1.6282	 0.9821	-0.6461	-1.4402	 1.8313	 0.3912	-1.2932	 2.6824	 1.3892	52.6535	99.9727	
   451	-1.6999	 1.3133	-0.3865	-1.4537	 2.0453	 0.5916	-1.3831	 3.0325	 1.6494	52.2889	99.9801	
   452	-1.6998	 1.5723	-0.1275	-1.4270	 2.2835	 0.8566	-1.4794	 3.3677	 1.8883	51.6682	99.9817	
   453	-1.7356	 1.8675	 0.1318	-1.4137	 2.5137	 1.1001	-1.6415	 3.8599	 2.2184	50.5922	99.9887	
   454	-1.6621	 2.2136	 0.5515	-1.2119	 2.7592	 1.5474	-1.5765	 4.2381	 2.6616	50.2972	99.9906	
   455	-1.4434	 2.5747	 1.1314	-1.0429	 3.1082	 2.0654	-1.5749	 4.7091	 3.1341	49.3603	99.9918	
   456	-1.2579	 2.8872	 1.6293	-0.8485	 3.3368	 2.4884	-1.5404	 5.0469	 3.5065	48.8287	99.9930	
   457	-1.1695	 3.2279	 2.0583	-0.7652	 3.6586	 2.8936	-1.5734	 5.3986	 3.8252	48.3307	99.9918	
   458	-1.1599	 3.5214	 2.3616	-0.7422	 3.8330	 3.0909	-1.6603	 5.6958	 4.0355	47.8953	99.9941	
   459	-1.1878	 3.8212	 2.6334	-0.7735	 4.0731	 3.2997	-1.8141	 6.0181	 4.2040	47.3066	99.9942	
   460	-1.2070	 4.0112	 2.8042	-0.8086	 4.2494	 3.4408	-1.9409	 6.3130	 4.3721	46.6167	99.9947	
   461	-1.1685	 4.1493	 2.9808	-0.8057	 4.4115	 3.6059	-1.9944	 6.4884	 4.4940	46.2185	99.9942	
   462	-1.2175	 4.2207	 3.0033	-0.8333	 4.4936	 3.6603	-2.0302	 6.5651	 4.5349	46.1611	99.9936	
   463	-1.3154	 4.2340	 2.9186	-0.9689	 4.4979	 3.5291	-2.0794	 6.4915	 4.4121	46.4471	99.9945	
   464	-1.4868	 4.1602	 2.6734	-1.2088	 4.4885	 3.2798	-2.2378	 6.3957	 4.1579	46.4774	99.9945	
   465	-1.7938	 3.8469	 2.0531	-1.6200	 4.2028	 2.5830	-2.5051	 5.9497	 3.4446	46.9437	99.9948	
   466	-2.2460	 3.5187	 1.2727	-2.1042	 3.9964	 1.8923	-2.8752	 5.7148	 2.8396	46.8238	99.9945	
   467	-2.5617	 3.4448	 0.8831	-2.3956	 4.1040	 1.7085	-3.1034	 5.9155	 2.8121	46.1519	99.9944	
   468	-2.6632	 3.5280	 0.8648	-2.4538	 4.3279	 1.8742	-3.0942	 6.2053	 3.1112	45.7674	99.9941	
   469	-2.5127	 3.7619	 1.2492	-2.1872	 4.6866	 2.4995	-2.9313	 6.9379	 4.0065	44.4488	99.9966	
   470	-2.2302	 4.1757	 1.9455	-1.8864	 5.3004	 3.4140	-2.7908	 7.6788	 4.8880	43.1826	99.9936	
   471	-1.9668	 4.6498	 2.6830	-1.7832	 6.3006	 4.5174	-2.7225	 8.7804	 6.0579	41.0211	99.9883	
   472	-1.5741	 5.2590	 3.6850	-1.5438	 7.4202	 5.8765	-2.6121	 9.9294	 7.3174	38.9107	99.9756	
   473	-1.1035	 5.6414	 4.5379	-1.1819	 7.9723	 6.7905	-2.4679	10.4102	 7.9422	37.9170	99.9615	
   474	-1.4035	 5.5770	 4.1735	-1.4389	 7.7798	 6.3411	-2.6556	10.2966	 7.6410	38.1656	99.9714	
   475	-0.9933	 5.8369	 4.8436	-1.2186	 8.3450	 7.1265	-2.5860	10.8743	 8.2883	36.6552	99.9606	
   476	-1.1139	 5.9805	 4.8666	-1.3438	 8.5284	 7.1847	-2.6958	11.0593	 8.3636	36.4317	99.9599	
   477	-1.0588	 6.1430	 5.0842	-1.3051	 8.7492	 7.4441	-2.5826	11.1606	 8.5780	36.6769	99.9543	
   478	-1.0789	 6.3180	 5.2391	-1.4245	 9.1459	 7.7215	-2.4524	11.2613	 8.8089	37.1410	99.9393	
   479	-1.0430	 6.5409	 5.4979	-1.3851	 9.3795	 7.9945	-2.2917	11.4022	 9.1105	37.5628	99.9378	
   480	-0.8751	 6.6846	 5.8096	-1.3242	 9.7619	 8.4378	-2.1281	11.7089	 9.5808	37.2164	99.9286	
   481	-0.8033	 6.8715	 6.0681	-1.3131	10.0647	 8.7517	-1.9252	11.7880	 9.8628	37.7520	99.9161	
   482	-0.7561	 7.0292	 6.2732	-1.3334	10.3856	 9.0524	-1.8695	11.9857	10.1161	37.6306	99.9026	
   483	-0.7831	 7.2145	 6.4313	-1.3767	10.6432	 9.2667	-1.7358	12.0447	10.3089	38.2173	99.8902	
   484	-0.7446	 7.3526	 6.6080	-1.3820	10.8868	 9.5049	-1.5211	12.0216	10.5005	38.9879	99.8712	
   485	-0.7874	 7.5284	 6.7410	-1.4872	11.3044	 9.8173	-1.4402	12.1581	10.7178	39.2716	99.8378	
   486	-0.7454	 7.7262	 6.9808	-1.4001	11.5792	10.1791	-1.1974	12.2394	11.0421	39.9652	99.8177	
   487	-0.7550	 7.9507	 7.1957	-1.3645	11.9709	10.6065	-1.0795	12.4310	11.3515	40.2325	99.7833	
   488	-0.7786	 8.0661	 7.2875	-1.3922	12.1640	10.7719	-0.9429	12.4372	11.4943	40.8032	99.7638	
   489	-0.8826	 8.2340	 7.3514	-1.4452	12.3664	10.9213	-0.9535	12.5619	11.6085	40.9774	99.7510	
   490	-0.8931	 8.3141	 7.4209	-1.5764	12.5585	10.9822	-1.0732	12.6644	11.5912	40.6057	99.7350	
   491	-0.9718	 8.3964	 7.4246	-1.6181	12.6196	11.0016	-1.1647	12.7620	11.5973	40.4454	99.7367	
   492	-0.9701	 8.4263	 7.4562	-1.6912	12.6988	11.0078	-1.2785	12.8680	11.5895	39.9686	99.7368	
   493	-0.9692	 8.4412	 7.4720	-1.7806	12.8298	11.0493	-1.2451	12.8555	11.6104	40.1049	99.7191	
   494	-0.9989	 8.5817	 7.5828	-1.7986	13.0781	11.2796	-1.0750	12.8491	11.7741	40.8418	99.6844	
   495	-1.0443	 8.7127	 7.6684	-1.8441	13.2973	11.4533	-1.0598	13.0332	11.9734	40.7718	99.6759	
   496	-1.0758	 8.8234	 7.7476	-1.9150	13.5259	11.6110	-1.0176	13.0806	12.0630	41.0178	99.6462	
   497	-1.0810	 8.9929	 7.9119	-1.9382	13.7957	11.8576	-0.8017	13.1894	12.3876	41.6012	99.6312	
   498	-1.1632	 9.2747	 8.1115	-1.8981	14.1531	12.2551	-0.5765	13.3694	12.7929	42.3707	99.6033	
   499	-1.0530	 9.3406	 8.2877	-1.7782	14.3244	12.5462	-0.5374	13.6883	13.1509	41.6590	99.6122	
   500	-1.0153	 9.4639	 8.4485	-1.6672	14.3421	12.6750	-0.5809	14.0554	13.4745	40.8764	99.6656	
   501	-0.9935	 9.5777	 8.5842	-1.6703	14.5131	12.8429	-0.4771	14.0855	13.6084	41.2123	99.6475	
   502	-0.9978	 9.6326	 8.6348	-1.7180	14.5829	12.8650	-0.5405	14.1783	13.6378	40.9549	99.6510	
   503	-1.0555	 9.6844	 8.6289	-1.7433	14.5923	12.8490	-0.6760	14.3039	13.6279	40.5416	99.6634	
   504	-1.0503	 9.7739	 8.7236	-1.7493	14.7120	12.9628	-0.5981	14.4932	13.8952	40.4533	99.6796	
   505	-0.8255	 9.9804	 9.1549	-1.5430	14.9232	13.3803	-0.3982	14.9530	14.5549	39.8693	99.7185	
   506	-0.7406	10.0024	 9.2618	-1.5684	14.9325	13.3643	-0.3911	14.8699	14.4788	39.9500	99.7133	
   507	-0.8246	 9.9953	 9.1707	-1.6474	15.0205	13.3732	-0.4316	14.9656	14.5340	39.7847	99.7087	
   508	-0.8455	10.1554	 9.3099	-1.5744	15.0523	13.4780	-0.4962	15.1451	14.6489	39.5426	99.7276	
   509	-0.9540	10.1193	 9.1653	-1.6190	14.9513	13.3323	-0.6141	14.9536	14.3395	39.8097	99.7114	
   510	-0.9750	10.0204	 9.0454	-1.7457	14.9980	13.2524	-0.6123	14.8781	14.2659	39.8522	99.6944	
   511	-0.8193	10.2143	 9.3950	-1.7414	15.2968	13.5555	-0.4252	15.1990	14.7737	39.6469	99.7096	
   512	-0.6671	10.3486	 9.6815	-1.5574	15.3464	13.7892	-0.5650	15.5735	15.0085	38.4479	99.7398	
   513	-0.7065	10.3250	 9.6185	-1.6430	15.3193	13.6763	-0.4992	15.3073	14.8081	39.2118	99.7185	
   514	-0.7502	10.2269	 9.4767	-1.6877	15.2182	13.5306	-0.4962	15.1451	14.6489	39.4873	99.7129	
   515	-0.7808	10.2230	 9.4421	-1.6907	15.2781	13.5875	-0.5408	15.1619	14.6211	39.3921	99.6966	
   516	-0.7843	10.2928	 9.5085	-1.6684	15.3286	13.6604	-0.5691	15.4945	14.9255	38.7298	99.7350	
   517	-0.6033	10.4012	 9.7979	-1.4903	15.3870	13.8967	-0.4964	15.8008	15.3044	38.1017	99.7661	
   518	-0.5280	10.3886	 9.8606	-1.4143	15.3589	13.9447	-0.3098	15.5640	15.2542	38.9004	99.7468	
   519	-0.5333	10.2992	 9.7659	-1.4023	15.2304	13.8282	-0.2681	15.3816	15.1135	39.2552	99.7436	
   520	-0.6024	10.2866	 9.6842	-1.4530	15.2491	13.7962	-0.1941	15.2733	15.0791	39.7701	99.7309	
   521	-0.6409	10.2779	 9.6371	-1.3710	15.1013	13.7304	-0.2763	15.2236	14.9473	39.7351	99.7398	
   522	-0.6225	10.2026	 9.5801	-1.4880	15.2033	13.7153	-0.2317	15.2068	14.9752	39.7215	99.7250	
   523	-0.5184	10.2937	 9.7752	-1.3263	15.2023	13.8761	-0.1120	15.3230	15.2109	39.7207	99.7442	
   524	-0.3733	10.1791	 9.8058	-1.2220	15.1050	13.8831	-0.0046	15.2021	15.1975	39.7894	99.7413	
   525	-0.3890	10.1697	 9.7807	-1.1430	15.0171	13.8742	 0.0652	15.0149	15.0801	40.3741	99.7293	
   526	-0.3646	10.0692	 9.7047	-1.2100	14.9765	13.7666	 0.0652	15.0149	15.0801	40.1643	99.7382	
   527	-0.3383	 9.9986	 9.6603	-1.1847	14.9672	13.7826	 0.0652	15.0149	15.0801	40.0010	99.7326	
   528	-0.2938	 9.9821	 9.6884	-1.1683	15.0264	13.8582	 0.1878	14.9688	15.1567	40.2860	99.7199	
   529	-0.1608	10.0473	 9.8865	-0.9403	14.9422	14.0020	 0.4260	14.9599	15.3860	40.7411	99.7400	
   530	-0.0130	 9.9775	 9.9645	-0.8769	14.9188	14.0420	 0.5780	14.8224	15.4004	41.0213	99.7296	
   531	-0.0025	 9.8975	 9.8949	-0.8270	14.7763	13.9494	 0.5739	14.7434	15.3173	41.0323	99.7382	
   532	 0.0726	 9.7554	 9.8281	-0.8240	14.7164	13.8926	 0.7459	14.4430	15.1889	41.7241	99.7111	
   533	 0.0822	 9.6605	 9.7427	-0.7196	14.6191	13.8996	 0.6273	14.5680	15.1954	40.9969	99.7241	
   534	 0.1461	 9.7131	 9.8592	-0.6593	14.6556	13.9964	 0.8374	14.5640	15.4013	41.4738	99.7302	
   535	 0.4233	 9.6488	10.0721	-0.5356	14.6687	14.1332	 1.1160	14.4594	15.5754	41.7605	99.7236	
   536	 0.5536	 9.5397	10.0933	-0.3933	14.5574	14.1642	 1.2627	14.3295	15.5922	41.9766	99.7209	
   537	 0.5920	 9.4189	10.0109	-0.3903	14.4975	14.1074	 1.3919	13.9705	15.3624	42.7974	99.6811	
   538	 0.6445	 9.2776	 9.9221	-0.3462	14.3637	14.0176	 1.3825	13.8992	15.2818	42.6042	99.6862	
   539	 0.6200	 9.2486	 9.8686	-0.2449	14.2153	13.9705	 1.4066	13.8154	15.2220	42.8391	99.6957	
   540	 0.7888	 9.1482	 9.9369	-0.1786	14.2430	14.0646	 1.6853	13.7108	15.3961	43.2511	99.6835	
   541	 1.0065	 9.1058	10.1124	 0.0592	14.1030	14.1623	 1.9305	13.6187	15.5493	43.5713	99.6991	
   542	 1.1499	 8.9615	10.1114	 0.1635	14.0057	14.1693	 2.1313	13.3248	15.4561	44.1944	99.6730	
   543	 1.1875	 8.8257	10.0132	 0.1569	13.8906	14.0476	 2.2540	13.0602	15.3142	44.7713	99.6580	
   544	 1.1919	 8.7708	 9.9626	 0.2329	13.7515	13.9845	 2.3080	12.8962	15.2041	45.1627	99.6569	
   545	 1.2303	 8.6499	 9.8802	 0.2613	13.6823	13.9436	 2.3268	12.8201	15.1469	45.1038	99.6505	
   546	 1.2740	 8.6185	 9.8925	 0.3373	13.6542	13.9916	 2.5274	12.7448	15.2722	45.5958	99.6502	
   547	 1.5416	 8.5197	10.0613	 0.5526	13.5747	14.1274	 2.8765	12.6827	15.5592	45.8942	99.6629	
   548	 1.6955	 8.4248	10.1203	 0.6413	13.5419	14.1833	 3.1746	12.2948	15.4694	47.0178	99.6164	
   549	 1.7628	 8.2780	10.0409	 0.7397	13.3423	14.0822	 3.2234	12.1384	15.3618	47.1169	99.6233	
   550	 1.7943	 8.1674	 9.9617	 0.8411	13.1939	14.0351	 3.2692	11.9257	15.1949	47.4631	99.6085	
   551	 1.8275	 8.0865	 9.9141	 0.8225	13.0963	13.9189	 3.2991	11.8454	15.1446	47.5175	99.6185	
   552	 1.8170	 8.0371	 9.8541	 0.9015	13.0083	13.9100	 3.2346	11.8064	15.0410	47.3975	99.6158	
   553	 1.8887	 7.9649	 9.8536	 0.9746	12.9291	13.9038	 3.5244	11.6976	15.2220	48.0341	99.6273	
   554	 2.1580	 7.8959	10.0540	 1.1519	12.9747	14.1266	 3.9815	11.5260	15.5075	48.8564	99.6039	
   555	 2.3198	 7.8057	10.1255	 1.4150	12.7142	14.1293	 4.1340	11.3997	15.5338	49.0573	99.6306	
   556	 2.3696	 7.6197	 9.9893	 1.5172	12.4675	13.9848	 4.1165	11.2798	15.3963	48.8902	99.6460	
   557	 2.3714	 7.5200	 9.8914	 1.6417	12.1603	13.8022	 4.1236	11.0873	15.2109	49.1764	99.6698	
   558	 2.3897	 7.4447	 9.8344	 1.6865	12.0393	13.7259	 4.0455	11.1166	15.1622	48.7776	99.6877	
   559	 2.3932	 7.3748	 9.7680	 1.7253	11.9271	13.6524	 4.0726	10.9800	15.0525	49.0260	99.6853	
   560	 2.3608	 7.3411	 9.7019	 1.7738	11.7590	13.5328	 3.9189	10.9744	14.8933	48.7023	99.7049	
   561	 2.3591	 7.3112	 9.6703	 1.7514	11.8195	13.5709	 4.0280	10.9967	15.0247	48.8322	99.7008	
   562	 2.5252	 7.2956	 9.8208	 1.9153	11.8569	13.7723	 4.4381	10.9060	15.3441	49.6205	99.6933	
   563	 2.5226	 6.9918	 9.5144	 2.0803	11.0189	13.0992	 3.7108	10.5752	14.2859	48.3059	99.7472	
   564	 2.0319	 6.6550	 8.6868	 2.0687	10.0371	12.1059	 2.8514	10.4377	13.2891	46.9369	99.8325	
   565	 1.5727	 6.4664	 8.0392	 2.0130	 9.6332	11.6463	 2.6227	10.4085	13.0312	46.9252	99.8628	
   566	 1.1180	 6.4820	 7.6000	 1.7158	 9.4164	11.1323	 1.8343	10.3249	12.1592	46.1409	99.8564	
   567	 0.9815	 6.0981	 7.0796	 1.9233	 8.6411	10.5644	 1.6648	10.1240	11.7888	45.7706	99.9010	
   568	 1.3750	 5.8157	 7.1907	 2.4130	 8.1599	10.5729	 2.0258	 9.6319	11.6577	46.5808	99.9006	
   569	 1.7046	 5.6102	 7.3148	 2.7193	 7.8639	10.5833	 2.2775	 9.3361	11.6136	46.9260	99.9038	
   570	 2.0833	 5.5922	 7.6755	 2.9980	 7.7610	10.7591	 2.4536	 9.2240	11.6776	46.9170	99.9060	
   571	 1.9354	 5.2735	 7.2089	 2.9178	 7.1572	10.0750	 1.8799	 9.0080	10.8879	45.7760	99.9220	
   572	 1.5103	 4.8896	 6.3999	 2.1862	 6.9245	 9.1108	 1.2129	 9.0744	10.2873	44.0810	99.9490	
   573	 1.0915	 5.5166	 6.6081	 1.9316	 8.3376	10.2693	 2.1940	10.1381	12.3321	45.7168	99.9396	
   574	 2.8495	 6.4826	 9.3321	 2.8055	10.2482	13.0539	 4.6883	10.0299	14.7182	50.2440	99.7976	
   575	 2.5880	 6.2972	 8.8853	 2.7945	 9.9454	12.7400	 4.5041	 9.9840	14.4881	50.0430	99.8185	
   576	 2.3851	 5.9455	 8.3306	 2.9409	 9.0098	11.9507	 3.9603	 9.9064	13.8667	48.7655	99.8980	
   577	 3.4897	 6.5204	10.0101	 3.1314	11.4078	14.5393	 7.1383	10.6055	17.7438	52.8821	99.7560	
   578	 5.6318	 8.5940	14.2259	 5.9941	12.8061	18.8003	10.1985	12.7636	22.9621	54.2302	99.8680	
   579	 8.2267	 9.3272	17.5539	 8.2688	12.8739	21.1428	10.5009	15.4279	25.9288	46.7164	99.9784	
   580	 8.2773	 9.0266	17.3039	 8.5527	12.6384	21.1913	11.3258	15.1182	26.4440	48.3831	99.9731	
   581	 8.3393	 8.5314	16.8707	 8.2237	11.9828	20.2066	11.4396	11.4925	22.9321	55.5885	99.8554	
   582	 7.2837	 8.1441	15.4278	 7.6605	11.6422	19.3029	10.5576	10.9149	21.4725	56.0907	99.8047	
   583	 6.3446	 8.8337	15.1783	 6.6471	12.0165	18.6637	 9.5250	11.3831	20.9081	55.6260	99.8365	
   584	 5.1265	 9.4282	14.5547	 5.4763	12.6904	18.1668	 8.2289	12.0307	20.2596	54.4517	99.8218	
   585	 4.3123	 9.6603	13.9726	 4.9190	12.8962	17.8153	 7.5196	12.3775	19.8971	53.8643	99.8247	
   586	 4.0290	 9.7497	13.7787	 4.7603	12.8373	17.5976	 7.5433	11.7359	19.2792	56.0001	99.7706	
   587	 3.6800	 9.4976	13.1776	 3.7558	13.1429	16.8988	 6.8223	11.8571	18.6794	54.3816	99.7384	
   588	 3.3363	 9.4645	12.8009	 3.2571	13.6927	16.9499	 6.6765	12.7745	19.4510	52.3841	99.7639	
   589	 3.4790	 9.9528	13.4317	 3.9970	13.7330	17.7300	 6.9807	13.6035	20.5842	51.7218	99.8481	
   590	 3.6146	10.1922	13.8068	 4.1057	13.8234	17.9292	 6.8785	13.8259	20.7044	51.2398	99.8625	
   591	 3.5166	10.3350	13.8517	 4.1064	13.9472	18.0537	 6.5621	14.4105	20.9727	49.7067	99.8905	
   592	 3.3837	10.3993	13.7831	 3.8777	13.9076	17.7854	 6.4197	14.1822	20.6019	50.2383	99.8850	
   593	 3.2526	10.4935	13.7461	 3.6630	14.1109	17.7741	 6.2237	14.3478	20.5715	49.8366	99.8783	
   594	 3.0978	10.5735	13.6713	 3.5580	14.0844	17.6425	 5.7883	14.6090	20.3973	48.7557	99.8958	
   595	 2.8896	10.5208	13.4105	 3.0640	14.2669	17.3309	 5.3877	14.6616	20.0493	48.0556	99.8815	
   596	 2.7287	10.4965	13.2252	 2.9112	14.1992	17.1105	 5.4183	14.3741	19.7924	48.9594	99.8706	
   597	 2.7646	10.5899	13.3545	 2.8993	14.3277	17.2270	 5.2762	14.7035	19.9797	48.0432	99.8827	
   598	 2.7594	10.6299	13.3893	 2.9246	14.3183	17.2430	 5.1647	14.7453	19.9100	47.7979	99.8847	
   599	 2.6876	10.5726	13.2602	 2.6079	14.4353	17.0433	 4.8972	14.8458	19.7429	47.0392	99.8803	
   600	 2.5241	10.7625	13.2866	 2.5483	14.5226	17.0709	 4.6114	15.1428	19.7542	46.3646	99.8937	
   601	 2.4349	10.7954	13.2303	 2.3799	14.5195	16.8994	 4.5581	14.8810	19.4391	47.0235	99.8795	
   602	 2.2959	10.8848	13.1807	 2.3202	14.6068	16.9271	 4.1432	15.3186	19.4618	45.5563	99.8953	
   603	 2.1350	10.8605	12.9954	 1.9238	14.6879	16.6118	 4.2144	14.8260	19.0404	47.0062	99.8609	
   604	 1.9767	10.7513	12.7280	 1.5975	14.7496	16.3472	 3.8976	14.8529	18.7505	46.3428	99.8514	
   605	 1.8630	10.7552	12.6182	 1.6027	14.6170	16.2199	 3.8795	14.5031	18.3827	47.2732	99.8345	
   606	 1.9321	10.7678	12.6998	 1.5468	14.7683	16.3152	 3.8372	14.7836	18.6208	46.4672	99.8425	
   607	 1.9679	10.8612	12.8291	 1.7875	14.6794	16.4670	 3.6124	15.0520	18.6644	45.4899	99.8651	
   608	 1.8823	10.9538	12.8360	 1.5185	14.8375	16.3561	 3.3988	15.3162	18.7151	44.7398	99.8770	
   609	 1.7476	10.8588	12.6063	 1.3061	14.8572	16.1634	 3.4213	14.7614	18.1827	46.0756	99.8255	
   610	 1.5595	10.8901	12.4496	 1.1504	14.8494	15.9999	 3.0916	14.9772	18.0688	45.2376	99.8428	
   611	 1.4713	11.0674	12.5387	 1.1541	14.9133	16.0675	 2.9882	15.2863	18.2746	44.7716	99.8668	
   612	 1.4240	11.1687	12.5927	 1.0661	15.0699	16.1361	 2.5557	15.8225	18.3782	42.8899	99.8856	
   613	 1.2631	11.1443	12.4074	 0.8001	15.1681	15.9683	 2.2219	15.8501	18.0720	42.3095	99.8724	
   614	 1.1381	11.2133	12.3514	 0.7658	15.2461	16.0120	 1.9572	16.3348	18.2920	40.9971	99.8960	
   615	 1.1652	11.2871	12.4523	 0.8291	15.2227	16.0519	 2.1021	16.2804	18.3825	41.5162	99.9006	
   616	 1.2194	11.3052	12.5246	 0.8925	15.1993	16.0919	 2.0123	16.4119	18.4242	40.9687	99.9093	
   617	 1.1600	11.3271	12.4871	 0.7948	15.3007	16.0956	 1.7776	16.5978	18.3753	40.1743	99.9080	
   618	 1.1416	11.4025	12.5441	 0.7948	15.3007	16.0956	 1.6766	16.8427	18.5193	39.5802	99.9255	
   619	 1.0944	11.3742	12.4686	 0.7658	15.2461	16.0120	 1.5435	16.6856	18.2291	39.6346	99.9157	
   620	 0.8740	11.3718	12.2458	 0.5721	15.2523	15.8245	 1.3565	16.3648	17.7212	40.2562	99.8885	
   621	 0.7726	11.3254	12.0980	 0.3687	15.2033	15.5721	 1.4740	15.6707	17.1448	42.1283	99.8445	
   622	 0.7018	11.5421	12.2438	 0.3604	15.3958	15.7563	 0.7180	17.2026	17.9205	37.5667	99.9283	
   623	 0.6511	11.9722	12.6233	 0.4020	15.7788	16.1808	 0.3937	18.6241	19.0178	34.6844	99.9742	
   624	 0.7963	11.9871	12.7834	 0.5771	15.7859	16.3631	 0.1963	19.4229	19.6191	32.4267	99.9921	
   625	 1.1916	12.3821	13.5737	 1.5523	15.9809	17.5333	-0.0028	21.7290	21.7263	27.6136	99.9920	
   626	 1.6875	12.2904	13.9779	 1.9348	15.2128	17.1477	 1.9146	17.3802	19.2948	39.4697	99.9633	
   627	 1.5877	11.7558	13.3435	 1.1912	15.2196	16.4109	 1.3664	16.5566	17.9230	39.2232	99.9076	
   628	 1.0226	11.1874	12.2100	 0.3189	14.9017	15.2207	 1.0932	14.2379	15.3311	43.8030	99.6994	
   629	 0.3946	10.4517	10.8463	-0.2829	14.3403	14.0575	 0.6149	13.1176	13.7326	45.1159	99.5895	
   630	-0.1153	10.0458	 9.9304	-0.9706	14.3069	13.3364	-0.0461	12.9690	12.9229	44.0640	99.5356	
   631	-0.6759	10.0699	 9.3940	-1.4362	14.3091	12.8729	-0.7771	13.1169	12.3398	42.9986	99.5319	
   632	-1.7726	10.1473	 8.3747	-2.5257	14.7114	12.1858	-1.7962	13.6260	11.8298	41.4514	99.5217	
   633	-1.9326	10.0083	 8.0757	-2.8706	14.6755	11.8050	-1.9340	13.4879	11.5539	41.4821	99.5216	
   634	-2.0463	10.1417	 8.0954	-3.0070	14.7781	11.7712	-2.1752	13.7683	11.5931	40.6762	99.5517	
   635	-1.9299	10.5711	 8.6412	-2.5848	15.3666	12.7819	-1.5026	14.4705	12.9679	41.2666	99.5674	
   636	-0.5088	10.3282	 9.8194	-1.3850	14.6363	13.2514	-0.3820	13.8370	13.4550	42.4279	99.6418	
   637	 0.4087	10.8199	11.2285	-0.4159	15.1730	14.7573	 0.7422	14.9218	15.6640	41.8579	99.7375	
   638	 0.5005	10.8317	11.3321	-0.2988	15.0711	14.7723	 0.7463	15.0007	15.7470	41.5478	99.7634	
   639	 0.4096	10.9643	11.3738	-0.3525	15.1497	14.7972	 0.5821	14.9014	15.4834	41.7673	99.7340	
   640	 0.2504	10.8402	11.0906	-0.4919	15.2011	14.7094	 0.5000	14.8517	15.3516	41.7556	99.7065	
   641	 0.3002	10.7837	11.0839	-0.5172	15.2105	14.6934	 0.5739	14.7434	15.3173	41.9894	99.6935	
   642	 0.2503	10.5812	10.8315	-0.6192	15.1241	14.5049	 0.5764	14.3514	14.9278	42.6225	99.6429	
   643	 0.1707	10.1306	10.3013	-0.7733	14.6977	13.9245	 0.4917	13.3710	13.8626	44.0373	99.5461	
   644	-0.0988	 9.4226	 9.3237	-1.1732	14.2707	13.0976	 0.0661	12.6106	12.6766	44.0267	99.4437	
   645	-0.4784	 9.2961	 8.8177	-1.3855	14.1794	12.7939	-0.1768	12.6385	12.4617	43.8323	99.4503	
   646	-0.7539	 9.2607	 8.5068	-1.5084	13.9570	12.4487	-0.7207	12.7794	12.0587	42.6205	99.4925	
   647	-0.8781	 9.0856	 8.2075	-1.5067	13.4274	11.9208	-1.1430	12.6331	11.4901	41.8382	99.5551	
   648	-0.9088	 8.5636	 7.6548	-1.5592	12.4085	10.8494	-1.9113	12.1681	10.2568	40.0986	99.6363	
   649	-1.6367	 7.1639	 5.5273	-2.3873	 9.5014	 7.1142	-3.9463	10.8272	 6.8808	36.6978	99.8857	
   650	-2.9941	 6.1643	 3.1702	-3.3701	 7.9444	 4.5744	-4.3794	 9.4829	 5.1035	39.7570	99.9496	
   651	-2.6617	 7.0396	 4.3779	-2.9193	 9.6979	 6.7786	-3.8462	11.4452	 7.5990	37.4245	99.9217	
   652	-1.2001	 8.1303	 6.9302	-1.6498	11.8477	10.1980	-1.3728	12.3628	10.9900	40.8027	99.8066	
   653	 0.1251	 9.6142	 9.7393	-0.6026	14.5172	13.9146	 1.4013	14.0417	15.4430	43.7909	99.7086	
   654	 1.7388	10.9686	12.7075	 1.1585	15.1011	16.2597	 2.7356	16.4452	19.1807	41.1202	99.9242	
   655	 2.1674	11.2827	13.4502	 1.7157	15.2283	16.9442	 2.7118	17.4145	20.1263	38.8395	99.9628	
   656	 2.1884	11.3816	13.5701	 1.9944	15.1254	17.1200	 2.9236	17.3350	20.2586	39.6008	99.9662	
   657	 2.2453	11.3149	13.5602	 2.0235	15.1800	17.2036	 3.0292	17.1804	20.2096	39.9549	99.9548	
   658	 2.2269	11.2608	13.4877	 2.0995	15.1519	17.2515	 3.0297	17.5195	20.5492	39.2192	99.9679	
   659	 2.1140	11.1501	13.2641	 1.8641	15.1083	16.9724	 3.2136	16.6798	19.8934	41.3614	99.9358	
   660	 1.9592	11.1006	13.0598	 1.8589	14.9077	16.7668	 3.0182	16.8567	19.8748	40.7414	99.9554	
   661	 2.0493	11.2121	13.2614	 1.9058	15.1582	17.0640	 3.0796	17.2765	20.3561	40.0462	99.9596	
   662	 2.1316	11.3188	13.4504	 2.1882	15.1192	17.3075	 2.8083	18.0742	20.8825	37.8686	99.9842	
   663	 2.1106	11.6084	13.7191	 2.2924	15.3550	17.6475	 2.6169	18.7672	21.3841	36.5525	99.9923	
   664	 2.2576	11.7827	14.0403	 2.8222	15.2312	18.0535	 2.7493	19.2409	21.9901	35.9575	99.9991	
   665	 2.3669	11.8338	14.2007	 2.9652	15.2437	18.2090	 2.6741	19.5451	22.2192	35.0982	99.9998	
   666	 2.3870	11.9178	14.3048	 3.0666	15.2062	18.2729	 2.7702	19.6471	22.4173	35.2157	99.9997	
   667	 2.3520	11.8393	14.1913	 2.8855	15.2078	18.0934	 2.7593	19.1048	21.8641	36.1558	99.9985	
   668	 2.2471	11.6038	13.8508	 2.4593	15.2215	17.6809	 2.7490	18.4646	21.2135	37.1969	99.9903	
   669	 2.1465	11.4428	13.5893	 2.1606	15.2012	17.3619	 2.9294	17.5572	20.4865	39.3312	99.9671	
   670	 1.9121	11.3313	13.2434	 1.7374	15.1550	16.8925	 2.9178	16.8943	19.8122	40.8800	99.9456	
   671	 1.7669	11.1868	12.9537	 1.4916	15.0434	16.5350	 2.9920	16.3489	19.3409	42.1974	99.9273	
   672	 1.7336	11.1382	12.8718	 1.4029	15.0761	16.4791	 3.0365	16.3322	19.3687	42.3091	99.9247	
   673	 1.8849	11.1280	13.0129	 1.5586	15.0839	16.6426	 3.0523	16.5275	19.5799	41.6664	99.9324	
   674	 1.9007	11.1374	13.0381	 1.6219	15.0605	16.6826	 3.1080	16.5066	19.6147	41.8229	99.9330	
   675	 1.8910	11.1029	12.9939	 1.5549	15.0200	16.5750	 3.0870	16.2097	19.2967	42.3606	99.9190	
   676	 1.6759	10.9309	12.6068	 1.2681	14.8712	16.1394	 3.0245	15.5488	18.5733	43.7135	99.8873	
   677	 1.5289	10.7566	12.2856	 0.9187	14.8696	15.7884	 2.8575	15.0651	17.9226	44.3542	99.8447	
   678	 1.3592	10.7126	12.0719	 0.8263	14.8384	15.6648	 2.6880	14.8642	17.5522	44.6309	99.8207	
   679	 1.4230	10.5062	11.9293	 0.7749	14.7333	15.5084	 2.7374	14.5006	17.2380	45.0948	99.7921	
   680	 1.5140	10.3736	11.8876	 0.8539	14.6454	15.4994	 2.8560	14.3755	17.2315	45.2600	99.7867	
   681	 1.6364	10.3894	12.0258	 0.9776	14.6585	15.6362	 3.1252	14.5275	17.6527	45.3369	99.8100	
   682	 1.6583	10.5032	12.1615	 0.9150	14.8057	15.7208	 3.1351	14.6101	17.7452	45.3320	99.8062	
   683	 1.6845	10.4325	12.1171	 0.9180	14.7458	15.6639	 2.9221	14.7763	17.6984	44.3313	99.8214	
   684	 1.5866	10.4459	12.0324	 0.8546	14.7692	15.6240	 3.0689	14.2093	17.2783	46.1071	99.7603	
   685	 1.4815	 9.9513	11.4329	 0.4748	14.3544	14.8293	 2.1517	13.6105	15.7622	44.7393	99.7036	
   686	 1.0433	 9.2142	10.2574	-0.1091	13.8778	13.7688	 1.7643	12.4906	14.2549	45.9073	99.5892	
   687	 1.0021	 9.1608	10.1629	-0.1121	13.9377	13.8257	 1.7989	12.6099	14.4088	45.6802	99.5899	
   688	 1.1028	 9.5807	10.6835	 0.0628	14.3890	14.4519	 2.0532	13.5727	15.6258	44.6031	99.6783	
   689	 1.3522	10.3343	11.6865	 0.6609	14.7754	15.4365	 2.5295	15.0962	17.6258	43.1483	99.8355	
   690	 1.6059	10.6444	12.2503	 1.0580	14.8182	15.8763	 2.9152	16.0729	18.9881	42.0071	99.9220	
   691	 1.7851	10.7230	12.5081	 1.2771	14.8026	16.0798	 3.1821	16.0705	19.2526	42.4308	99.9269	
   692	 1.8691	10.7301	12.5992	 1.4164	14.7511	16.1677	 3.2877	16.1344	19.4220	42.4022	99.9344	
   693	 1.8918	10.5998	12.4916	 1.2987	14.7293	16.0281	 3.3852	15.6031	18.9884	43.4917	99.9044	
   694	 2.0273	10.3212	12.3485	 1.3830	14.5088	15.8919	 4.0591	14.3495	18.4086	46.9960	99.8326	
   695	 2.2755	 9.5058	11.7813	 1.3012	13.9905	15.2918	 4.0280	12.7566	16.7845	48.7561	99.6892	
   696	 2.2150	 8.6063	10.8213	 0.9580	13.3140	14.2721	 3.4723	11.4583	14.9307	49.1175	99.5555	
   697	 1.9176	 8.0685	 9.9861	 0.9919	12.5570	13.5490	 3.0465	11.2444	14.2909	48.2038	99.6215	
   698	 1.9551	 7.8032	 9.7584	 1.1328	12.1981	13.3310	 3.0465	11.2444	14.2909	47.6598	99.6746	
   699	 2.1003	 7.8182	 9.9185	 1.1663	12.4404	13.6068	 3.5375	11.1808	14.7183	48.6731	99.6418	
   700	 2.3312	 7.8701	10.2013	 1.3719	12.4167	13.7887	 3.8157	10.9556	14.7713	49.5318	99.6216	
   701	 2.2350	 7.6542	 9.8892	 1.5889	12.0297	13.6186	 3.8273	11.0720	14.8994	49.0412	99.6915	
   702	 2.7011	 7.8325	10.5336	 1.7883	12.6809	14.4693	 5.7375	10.5447	16.2822	53.8158	99.5801	
   703	 3.6973	 8.1123	11.8095	 2.5384	13.0112	15.5497	 6.5891	11.0819	17.6711	53.2418	99.6266	
   704	 4.1083	 7.9986	12.1069	 2.6778	12.8487	15.5266	 6.7870	10.4038	17.1908	54.4511	99.5564	
   705	 3.3919	 7.3108	10.7027	 2.5599	11.3707	13.9307	 4.8701	10.1400	15.0100	51.0266	99.6896	
   706	 2.2968	 6.5114	 8.8083	 2.4542	 9.4311	11.8854	 2.9490	10.0157	12.9647	47.4567	99.8639	
   707	 1.4922	 6.1305	 7.6227	 2.2824	 8.5868	10.8693	 2.3842	 9.7504	12.1346	47.4846	99.9037	
   708	 1.2691	 5.6948	 6.9639	 2.2053	 7.7011	 9.9064	 1.6493	 9.3822	11.0314	46.2763	99.9304	
   709	 1.1964	 5.2340	 6.4305	 2.1533	 7.1391	 9.2925	 1.4898	 9.1545	10.6442	45.7345	99.9515	
   710	 1.3312	 5.5881	 6.9193	 2.4347	 7.7535	10.1883	 2.1297	 9.4434	11.5730	46.9284	99.9300	
   711	 1.5463	 5.5010	 7.0473	 2.7224	 7.4709	10.1935	 2.2741	 9.0498	11.3239	47.6807	99.9218	
   712	 1.5628	 4.6188	 6.1816	 2.4316	 6.1351	 8.5669	 1.4468	 7.7730	 9.2199	47.2374	99.9314	
   713	 1.4489	 3.7161	 5.1650	 1.8934	 4.9952	 6.8887	 0.8665	 6.5474	 7.4139	47.4309	99.9487	
   714	 0.9932	 3.3283	 4.3214	 1.7484	 4.3892	 6.1376	 0.5749	 6.6223	 7.1973	46.5981	99.9768	
   715	 1.4113	 3.5929	 5.0042	 2.1533	 5.2388	 7.3922	 1.4047	 7.5071	 8.9118	46.1230	99.9759	
   716	 2.3237	 5.4196	 7.7434	 3.4539	 8.0367	11.4907	 4.0362	 9.2855	13.3217	49.5478	99.9149	
   717	 4.5373	 5.9965	10.5338	 4.3094	 9.2946	13.6041	 6.1369	 9.0375	15.1744	52.1245	99.8305	
   718	 4.8425	 6.0209	10.8634	 4.4398	 9.4228	13.8626	 6.7500	 8.9166	15.6666	53.2467	99.8227	
   719	 5.1835	 5.8797	11.0633	 4.6947	 9.2437	13.9385	 7.1624	 8.7618	15.9242	53.6760	99.8361	
   720	 5.5543	 5.7276	11.2819	 5.1217	 8.9097	14.0315	 7.5081	 8.4135	15.9215	54.3834	99.8420	
   721	 5.0671	 5.1913	10.2585	 5.1624	 7.7127	12.8752	 6.0909	 8.2554	14.3462	51.6188	99.9082	
   722	 4.3070	 4.5349	 8.8419	 5.0437	 6.4440	11.4878	 4.8808	 7.9275	12.8083	49.8214	99.9467	
   723	 3.9388	 4.0843	 8.0230	 4.9613	 5.8018	10.7632	 4.8294	 7.2624	12.0918	51.1109	99.9467	
   724	 3.7489	 3.6973	 7.4462	 5.0621	 5.1965	10.2586	 4.9023	 6.8037	11.7060	51.9838	99.9556	
   725	 3.8398	 3.4351	 7.2750	 5.2306	 4.9775	10.2082	 5.2250	 6.5617	11.7868	52.6270	99.9565	
   726	 3.9429	 3.1228	 7.0657	 5.4841	 4.4399	 9.9240	 5.2094	 6.0385	11.2479	53.1566	99.9512	
   727	 3.7706	 2.9045	 6.6752	 5.4551	 4.2742	 9.7294	 5.3508	 6.0257	11.3764	53.3304	99.9607	
   728	 4.4738	 3.3686	 7.8425	 5.8570	 5.4058	11.2629	 6.6039	 7.1886	13.7925	52.8026	99.9734	
   729	 6.1986	 4.2860	10.4845	 6.6760	 6.9253	13.6013	 9.2061	 7.1894	16.3955	57.0186	99.9224	
   730	 6.6008	 4.1527	10.7535	 6.8720	 6.7354	13.6074	 9.5733	 7.3679	16.9412	56.4544	99.9479	
   731	 7.7116	 4.7024	12.4140	 8.1287	 7.2117	15.3405	10.6352	 6.9175	17.5527	59.0175	99.8882	
   732	 7.5987	 4.4622	12.0610	 8.1517	 7.4970	15.6488	11.4541	 6.9321	18.3862	60.1137	99.8568	
   733	 7.4780	 4.3468	11.8248	 8.0954	 6.7473	14.8427	10.7028	 6.5758	17.2786	59.6306	99.9029	
   734	 7.6134	 3.5502	11.1636	 8.0945	 5.2783	13.3729	 9.9139	 6.3716	16.2855	57.0001	99.9798	
   735	 6.6085	 2.8623	 9.4708	 7.3177	 4.4876	11.8054	 7.9971	 5.5613	13.5584	55.4800	99.9638	
   736	 6.2316	 3.0396	 9.2711	 6.8679	 5.7704	12.6384	 8.9451	 7.0861	16.0312	54.4391	99.9655	
   737	 7.5609	 3.3029	10.8638	 8.6765	 4.8283	13.5049	 9.2212	 6.1600	15.3812	55.8120	99.9696	
   738	 7.5216	 3.2794	10.8009	 8.3597	 5.3893	13.7491	10.5909	 6.1692	16.7601	58.3612	99.9617	
   739	 7.8346	 3.1790	11.0136	 8.6764	 5.2724	13.9489	10.7470	 6.1106	16.8576	58.1748	99.9629	
   740	 7.9981	 3.1186	11.1168	 8.9297	 5.1788	14.1087	11.0145	 6.0102	17.0246	58.5704	99.9631	
   741	 8.0436	 2.9876	11.0312	 8.9201	 5.0126	13.9328	10.9793	 5.8796	16.8589	58.5229	99.9658	
   742	 8.1354	 2.8699	11.0053	 8.9313	 4.8713	13.8028	10.9688	 5.7858	16.7546	58.3906	99.9686	
   743	 8.1039	 2.7215	10.8254	 8.9850	 4.6817	13.6668	10.9894	 5.6343	16.6236	58.5667	99.9703	
   744	 8.1528	 2.6501	10.8029	 9.1185	 4.5279	13.6465	11.0293	 5.5272	16.5566	58.7039	99.9727	
   745	 8.2508	 2.6368	10.8876	 9.1072	 4.6692	13.7766	11.1589	 5.6166	16.7755	58.5568	99.9689	
   746	 8.5036	 2.8025	11.3060	 9.5662	 4.7740	14.3403	11.7508	 5.6360	17.3868	59.5348	99.9673	
   747	 8.7703	 2.8183	11.5886	 9.9096	 4.7843	14.6941	12.1544	 5.5305	17.6849	60.1810	99.9628	
   748	 8.9627	 2.7320	11.6947	10.1399	 4.6275	14.7675	12.3193	 5.4226	17.7419	60.3217	99.9659	
   749	 8.8944	 2.6048	11.4993	10.0946	 4.4026	14.4973	12.2173	 5.3171	17.5344	60.2559	99.9725	
   750	 8.8463	 2.4321	11.2784	 9.8763	 4.3200	14.1963	12.0994	 5.1255	17.2249	60.2650	99.9680	
   751	 8.8314	 2.3081	11.1395	 9.8667	 4.1537	14.0205	12.0590	 5.0027	17.0617	60.2858	99.9705	
   752	 8.7352	 2.2217	10.9569	 9.7669	 3.9947	13.7616	11.9605	 4.8556	16.8161	60.4448	99.9727	
   753	 8.7466	 2.2861	11.0327	 9.8630	 4.0898	13.9528	11.9587	 5.0403	16.9990	60.0857	99.9739	
   754	 9.0116	 2.4016	11.4132	10.1840	 4.2716	14.4557	12.3628	 5.1647	17.5275	60.3501	99.9706	
   755	 9.2573	 2.4480	11.7053	10.5253	 4.2436	14.7689	12.6526	 5.0559	17.7085	60.8911	99.9681	
   756	 9.3430	 2.3554	11.6984	10.4754	 4.1640	14.6395	12.6257	 4.9740	17.5996	60.7634	99.9691	
   757	 9.2914	 2.2525	11.5439	10.4024	 4.0212	14.4237	12.5894	 4.7115	17.3009	61.2320	99.9658	
   758	 9.1270	 2.0390	11.1659	10.1812	 3.7764	13.9577	12.3548	 4.5696	16.9244	60.9896	99.9709	
   759	 9.0229	 1.9479	10.9708	 9.9950	 3.6884	13.6835	12.2645	 4.4712	16.7357	61.0425	99.9716	
   760	 8.9581	 1.8804	10.8385	 9.9361	 3.6775	13.6137	12.0785	 4.5007	16.5793	60.5997	99.9706	
   761	 8.9774	 1.9495	10.9269	 9.9495	 3.7966	13.7462	12.2545	 4.6072	16.8617	60.7433	99.9703	
   762	 9.2144	 1.9762	11.1906	10.4130	 3.7561	14.1691	12.7566	 4.6488	17.4054	61.2449	99.9741	
   763	 9.4287	 2.0038	11.4324	10.6864	 3.7857	14.4722	12.9619	 4.6637	17.6256	61.3351	99.9728	
   764	 9.5546	 2.0792	11.6338	10.8793	 3.8777	14.7572	13.2188	 4.7973	18.0161	61.4181	99.9742	
   765	 9.8144	 2.1051	11.9195	10.9649	 4.0159	14.9810	13.5972	 4.7530	18.3502	61.8840	99.9680	
   766	 9.9945	 2.1986	12.1931	11.2496	 4.0153	15.2650	13.9474	 4.7136	18.6610	62.5142	99.9690	
   767	10.2035	 2.1367	12.3402	11.3532	 3.9052	15.2585	13.8424	 4.6610	18.5034	62.0958	99.9713	
   768	 9.9307	 2.0165	11.9471	11.1335	 3.6859	14.8195	13.4570	 4.5699	18.0269	61.7940	99.9764	
   769	 9.5983	 1.9183	11.5166	10.8392	 3.6314	14.4706	13.2383	 4.5140	17.7522	61.7986	99.9756	
   770	 9.7102	 1.8845	11.5948	11.0120	 3.6002	14.6123	13.3075	 4.5340	17.8414	61.6592	99.9763	
   771	 9.7706	 1.8775	11.6481	11.0799	 3.5425	14.6224	13.6507	 4.3591	18.0098	62.5799	99.9753	
   772	 9.7452	 1.8335	11.5788	11.1775	 3.4411	14.6187	13.5838	 4.3842	17.9680	62.3540	99.9791	
   773	 9.7050	 1.7951	11.5000	11.0598	 3.4193	14.4792	13.4342	 4.3484	17.7826	62.1728	99.9784	
   774	 9.6647	 1.7566	11.4213	10.9629	 3.4224	14.3854	13.4208	 4.3074	17.7282	62.2301	99.9768	
   775	 9.6254	 1.7330	11.3584	10.9451	 3.3376	14.2828	13.4073	 4.2665	17.6737	62.3148	99.9792	
   776	 9.6175	 1.7283	11.3458	10.9831	 3.3235	14.3067	13.3404	 4.2916	17.6320	62.1412	99.9800	
   777	 9.6123	 1.7684	11.3806	11.0121	 3.3781	14.3904	13.3650	 4.3283	17.6934	62.1728	99.9791	
   778	 9.6700	 1.8461	11.5161	11.0717	 3.5129	14.5846	13.4858	 4.4670	17.9528	62.1017	99.9784	
   779	 9.9954	 1.9545	11.9499	11.3443	 3.6407	14.9852	13.9322	 4.5295	18.4617	62.4847	99.9771	
   780	10.1291	 1.9051	12.0342	11.3823	 3.6267	15.0091	14.0126	 4.5453	18.5579	62.3184	99.9773	
   781	10.1055	 1.8910	11.9965	11.4583	 3.5986	15.0571	14.0548	 4.4835	18.5383	62.5444	99.9766	
   782	10.2577	 1.8957	12.1534	11.5023	 3.6869	15.1893	14.2103	 4.5229	18.7332	62.5224	99.9740	
   783	10.1632	 1.8392	12.0024	11.4420	 3.5394	14.9814	13.9610	 4.4267	18.3877	62.3627	99.9766	
   784	 9.8703	 1.7645	11.6348	11.2073	 3.3975	14.6049	13.5703	 4.3433	17.9136	62.1471	99.9788	
   785	 9.5904	 1.6545	11.2449	10.9414	 3.2736	14.2151	13.2155	 4.2925	17.5079	61.8232	99.9806	
   786	 9.4277	 1.6003	11.0280	10.7209	 3.2636	13.9846	13.2020	 4.2515	17.4535	62.0043	99.9797	
   787	 9.4566	 1.5744	11.0310	10.7209	 3.2636	13.9846	13.2020	 4.2515	17.4535	61.9188	99.9792	
   788	 9.6000	 1.6891	11.2891	11.0881	 3.3500	14.4383	13.4858	 4.4670	17.9528	61.8911	99.9826	
   789	 9.8388	 1.7457	11.5844	11.2229	 3.5550	14.7780	13.6870	 4.6216	18.3085	61.6504	99.9791	
   790	 9.9359	 1.8469	11.7828	11.3525	 3.6704	15.0230	13.7444	 4.7438	18.4882	61.5128	99.9786	
   791	10.0408	 1.9529	11.9938	11.4344	 3.7446	15.1791	13.8805	 4.7387	18.6192	61.8198	99.9773	
   792	10.1090	 1.9506	12.0597	11.3748	 3.8319	15.2068	13.8670	 4.6977	18.5648	61.8098	99.9720	
   793	 9.9700	 1.9105	11.8805	11.2430	 3.6782	14.9212	13.6447	 4.6834	18.3282	61.5734	99.9782	
   794	 9.8353	 1.9450	11.7803	11.2050	 3.6922	14.8973	13.4857	 4.7949	18.2806	61.2648	99.9805	
   795	 9.8266	 1.9254	11.7520	11.1796	 3.7015	14.8813	13.4106	 4.7713	18.1819	61.1712	99.9787	
   796	 9.7461	 1.9780	11.7241	11.0440	 3.8169	14.8610	13.3303	 4.7555	18.0857	61.2763	99.9736	
   797	 9.7059	 1.9395	11.6454	11.0619	 3.6797	14.7417	13.2188	 4.7973	18.0161	60.9622	99.9803	
   798	 9.7269	 1.9089	11.6357	11.1379	 3.6516	14.7897	13.3725	 4.6936	18.0661	61.3950	99.9782	
   799	 9.7409	 1.8885	11.6293	11.1379	 3.6516	14.7897	13.3972	 4.7304	18.1275	61.2888	99.9792	
   800	 9.7653	 1.9175	11.6829	11.1416	 3.7156	14.8573	13.4106	 4.7713	18.1819	61.2336	99.9779	
   801	 9.7802	 1.9120	11.6923	11.1796	 3.7015	14.8813	13.4106	 4.7713	18.1819	61.2045	99.9781	
   802	 9.6928	 1.9748	11.6676	11.1118	 3.7592	14.8712	13.4664	 4.7504	18.2168	61.5783	99.9766	
   803	 9.7575	 2.0423	11.7998	11.0663	 3.9785	15.0449	13.5795	 4.8517	18.4312	61.5618	99.9708	
   804	 9.9534	 2.1452	12.0986	11.1139	 4.1307	15.2447	13.5455	 4.9622	18.5077	61.1786	99.9681	
   805	 9.7147	 2.0886	11.8033	10.9531	 3.9223	14.8755	13.2323	 4.8383	18.0705	61.1541	99.9732	
   806	 9.6377	 2.0713	11.7090	10.9232	 3.9660	14.8893	13.4012	 4.9186	18.3198	61.3032	99.9742	
   807	10.0330	 2.3368	12.3698	11.2919	 4.4111	15.7030	14.2547	 4.9433	19.1980	62.6573	99.9580	
   808	10.4694	 2.3965	12.8660	11.4982	 4.6222	16.1205	14.6970	 4.9268	19.6238	62.9953	99.9467	
   809	10.8367	 2.4438	13.2805	11.6881	 4.6631	16.3513	14.7252	 4.8127	19.5379	62.9689	99.9386	
   810	10.3732	 2.1807	12.5539	11.1877	 4.1753	15.3630	13.8424	 4.6610	18.5034	61.9673	99.9577	
   811	 9.1759	 1.8381	11.0140	10.1812	 3.7764	13.9577	12.5202	 4.6915	17.2117	60.5205	99.9719	
   812	 9.1514	 1.9385	11.0900	10.2997	 3.6999	13.9998	12.3530	 4.7543	17.1073	60.2974	99.9779	
   813	 9.1060	 1.9401	11.0460	10.2364	 3.7233	13.9598	12.2146	 4.7142	16.9288	60.2194	99.9746	
   814	 8.9975	 1.9039	10.9014	10.1000	 3.7149	13.8151	12.1300	 4.8380	16.9680	59.8355	99.9790	
   815	 9.0823	 1.9259	11.0083	10.1015	 3.7405	13.8421	12.2122	 4.6691	16.8813	60.3327	99.9735	
   816	 8.9512	 1.8906	10.8417	 9.9995	 3.6541	13.6537	11.9412	 4.5925	16.5338	60.1563	99.9733	
   817	 8.9066	 1.9070	10.8136	 9.8467	 3.8085	13.6553	11.9201	 4.7328	16.6528	59.8563	99.9712	
   818	 8.8174	 1.9400	10.7573	 9.9100	 3.7851	13.6952	11.8356	 4.8565	16.6921	59.5780	99.9756	
   819	 8.8279	 1.9894	10.8173	 9.8862	 3.8200	13.7063	11.8755	 4.7495	16.6250	59.9972	99.9716	
   820	 8.8471	 2.0585	10.9056	 9.9904	 3.9448	13.9353	11.9587	 5.0403	16.9990	59.5216	99.9756	
   821	 8.9818	 2.1535	11.1353	10.0015	 4.1366	14.1382	12.1417	 5.0636	17.2053	59.7868	99.9695	
   822	 8.9434	 2.2744	11.2177	10.1199	 4.3933	14.5132	12.5412	 5.0977	17.6389	60.6700	99.9582	
   823	 9.0833	 2.3294	11.4127	10.3107	 4.2248	14.5356	12.5628	 5.1874	17.7502	60.4086	99.9729	
   824	 9.0492	 2.2658	11.3150	10.3652	 3.9370	14.3023	12.2532	 5.0218	17.2750	60.2105	99.9785	
   825	 9.0465	 2.0915	11.1381	10.0395	 4.1225	14.1622	12.5318	 4.9172	17.4490	60.6250	99.9664	
   826	 9.1428	 2.3074	11.4502	10.6386	 3.9666	14.6053	12.3916	 5.0618	17.4534	60.3076	99.9757	
   827	 9.1296	 2.3427	11.4724	10.3569	 4.2404	14.5974	12.5071	 5.2083	17.7154	60.2262	99.9721	
   828	 8.9346	 2.3843	11.3189	10.6014	 3.8824	14.4839	12.4896	 4.9791	17.4686	61.0977	99.9802	
   829	 8.9031	 2.2359	11.1390	10.1111	 4.1288	14.2399	12.1821	 5.1865	17.3686	59.8106	99.9747	
   830	 9.2058	 2.4746	11.6804	10.4656	 4.4419	14.9076	12.7629	 5.2100	17.9729	60.8111	99.9635	
   831	 9.4192	 2.6168	12.0359	10.6883	 4.6013	15.2897	13.1875	 5.2922	18.4797	61.3220	99.9623	
   832	 9.4043	 2.6222	12.0265	10.5571	 4.6824	15.2396	13.0567	 5.2895	18.3462	61.1377	99.9570	
   833	 9.0868	 2.6480	11.7349	10.3381	 4.6980	15.0361	12.7423	 5.3615	18.1038	60.8789	99.9577	
   834	 9.0650	 2.6637	11.7287	10.1137	 4.9571	15.0709	12.8571	 5.7153	18.5724	60.2594	99.9600	
   835	 9.4043	 2.7518	12.1561	10.5652	 4.9341	15.4994	13.6439	 5.2186	18.8625	62.5319	99.9447	
   836	 9.6964	 2.8115	12.5079	10.8289	 5.0195	15.8486	13.6715	 5.3118	18.9833	62.0989	99.9413	
   837	 9.6833	 2.8468	12.5301	10.7611	 5.0772	15.8385	13.6633	 5.2631	18.9264	62.2897	99.9359	
   838	 9.5198	 2.7777	12.2975	10.6412	 4.9060	15.5473	13.2286	 5.4263	18.6548	61.2347	99.9522	
   839	 9.3720	 2.8475	12.2195	10.4445	 5.0832	15.5277	13.3365	 5.5353	18.8718	61.4619	99.9496	
   840	 9.8460	 3.0305	12.8765	10.8183	 5.5067	16.3251	14.1882	 5.5261	19.7143	62.6395	99.9252	
   841	10.2745	 3.0856	13.3602	11.0768	 5.7247	16.8016	14.6423	 5.5167	20.1590	62.9783	99.9091	
   842	10.2509	 3.0715	13.3224	10.9665	 5.6087	16.5753	14.1131	 5.5025	19.6157	62.1573	99.9136	
   843	 9.7647	 2.9387	12.7033	10.6217	 5.3508	15.9725	13.6204	 5.5322	19.1526	61.6225	99.9324	
   844	 9.6632	 3.0218	12.6851	10.7021	 5.5104	16.2126	13.8790	 5.6997	19.5787	61.9169	99.9312	
   845	10.1862	 3.1335	13.3197	11.0030	 5.7911	16.7942	14.3272	 5.6867	20.0139	62.2476	99.9109	
   846	 9.9763	 3.0510	13.0273	10.7803	 5.5207	16.3012	13.7705	 5.5794	19.3499	61.7025	99.9232	
   847	 9.4857	 2.9731	12.4588	10.5204	 5.2771	15.7976	13.1856	 5.6955	18.8811	60.9070	99.9427	
   848	 9.3983	 3.0359	12.4341	10.5226	 5.4265	15.9492	13.3915	 5.7217	19.1132	61.4141	99.9350	
   849	 9.7507	 3.0886	12.8393	10.6730	 5.6779	16.3510	13.7646	 5.7944	19.5590	61.5131	99.9225	
   850	10.3008	 3.2740	13.5748	11.1310	 6.1030	17.2341	14.7953	 5.7296	20.5248	63.0194	99.8907	
   851	10.8273	 3.3158	14.1431	11.3984	 6.2524	17.6510	15.2329	 5.6228	20.8557	63.4274	99.8724	
   852	10.9768	 3.2758	14.2526	11.4722	 6.1860	17.6583	14.9877	 5.6056	20.5933	62.8235	99.8714	
   853	10.3148	 3.2536	13.5684	10.9716	 5.9203	16.8920	14.2603	 5.7119	19.9722	62.1442	99.9044	
   854	 9.9317	 3.1970	13.1287	10.7132	 5.7023	16.4155	13.6673	 5.6699	19.3372	61.6372	99.9153	
   855	 9.4980	 3.1819	12.6799	10.3496	 5.6798	16.0295	13.2689	 5.7677	19.0366	61.2451	99.9218	
   856	 9.1753	 3.1182	12.2935	10.0897	 5.3252	15.4150	12.2729	 5.7333	18.0062	59.9211	99.9376	
   857	 8.4765	 2.8582	11.3347	 9.4015	 4.8349	14.2364	10.9553	 5.7448	16.7001	57.9805	99.9606	
   858	 7.6534	 2.2936	 9.9470	 8.3229	 4.0838	12.4068	 9.1493	 5.2093	14.3586	56.0005	99.9652	
   859	 6.8260	 1.9134	 8.7395	 7.7390	 3.6072	11.3463	 7.9703	 5.0423	13.0126	54.5799	99.9631	
   860	 6.5663	 1.8874	 8.4538	 7.5616	 3.6727	11.2344	 7.6587	 5.2800	12.9388	53.6903	99.9626	
   861	 6.4885	 1.9847	 8.4732	 7.3753	 3.9178	11.2932	 7.5225	 5.6130	13.1355	52.8817	99.9659	
   862	 6.8716	 2.3004	 9.1720	 7.6299	 4.4050	12.0350	 8.2105	 5.9528	14.1633	53.4495	99.9675	
   863	 7.1445	 2.4206	 9.5650	 7.8973	 4.5544	12.4518	 9.1802	 5.8073	14.9875	55.5416	99.9684	
   864	 7.6737	 2.8956	10.5693	 8.7695	 5.2053	13.9750	10.9587	 6.0311	16.9898	58.4359	99.9545	
   865	 8.7127	 3.3881	12.1008	 9.6209	 5.7203	15.3413	11.9208	 6.0668	17.9875	59.5932	99.9311	
   866	 8.8290	 3.2994	12.1284	 9.7799	 5.1131	14.8930	11.5173	 5.6258	17.1432	59.6633	99.9488	
   867	 8.7214	 3.0192	11.7405	 9.1568	 5.5260	14.6829	11.8889	 6.5503	18.4393	57.6574	99.9641	
   868	 9.0852	 3.3953	12.4805	 9.9278	 5.9923	15.9201	12.9486	 5.8362	18.7848	61.4602	99.9023	
   869	 9.2942	 3.3333	12.6276	10.0583	 5.6763	15.7347	12.2171	 5.7542	17.9713	60.0246	99.9101	
   870	 8.6479	 2.9320	11.5799	 9.1751	 4.6115	13.7867	10.2309	 5.6890	15.9198	56.6639	99.9737	
   871	 7.0587	 1.9951	 9.0538	 8.1498	 2.8809	11.0308	 8.0470	 3.8863	11.9332	57.5773	99.9544	
   872	 5.6864	 1.1305	 6.8169	 7.5313	 1.3592	 8.8905	 6.5015	 3.1149	 9.6164	56.8426	99.9590	
   873	 4.7952	 0.6978	 5.4929	 6.8482	 0.9584	 7.8067	 5.8564	 2.7245	 8.5808	57.0596	99.9532	
   874	 4.6080	 0.8735	 5.4816	 6.8347	 1.2833	 8.1181	 6.0157	 3.3893	 9.4050	56.2376	99.9661	
   875	 5.4005	 1.5637	 6.9642	 7.0554	 2.5275	 9.5830	 6.7462	 4.6622	11.4083	54.5589	99.9835	
   876	 6.1422	 2.1659	 8.3082	 7.3173	 3.5866	10.9040	 7.4834	 5.1848	12.6682	54.7595	99.9732	
   877	 6.4789	 2.2092	 8.6881	 7.5945	 3.5692	11.1637	 7.5269	 4.8177	12.3446	55.3680	99.9495	
   878	 6.0057	 1.6526	 7.6583	 7.3780	 2.6238	10.0020	 7.0531	 4.3341	11.3872	55.2835	99.9729	
   879	 6.0460	 1.8206	 7.8665	 7.4501	 2.9760	10.4262	 7.3111	 4.4903	11.8015	55.6719	99.9627	
   880	 6.3504	 2.2186	 8.5690	 7.2743	 3.0670	10.3414	 7.3673	 4.9178	12.2851	54.9975	99.9963	
   881	 6.3993	 2.0177	 8.4170	 6.8551	 4.3189	11.1741	 7.5788	 4.0620	11.6408	57.2047	99.8106	
   882	 5.2264	 1.3156	 6.5420	 7.4507	 1.5326	 8.9834	 6.4703	 3.5005	 9.9707	56.8202	99.9597	
   883	 5.3402	 1.7002	 7.0404	 7.0487	 2.7455	 9.7942	 6.7838	 4.4007	11.1845	55.6719	99.9611	
   884	 5.8413	 1.8276	 7.6689	 7.0208	 3.3826	10.4036	 7.3248	 5.8540	13.1788	52.5804	99.9979	
   885	 6.5043	 2.1237	 8.6279	 7.6988	 3.4719	11.1708	 7.4779	 5.6297	13.1076	52.9877	99.9862	
   886	 7.3177	 2.7833	10.1009	 7.9426	 5.0013	12.9440	 9.3721	 5.7813	15.1534	56.4128	99.9452	
   887	 7.2066	 2.5729	 9.7795	 8.0367	 4.2809	12.3177	 9.3228	 5.7078	15.0306	56.2614	99.9852	
   888	 7.2285	 2.6867	 9.9152	 8.0448	 4.5326	12.5775	 9.5750	 5.7511	15.3262	56.8160	99.9781	
   889	 7.1279	 2.6553	 9.7832	 8.0061	 4.4228	12.4290	 9.4120	 5.6743	15.0863	56.7834	99.9792	
   890	 6.9950	 2.5901	 9.5850	 7.8579	 4.3208	12.1788	 9.0207	 5.6889	14.7096	56.0672	99.9811	
   891	 6.6346	 2.4031	 9.0378	 7.7448	 3.9316	11.6765	 8.3662	 5.3365	13.7027	55.8528	99.9746	
   892	 6.4597	 2.2697	 8.7293	 7.5460	 3.7373	11.2833	 7.8259	 5.2173	13.0432	55.0879	99.9713	
   893	 6.3906	 2.2571	 8.6477	 7.6286	 3.8243	11.4530	 8.2612	 5.1746	13.4358	56.1349	99.9686	
   894	 6.8366	 2.4809	 9.3176	 7.9265	 4.1649	12.0915	 8.7938	 5.4751	14.2688	56.1882	99.9717	
   895	 6.7299	 2.3451	 9.0750	 7.7933	 3.7635	11.5569	 8.0266	 5.1419	13.1685	55.4236	99.9671	
   896	 6.2034	 2.0443	 8.2477	 7.5767	 3.1512	10.7281	 7.0904	 4.9470	12.0374	54.2365	99.9668	
   897	 4.9021	 2.1286	 7.0308	 7.3005	 2.6263	 9.9270	 7.1329	 4.3387	11.4716	58.0253	99.9679	
   898	 5.5151	 1.7042	 7.2193	 7.1947	 2.5870	 9.7819	 6.8988	 4.3173	11.2161	55.8650	99.9702	
   899	 5.4119	 1.6281	 7.0399	 7.1434	 2.3709	 9.5144	 6.6413	 4.1724	10.8137	55.7287	99.9690	
   900	 5.0734	 1.5549	 6.6284	 7.0317	 2.2293	 9.2611	 6.4982	 4.2606	10.7588	55.5765	99.9737	
   901	 5.2571	 1.7081	 6.9652	 7.1106	 2.5855	 9.6961	 6.6981	 4.6112	11.3093	55.0939	99.9745	
   902	 5.7233	 1.8864	 7.6096	 7.1967	 3.1805	10.3774	 7.0048	 4.9389	11.9437	54.5119	99.9665	
   903	 5.8632	 1.9414	 7.8046	 7.3249	 3.1593	10.4843	 7.0863	 4.8680	11.9544	54.7536	99.9654	
   904	 5.7285	 1.8464	 7.5749	 7.2266	 3.0258	10.2526	 6.9526	 4.8089	11.7616	54.6532	99.9681	
   905	 5.6813	 1.8181	 7.4994	 7.2348	 2.9444	10.1794	 6.9878	 4.7210	11.7088	54.9684	99.9692	
   906	 5.6218	 1.8400	 7.4618	 7.2095	 2.9538	10.1634	 6.9544	 4.8428	11.7972	54.7204	99.9736	
   907	 5.6131	 1.8204	 7.4335	 7.1559	 2.9214	10.0773	 6.8652	 4.7670	11.6322	54.7089	99.9719	
   908	 5.4425	 1.7615	 7.2040	 7.1768	 2.7243	 9.9012	 6.7333	 4.6325	11.3658	54.9326	99.9689	
   909	 5.3516	 1.7646	 7.1162	 7.0993	 2.7267	 9.8262	 6.7462	 4.6622	11.4083	55.0271	99.9730	
   910	 5.2589	 1.7379	 6.9967	 7.0823	 2.5437	 9.6260	 6.6090	 4.5354	11.1443	55.1654	99.9739	
   911	 5.1049	 1.7033	 6.8082	 6.9944	 2.4782	 9.4726	 6.4195	 4.4972	10.9167	55.0455	99.9706	
   912	 5.1740	 1.7159	 6.8899	 7.0316	 2.5624	 9.5941	 6.5737	 4.6234	11.1971	54.9519	99.9751	
   913	 5.1863	 1.6657	 6.8519	 7.0018	 2.4950	 9.4969	 6.5644	 4.4428	11.0072	55.2834	99.9728	
   914	 5.1854	 1.6507	 6.8361	 7.0450	 2.4595	 9.5046	 6.5755	 4.5479	11.1235	55.0052	99.9767	
   915	 5.2274	 1.7190	 6.9464	 7.0599	 2.6042	 9.6642	 6.6535	 4.6279	11.2814	55.0271	99.9749	
   916	 5.1976	 1.7300	 6.9277	 7.0808	 2.5181	 9.5990	 6.6107	 4.5692	11.1799	55.1590	99.9753	
   917	 5.1950	 1.6853	 6.8803	 7.0197	 2.4688	 9.4886	 6.6055	 4.4677	11.0731	55.3276	99.9766	
   918	 4.9641	 1.6334	 6.5975	 6.9110	 2.3784	 9.2894	 6.5146	 4.3580	10.8726	55.6771	99.9747	
   919	 5.0017	 1.6271	 6.6289	 6.9840	 2.2992	 9.2833	 6.4512	 4.4508	10.9020	55.2379	99.9774	
   920	 5.0455	 1.7253	 6.7707	 6.9511	 2.5137	 9.4650	 6.6183	 4.6066	11.2249	55.2993	99.9805	
   921	 5.1574	 1.8211	 6.9785	 6.9287	 2.6853	 9.6141	 6.5531	 4.7749	11.3280	54.7508	99.9802	
   922	 5.2440	 1.8729	 7.1169	 6.9868	 2.7944	 9.7813	 6.7520	 4.7750	11.5270	55.1236	99.9797	
   923	 5.4111	 1.8722	 7.2832	 7.0083	 2.9432	 9.9516	 6.8746	 4.8382	11.7128	54.9538	99.9786	
   924	 5.3332	 1.8399	 7.1732	 6.9391	 2.8643	 9.8035	 6.8318	 4.7795	11.6113	55.0733	99.9812	
   925	 5.3358	 1.8847	 7.2205	 6.9040	 3.0405	 9.9446	 6.7966	 4.8675	11.6641	54.8593	99.9748	
   926	 5.3752	 1.9082	 7.2834	 6.9040	 3.0405	 9.9446	 6.8095	 4.8972	11.7067	54.7955	99.9780	
   927	 5.4172	 1.9765	 7.3937	 6.9054	 3.1771	10.0826	 6.8523	 4.9559	11.8082	54.8010	99.9748	
   928	 5.3149	 1.9153	 7.2302	 6.8646	 2.9179	 9.7826	 6.6329	 4.7794	11.4124	54.8458	99.9772	
   929	 5.0507	 1.8147	 6.8655	 6.8036	 2.6466	 9.4502	 6.4324	 4.6362	11.0685	55.0140	99.9780	
   930	 4.9362	 1.8037	 6.7399	 6.7529	 2.6653	 9.4183	 6.3954	 4.6903	11.0857	54.9519	99.9775	
   931	 5.0324	 1.8901	 6.9225	 6.6872	 2.9834	 9.6707	 6.4956	 4.9805	11.4761	54.4317	99.9789	
   932	 5.3088	 2.0699	 7.3787	 6.7534	 3.3443	10.0977	 6.7466	 5.1106	11.8572	54.5375	99.9744	
   933	 5.4548	 2.0998	 7.5546	 6.7563	 3.5064	10.2628	 6.8515	 5.3818	12.2333	53.8964	99.9807	
   934	 5.7924	 2.4170	 8.2094	 6.8559	 4.1096	10.9656	 7.3653	 5.7583	13.1235	54.0833	99.9780	
   935	 5.9954	 2.7687	 8.7641	 6.9966	 4.4168	11.4135	 7.5986	 6.0963	13.6949	54.0698	99.9833	
   936	 6.0278	 2.8025	 8.8302	 7.0524	 4.4876	11.5402	 7.6855	 6.0176	13.7031	54.4555	99.9768	
   937	 5.9797	 2.7593	 8.7389	 6.8877	 4.5484	11.4363	 7.5616	 6.1504	13.7120	53.8666	99.9793	
   938	 5.9840	 2.8338	 8.8179	 6.9668	 4.4605	11.4274	 7.3399	 6.1474	13.4873	53.5611	99.9797	
   939	 5.8275	 2.7545	 8.5820	 6.8297	 4.3283	11.1581	 6.9569	 5.9921	12.9490	53.2559	99.9736	
   940	 5.6718	 2.8196	 8.4914	 6.7671	 4.4755	11.2426	 7.1304	 6.2720	13.4025	53.2740	99.9810	
   941	 6.0628	 3.1400	 9.2028	 6.9166	 5.0471	11.9639	 7.7985	 6.5561	14.3546	53.9276	99.9771	
   942	 6.2823	 3.2570	 9.5393	 7.0752	 5.2171	12.2925	 8.1669	 6.6478	14.8147	54.3239	99.9770	
   943	 6.4826	 3.3049	 9.7875	 7.1594	 5.2187	12.3782	 8.1622	 6.5576	14.7198	54.3313	99.9745	
   944	 6.2185	 3.0749	 9.2933	 7.0136	 4.8220	11.8356	 7.6097	 6.3106	13.9203	53.8015	99.9760	
   945	 5.8756	 2.9272	 8.8028	 6.8579	 4.5921	11.4501	 7.2619	 6.1767	13.4385	53.6723	99.9750	
   946	 5.8266	 2.8691	 8.6957	 6.8349	 4.4178	11.2528	 7.0102	 6.1446	13.1548	53.2028	99.9783	
   947	 5.8240	 2.9539	 8.7779	 6.8191	 4.7044	11.5236	 7.5270	 6.2497	13.7767	54.1526	99.9776	
   948	 5.9394	 2.8503	 8.7898	 6.7976	 4.5556	11.3533	 7.0524	 6.3013	13.3537	52.6877	99.9791	
   949	 5.7077	 2.9130	 8.6207	 6.7746	 4.3813	11.1559	 6.9158	 5.9672	12.8831	53.7237	99.9725	
   950	 5.4436	 2.6830	 8.1265	 6.6197	 4.1642	10.7840	 6.6419	 5.9436	12.5855	53.1857	99.9751	
   951	 5.5337	 2.7944	 8.3281	 6.6174	 4.3479	10.9654	 7.4758	 5.1474	12.6232	56.9792	99.9476	
   952	 5.6115	 2.9562	 8.5677	 6.8781	 4.4932	11.3714	 7.1849	 6.5564	13.7413	53.0300	99.9891	
   953	 5.8066	 3.0441	 8.8507	 6.7431	 4.7324	11.4757	 7.1480	 6.3919	13.5399	53.2304	99.9782	
   954	 5.8643	 3.1218	 8.9861	 6.6715	 4.9483	11.6199	 7.2307	 6.4529	13.6836	53.3060	99.9731	
   955	 5.7917	 3.1791	 8.9708	 6.7647	 4.8812	11.6460	 7.2318	 6.5848	13.8166	53.1997	99.9804	
   956	 5.8363	 3.1627	 8.9990	 6.6969	 4.9389	11.6359	 7.1849	 6.5564	13.7413	53.0753	99.9771	
   957	 5.8197	 3.1383	 8.9580	 6.7013	 4.9046	11.6060	 7.1426	 6.6183	13.7609	52.8152	99.9799	
   958	 5.7908	 3.1642	 8.9550	 6.6462	 4.9576	11.6039	 7.1069	 6.5857	13.6925	52.9158	99.9764	
   959	 5.7314	 3.1862	 8.9175	 6.6805	 4.8797	11.5602	 6.9843	 6.6317	13.6160	52.6831	99.9793	
   960	 5.6605	 3.1438	 8.8043	 6.5754	 4.8531	11.4287	 6.8147	 6.6493	13.4641	52.3192	99.9796	
   961	 5.6614	 3.1587	 8.8201	 6.6298	 4.8984	11.5283	 6.8997	 6.7555	13.6552	52.2596	99.9810	
   962	 5.8643	 3.2514	 9.1157	 6.7013	 5.1267	11.8280	 7.3215	 6.7812	14.1027	52.9218	99.9789	
   963	 5.8801	 3.2608	 9.1408	 6.7013	 5.1267	11.8280	 7.3192	 6.7360	14.0552	53.0220	99.9775	
   964	 5.8958	 3.2702	 9.1660	 6.7519	 5.1080	11.8600	 7.4441	 6.7351	14.1792	53.2710	99.9800	
   965	 5.9054	 3.3047	 9.2102	 6.8063	 5.1532	11.9596	 7.4042	 6.8421	14.2463	52.9768	99.9797	
   966	 5.8556	 3.3612	 9.2168	 6.6923	 5.1953	11.8877	 6.8593	 6.6326	13.4919	52.5613	99.9573	
   967	 5.5591	 3.2269	 8.7860	 6.5166	 4.8422	11.3589	 6.4863	 6.3413	12.8276	52.7227	99.9596	
   968	 5.2967	 3.0267	 8.3234	 6.4042	 4.5768	10.9811	 6.3585	 6.1765	12.5350	52.8985	99.9633	
   969	 5.2967	 3.0267	 8.3234	 6.4042	 4.5768	10.9811	 6.2470	 6.2183	12.4653	52.5597	99.9615	
   970	 5.2372	 3.0486	 8.2859	 6.4087	 4.5425	10.9513	 6.2511	 6.2973	12.5484	52.5049	99.9679	
   971	 5.3553	 3.1193	 8.4746	 6.3892	 4.7652	11.1545	 6.4124	 6.4496	12.8619	52.4098	99.9682	
   972	 5.5040	 3.1939	 8.6979	 6.4406	 4.8703	11.3110	 6.5285	 6.4980	13.0265	52.4402	99.9686	
   973	 5.4445	 3.2159	 8.6604	 6.4406	 4.8703	11.3110	 6.5696	 6.5228	13.0924	52.5983	99.9705	
   974	 5.4480	 3.2756	 8.7236	 6.3973	 5.0169	11.4143	 6.6464	 6.5803	13.2266	52.7220	99.9677	
   975	 5.5171	 3.2881	 8.8053	 6.4055	 5.0465	11.4521	 6.6065	 6.6873	13.2937	52.2887	99.9708	
   976	 5.5023	 3.2936	 8.7959	 6.4010	 5.0808	11.4819	 6.6041	 6.6421	13.2463	52.4299	99.9656	
   977	 5.4279	 3.3211	 8.7490	 6.3422	 5.0699	11.4121	 6.5238	 6.6263	13.1501	52.4704	99.9657	
   978	 5.4341	 3.2960	 8.7300	 6.3466	 5.0356	11.3823	 6.4815	 6.6882	13.1697	52.1708	99.9695	
   979	 5.4690	 3.3745	 8.8435	 6.3384	 5.2280	11.5665	 6.6099	 6.8643	13.4742	52.0949	99.9697	
   980	 5.6737	 3.4970	 9.1707	 6.5223	 5.3886	11.9111	 7.0651	 6.8774	13.9425	52.9146	99.9691	
   981	 5.7997	 3.5724	 9.3720	 6.5618	 5.5112	12.0731	 7.2393	 6.9500	14.1894	53.0392	99.9700	
   982	 5.7446	 3.5394	 9.2839	 6.5178	 5.4229	11.9409	 7.1009	 6.9100	14.0109	52.8783	99.9716	
   983	 5.7131	 3.5205	 9.2336	 6.4835	 5.5009	11.9846	 7.0586	 6.9719	14.0305	52.6518	99.9675	
   984	 5.7113	 3.6202	 9.3315	 6.4172	 5.6952	12.1125	 7.1079	 7.0454	14.1533	52.7609	99.9621	
   985	 5.7761	 3.6877	 9.4638	 6.4969	 5.7311	12.2281	 7.1430	 7.1760	14.3190	52.5384	99.9667	
   986	 5.6974	 3.6406	 9.3380	 6.4179	 5.5970	12.0150	 6.9829	 7.0463	14.0292	52.5625	99.9679	
   987	 5.4997	 3.5079	 9.0076	 6.2742	 5.3496	11.6240	 6.4873	 6.9103	13.3976	51.9285	99.9666	
   988	 5.3108	 3.3948	 8.7056	 6.1871	 5.1859	11.3731	 6.4492	 6.8326	13.2818	52.1245	99.9718	
   989	 5.4201	 3.4459	 8.8660	 6.2534	 5.3247	11.5782	 6.6480	 6.9420	13.5900	52.1925	99.9720	
   990	 5.5495	 3.5809	 9.1305	 6.3695	 5.5430	11.9126	 6.8515	 7.1416	13.9931	52.1736	99.9709	
   991	 5.7009	 3.7003	 9.4011	 6.4082	 5.7638	12.1721	 7.0562	 7.2546	14.3108	52.3066	99.9686	
   992	 5.6886	 3.7505	 9.4391	 6.4887	 5.7015	12.1902	 7.0680	 7.1524	14.2204	52.6947	99.9671	
   993	 5.5977	 3.7536	 9.3513	 6.4172	 5.6952	12.1125	 6.8896	 7.2194	14.1090	52.3096	99.9678	
   994	 5.5977	 3.7536	 9.3513	 6.3575	 5.7825	12.1402	 6.9788	 7.1859	14.1647	52.5752	99.9637	
   995	 5.5994	 3.7834	 9.3829	 6.3217	 5.8349	12.1568	 6.8867	 7.2722	14.1589	52.2266	99.9638	
   996	 5.5347	 3.8454	 9.3801	 6.2837	 5.8490	12.1328	 6.8867	 7.2722	14.1589	52.4425	99.9654	
   997	 5.5452	 3.8949	 9.4401	 6.3716	 5.9145	12.2862	 7.1477	 7.2662	14.4139	53.0660	99.9643	
   998	 5.7779	 3.9766	 9.7544	 6.4744	 6.1247	12.5991	 7.4950	 7.2797	14.7746	53.5336	99.9578	
   999	 5.9073	 3.9821	 9.8894	 6.5332	 6.1356	12.6689	 7.4950	 7.2797	14.7746	53.3489	99.9567	
  1000	 5.8225	 3.9601	 9.7826	 6.4848	 6.0816	12.5665	 7.4504	 7.2964	14.7468	53.3049	99.9612	
  1001	 5.8076	 3.9656	 9.7732	 6.3983	 6.1527	12.5512	 7.5396	 7.2629	14.8025	53.5989	99.9586	
  1002	 5.8251	 4.0048	 9.8299	 6.4147	 6.2120	12.6268	 7.4920	 7.3325	14.8245	53.3795	99.9569	
  1003	 5.8199	 4.0449	 9.8647	 6.5034	 6.1793	12.6828	 7.4920	 7.3325	14.8245	53.4623	99.9577	
  1004	 5.8207	 4.0598	 9.8805	 6.4125	 6.2847	12.6972	 7.4052	 7.4111	14.8163	53.1207	99.9544	
  1005	 5.7613	 4.0817	 9.8430	 6.3871	 6.2940	12.6812	 7.3606	 7.4279	14.7885	53.1207	99.9542	
  1006	 5.8067	 4.0802	 9.8869	 6.3767	 6.3371	12.7138	 7.4914	 7.4305	14.9219	53.3059	99.9548	
  1007	 5.9616	 4.1297	10.0912	 6.4437	 6.4886	12.9324	 7.8117	 7.3620	15.1738	53.9740	99.9458	
  1008	 6.0551	 4.1713	10.2264	 6.5301	 6.5286	13.0587	 7.9478	 7.3570	15.3048	54.1948	99.9446	
  1009	 5.9957	 4.1933	10.1889	 6.4921	 6.5426	13.0348	 7.8140	 7.4072	15.2212	53.9358	99.9443	
  1010	 5.9467	 4.1352	10.0819	 6.4690	 6.4793	12.9484	 7.5019	 7.5243	15.0263	52.9881	99.9472	
  1011	 5.9187	 4.1760	10.0947	 6.4332	 6.5317	12.9650	 7.6803	 7.4574	15.1377	53.6287	99.9455	
  1012	 5.9476	 4.1501	10.0976	 6.4056	 6.6137	13.0194	 7.5436	 7.5605	15.1040	53.0101	99.9402	
  1013	 5.8610	 4.2278	10.0888	 6.3676	 6.6277	12.9955	 7.5881	 7.5437	15.1319	53.4159	99.9424	
  1014	 6.0202	 4.2223	10.2425	 6.4540	 6.6677	13.1218	 7.8527	 7.4962	15.3489	53.8116	99.9411	
  1015	 6.0394	 4.2914	10.3308	 6.4413	 6.7834	13.2248	 8.0393	 7.4779	15.5172	54.3252	99.9363	
  1016	 6.1234	 4.2985	10.4219	 6.4562	 6.8171	13.2734	 8.3314	 7.4142	15.7457	54.9418	99.9367	
  1017	 6.2484	 4.3590	10.6074	 6.5344	 6.9384	13.4729	 8.4229	 7.5352	15.9581	54.7531	99.9352	
  1018	 6.2493	 4.3739	10.6232	 6.4710	 6.9618	13.4329	 8.4704	 7.4656	15.9360	55.0426	99.9322	
  1019	 6.1575	 4.3621	10.5196	 6.5091	 6.8367	13.3459	 8.3285	 7.4671	15.7956	54.8754	99.9391	
  1020	 6.0779	 4.3000	10.3779	 6.3780	 6.8068	13.1848	 7.9941	 7.5926	15.5867	53.9140	99.9434	
  1021	 5.9773	 4.2686	10.2459	 6.4287	 6.6770	13.1058	 7.7190	 7.5464	15.2654	53.5726	99.9421	
  1022	 5.8592	 4.1979	10.0572	 6.3550	 6.5214	12.8765	 7.4016	 7.5620	14.9636	52.9427	99.9487	
  1023	 5.7560	 4.1218	 9.8778	 6.3133	 6.3605	12.6739	 7.2655	 7.5671	14.8326	52.6694	99.9579	
  1024	 5.6423	 4.1257	 9.7680	 6.2098	 6.3595	12.5694	 7.0567	 7.5937	14.6504	52.3596	99.9566	
  1025	 5.5811	 4.1178	 9.6989	 6.1614	 6.3056	12.4670	 7.0596	 7.5409	14.6005	52.5743	99.9595	
  1026	 5.5225	 4.1547	 9.6772	 6.1994	 6.2915	12.4910	 7.1019	 7.4790	14.5809	52.9705	99.9572	
  1027	 5.6423	 4.1257	 9.7680	 6.1844	 6.3689	12.5534	 7.3160	 7.4446	14.7606	53.2517	99.9552	
  1028	 5.6738	 4.1445	 9.8183	 6.2649	 6.3065	12.5715	 7.2380	 7.4739	14.7119	53.0097	99.9586	
  1029	 5.6572	 4.1202	 9.7774	 6.1889	 6.3346	12.5236	 7.2380	 7.4739	14.7119	52.9894	99.9579	
  1030	 5.5829	 4.1476	 9.7305	 6.1591	 6.3782	12.5374	 7.1042	 7.5241	14.6283	52.7592	99.9542	
  1031	 5.5680	 4.1531	 9.7211	 6.0980	 6.4400	12.5381	 7.1488	 7.5074	14.6562	52.9237	99.9511	
  1032	 5.5532	 4.1586	 9.7117	 6.1002	 6.3673	12.4676	 7.1934	 7.4906	14.6840	53.0879	99.9580	
  1033	 5.5392	 4.1790	 9.7182	 6.0980	 6.4400	12.5381	 7.1019	 7.4790	14.5809	52.9908	99.9486	
  1034	 5.4788	 4.1860	 9.6649	 6.0116	 6.4001	12.4117	 6.8789	 7.5627	14.4416	52.4358	99.9545	
  1035	 5.3450	 4.1059	 9.4509	 5.9826	 6.2344	12.2171	 6.5780	 7.6757	14.2536	51.5957	99.9636	
  1036	 5.4062	 4.1138	 9.5200	 6.0563	 6.2790	12.3355	 6.9711	 7.4763	14.4474	52.8123	99.9574	
  1037	 5.5689	 4.1680	 9.7369	 6.0704	 6.4110	12.4815	 7.1458	 7.5603	14.7061	52.8145	99.9585	
  1038	 5.6528	 4.1751	 9.8280	 6.1233	 6.4306	12.5540	 7.2209	 7.5838	14.8047	52.7944	99.9593	
  1039	 5.6537	 4.1900	 9.8437	 6.0532	 6.5610	12.6143	 7.3124	 7.5955	14.9079	52.9773	99.9533	
  1040	 5.7254	 4.2473	 9.9728	 6.1165	 6.6486	12.7652	 7.4573	 7.5411	14.9984	53.4007	99.9460	
  1041	 5.7517	 4.3062	10.0579	 6.1038	 6.7643	12.8682	 7.5436	 7.5605	15.1040	53.5962	99.9409	
  1042	 5.7237	 4.3470	10.0707	 6.0233	 6.8267	12.8501	 7.5852	 7.5966	15.1818	53.7085	99.9422	
  1043	 5.7701	 4.3604	10.1305	 6.1015	 6.8370	12.9386	 7.5406	 7.6133	15.1540	53.5341	99.9392	
  1044	 5.7281	 4.4216	10.1497	 6.0658	 6.8894	12.9553	 7.6744	 7.5631	15.2375	54.1006	99.9372	
  1045	 5.7815	 4.4247	10.2062	 6.1246	 6.9003	13.0250	 7.8187	 7.6067	15.4254	54.2049	99.9409	
  1046	 5.9371	 4.4892	10.4263	 6.1797	 7.0694	13.2491	 8.1918	 7.5702	15.7620	54.9152	99.9322	
  1047	 6.0386	 4.5355	10.5741	 6.2475	 7.1227	13.3703	 8.2304	 7.6592	15.8896	54.7105	99.9341	
  1048	 6.0683	 4.5245	10.5928	 6.2810	 7.1430	13.4241	 8.3337	 7.5687	15.9024	55.0692	99.9272	
  1049	 6.0517	 4.5002	10.5519	 6.2579	 7.0797	13.3377	 8.2809	 7.5367	15.8176	55.0244	99.9303	
  1050	 6.0053	 4.4868	10.4922	 6.2408	 7.0076	13.2485	 8.0469	 7.6246	15.6714	54.3951	99.9377	
  1051	 5.9065	 4.4852	10.3917	 6.1924	 6.9537	13.1461	 7.9078	 7.5733	15.4811	54.3912	99.9372	
  1052	 5.8287	 4.4530	10.2817	 6.1798	 6.8473	13.0272	 7.8081	 7.5129	15.3211	54.3984	99.9401	
  1053	 5.7115	 4.3972	10.1087	 6.1418	 6.7503	12.8922	 7.6327	 7.5270	15.1597	54.0863	99.9441	
  1054	 5.6984	 4.4326	10.1309	 6.1269	 6.8277	12.9546	 7.6268	 7.6327	15.2596	53.9000	99.9443	
  1055	 5.7124	 4.4122	10.1245	 6.1373	 6.7846	12.9220	 7.5406	 7.6133	15.1540	53.7173	99.9444	
  1056	 5.7841	 4.4695	10.2536	 6.1753	 6.8816	13.0570	 7.8609	 7.5449	15.4058	54.5200	99.9400	
  1057	 5.9371	 4.4892	10.4263	 6.1879	 6.9880	13.1760	 8.1390	 7.5382	15.6772	54.8915	99.9372	
  1058	 5.9914	 4.5072	10.4986	 6.2788	 6.9936	13.2725	 8.1918	 7.5702	15.7620	54.8701	99.9381	
  1059	 5.9616	 4.5182	10.4798	 6.2512	 6.9646	13.2159	 8.1918	 7.5702	15.7620	54.9339	99.9419	
  1060	 5.9607	 4.5033	10.4640	 6.2557	 6.9303	13.1861	 8.1390	 7.5382	15.6772	54.8835	99.9416	
  1061	 5.9607	 4.5033	10.4640	 6.2259	 6.9739	13.1999	 8.2393	 7.5006	15.7399	55.1708	99.9380	
  1062	 5.9223	 4.4946	10.4169	 6.2512	 6.9646	13.2159	 8.1390	 7.5382	15.6772	54.9234	99.9375	
  1063	 5.8628	 4.5166	10.3794	 6.1879	 6.9880	13.1760	 8.0498	 7.5717	15.6215	54.7955	99.9376	
  1064	 5.8471	 4.5072	10.3542	 6.1372	 7.0067	13.1440	 7.9078	 7.5733	15.4811	54.5200	99.9337	
  1065	 5.8007	 4.4938	10.2945	 6.1291	 6.9770	13.1062	 7.8187	 7.6067	15.4254	54.3057	99.9360	
  1066	 5.8164	 4.5032	10.3197	 6.0992	 7.0207	13.1200	 7.8603	 7.6429	15.5032	54.2930	99.9364	
  1067	 5.9625	 4.5331	10.4956	 6.2326	 7.0890	13.3217	 8.1888	 7.6231	15.8119	54.8248	99.9338	
  1068	 6.0692	 4.5394	10.6086	 6.2855	 7.1087	13.3942	 8.2780	 7.5896	15.8676	54.9366	99.9315	
  1069	 6.0692	 4.5394	10.6086	 6.2810	 7.1430	13.4241	 8.3754	 7.6048	15.9801	55.0873	99.9310	
  1070	 6.0980	 4.5135	10.6116	 6.3063	 7.1336	13.4400	 8.3337	 7.5687	15.9024	55.0055	99.9272	
  1071	 6.0535	 4.5300	10.5835	 6.2475	 7.1227	13.3703	 8.3308	 7.6215	15.9523	54.9654	99.9337	
  1072	 6.0543	 4.5449	10.5992	 6.2556	 7.1523	13.4081	 8.2304	 7.6592	15.8896	54.7051	99.9313	
  1073	 6.0412	 4.5802	10.6215	 6.2094	 7.2478	13.4573	 8.2832	 7.6911	15.9744	54.8141	99.9273	
  1074	 5.9800	 4.5724	10.5524	 6.2176	 7.1664	13.3841	 8.2304	 7.6592	15.8896	54.8646	99.9313	
  1075	 5.9503	 4.5833	10.5336	 6.2176	 7.1664	13.3841	 8.0967	 7.7094	15.8061	54.5453	99.9316	
  1076	 5.9503	 4.5833	10.5336	 6.2176	 7.1664	13.3841	 8.1383	 7.7455	15.8839	54.5378	99.9348	
  1077	 6.0587	 4.6195	10.6782	 6.2876	 7.2581	13.5458	 8.3360	 7.7231	16.0591	54.8857	99.9286	
  1078	 6.2021	 4.6046	10.8068	 6.3681	 7.3067	13.6749	 8.4727	 7.7293	16.2020	54.8989	99.9253	
  1079	 6.2161	 4.5842	10.8003	 6.3428	 7.3161	13.6589	 8.5173	 7.7125	16.2298	54.9676	99.9243	
  1080	 6.1715	 4.6007	10.7722	 6.3047	 7.3301	13.6349	 8.5730	 7.6916	16.2646	55.2208	99.9239	
  1081	 6.1742	 4.6454	10.8196	 6.4061	 7.2927	13.6989	 8.4697	 7.7821	16.2519	54.8802	99.9302	
  1082	 6.2039	 4.6344	10.8383	 6.3703	 7.3451	13.7155	 8.5730	 7.6916	16.2646	55.2372	99.9220	
  1083	 6.1129	 4.6376	10.7505	 6.3405	 7.2777	13.6183	 8.4252	 7.6896	16.1148	55.0951	99.9259	
  1084	 6.0552	 4.5598	10.6150	 6.2094	 7.2478	13.4573	 8.2832	 7.6911	15.9744	54.7558	99.9266	
  1085	 5.9957	 4.5818	10.5775	 6.2176	 7.1664	13.3841	 8.2862	 7.6383	15.9244	55.0186	99.9317	
  1086	 5.9503	 4.5833	10.5336	 6.1565	 7.2281	13.3847	 8.1829	 7.7288	15.9117	54.6655	99.9304	
  1087	 6.0272	 4.6006	10.6279	 6.1990	 7.2908	13.4899	 8.4252	 7.6896	16.1148	55.1499	99.9265	
  1088	 6.1462	 4.5567	10.7029	 6.2876	 7.2581	13.5458	 8.5701	 7.6352	16.2053	55.3080	99.9262	
  1089	 6.2327	 4.6086	10.8413	 6.3070	 7.3685	13.6755	 8.7625	 7.6205	16.3830	55.6837	99.9197	
  1090	 6.2345	 4.6384	10.8729	 6.3241	 7.4405	13.7647	 8.5730	 7.6916	16.2646	55.2005	99.9134	
  1091	 6.1296	 4.6619	10.7915	 6.2607	 7.4639	13.7247	 8.3360	 7.7231	16.0591	54.8620	99.9090	
  1092	 6.2083	 4.7090	10.9173	 6.3158	 7.5219	13.8379	 8.5173	 7.7125	16.2298	55.2118	99.9071	
  1093	 6.2677	 4.6871	10.9548	 6.3494	 7.4312	13.7807	 8.5730	 7.6916	16.2646	55.2435	99.9163	
  1094	 6.2065	 4.6792	10.8857	 6.3241	 7.4405	13.7647	 8.7625	 7.6205	16.3830	55.8530	99.9141	
  1095	 6.2817	 4.6667	10.9484	 6.2443	 7.6267	13.8711	 8.7707	 7.6692	16.4399	55.6183	99.8989	
  1096	 6.3447	 4.7043	11.0491	 6.3225	 7.6370	13.9596	 8.7678	 7.7220	16.4898	55.4633	99.9014	
  1097	 6.3753	 4.7083	11.0836	 6.3247	 7.6754	14.0002	 8.8763	 7.7331	16.6093	55.6064	99.9006	
  1098	 6.4680	 4.7350	11.2030	 6.4916	 7.6529	14.1446	 9.0212	 7.6787	16.6998	55.9323	99.8992	
  1099	 6.4671	 4.7201	11.1872	 6.4134	 7.6426	14.0561	 8.9766	 7.6954	16.6720	55.7803	99.9027	
  1100	 6.3919	 4.7326	11.1246	 6.3858	 7.6136	13.9996	 8.9238	 7.6634	16.5873	55.8891	99.9032	
  1101	 6.3132	 4.6855	10.9987	 6.4023	 7.4508	13.8532	 8.8710	 7.6315	16.5025	55.8915	99.9150	
  1102	 6.2520	 4.6776	10.9296	 6.3136	 7.4835	13.7973	 8.7678	 7.7220	16.4898	55.5460	99.9171	
  1103	 6.2249	 4.7334	10.9582	 6.3516	 7.4695	13.8212	 8.8710	 7.6315	16.5025	56.1062	99.9155	
  1104	 6.2520	 4.6776	10.9296	 6.3494	 7.4312	13.7807	 8.7150	 7.6901	16.4051	55.5239	99.9185	
  1105	 6.0989	 4.6580	10.7569	 6.2161	 7.3628	13.5790	 8.5255	 7.6519	16.1775	55.4385	99.9212	
  1106	 5.9957	 4.5818	10.5775	 6.1416	 7.1944	13.3362	 8.2862	 7.6383	15.9244	55.0186	99.9312	
  1107	 5.9336	 4.5590	10.4927	 6.2326	 7.0890	13.3217	 8.3308	 7.6215	15.9523	55.1928	99.9372	
  1108	 6.0228	 4.5261	10.5489	 6.2832	 7.0703	13.3536	 8.4311	 7.5839	16.0150	55.2878	99.9369	
  1109	 5.9914	 4.5072	10.4986	 6.3399	 6.9318	13.2719	 8.3255	 7.5200	15.8455	55.2523	99.9419	
  1110	 5.9520	 4.4837	10.4357	 6.2915	 6.8779	13.1695	 8.2868	 7.4310	15.7178	55.4101	99.9413	
  1111	 5.9039	 4.4405	10.3444	 6.2640	 6.8489	13.1129	 8.2868	 7.4310	15.7178	55.3984	99.9426	
  1112	 5.9485	 4.4240	10.3725	 6.2893	 6.8395	13.1289	 8.2734	 7.3900	15.6634	55.3783	99.9401	
  1113	 5.9660	 4.4633	10.4292	 6.2811	 6.9209	13.2021	 8.3314	 7.4142	15.7457	55.4786	99.9366	
  1114	 5.9354	 4.4593	10.3947	 6.2915	 6.8779	13.1695	 8.1865	 7.4686	15.6552	55.1018	99.9404	
  1115	 6.0045	 4.4719	10.4764	 6.3653	 6.9225	13.2878	 8.3731	 7.4504	15.8234	55.4302	99.9376	
  1116	 6.1418	 4.4822	10.6239	 6.3570	 7.0039	13.3610	 8.6183	 7.3583	15.9766	55.9486	99.9308	
  1117	 6.2642	 4.4979	10.7621	 6.4628	 7.0432	13.5061	 8.7157	 7.3735	16.0892	55.9509	99.9285	
  1118	 6.2187	 4.4995	10.7182	 6.4710	 6.9618	13.4329	 8.6629	 7.3416	16.0045	55.9975	99.9331	
  1119	 6.2004	 4.4453	10.6456	 6.4457	 6.9711	13.4169	 8.6183	 7.3583	15.9766	55.7954	99.9307	
  1120	 6.1383	 4.4225	10.5608	 6.3951	 6.8788	13.2740	 8.2317	 7.3539	15.5856	55.1087	99.9318	
  1121	 5.9747	 4.3534	10.3281	 6.3400	 6.7098	13.0499	 7.8140	 7.4072	15.2212	54.2677	99.9397	
  1122	 5.8881	 4.3016	10.1897	 6.3274	 6.6034	12.9309	 7.7249	 7.4407	15.1655	54.0396	99.9474	
  1123	 5.9021	 4.2811	10.1833	 6.3572	 6.5598	12.9171	 7.7671	 7.3788	15.1459	54.2170	99.9473	
  1124	 5.9179	 4.2906	10.2084	 6.3527	 6.5941	12.9469	 7.8111	 7.4600	15.2711	54.0978	99.9505	
  1125	 5.9476	 4.2796	10.2272	 6.3423	 6.6371	12.9795	 7.8557	 7.4433	15.2990	54.1625	99.9468	
  1126	 6.0648	 4.3354	10.4001	 6.4182	 6.7201	13.1384	 8.1396	 7.4402	15.5798	54.6593	99.9458	
  1127	 6.1549	 4.3173	10.4722	 6.5069	 6.6873	13.1943	 8.2763	 7.3372	15.6135	55.0145	99.9433	
  1128	 6.1085	 4.3040	10.4125	 6.4540	 6.6677	13.1218	 8.1314	 7.3916	15.5230	54.6404	99.9461	
  1129	 6.0691	 4.2804	10.3496	 6.4310	 6.6044	13.0354	 8.0422	 7.4250	15.4673	54.3967	99.9514	
  1130	 6.0245	 4.2969	10.3214	 6.4310	 6.6044	13.0354	 8.0422	 7.4250	15.4673	54.4933	99.9514	
  1131	 6.0245	 4.2969	10.3214	 6.4310	 6.6044	13.0354	 7.9976	 7.4418	15.4394	54.3645	99.9515	
  1132	 5.9931	 4.2780	10.2711	 6.4034	 6.5753	12.9788	 7.8557	 7.4433	15.2990	54.0921	99.9511	
  1133	 5.9922	 4.2631	10.2553	 6.3423	 6.6371	12.9795	 7.9003	 7.4266	15.3268	54.1948	99.9468	
  1134	 5.9931	 4.2780	10.2711	 6.3423	 6.6371	12.9795	 8.0035	 7.3360	15.3396	54.6481	99.9443	
  1135	 6.0700	 4.2953	10.3654	 6.3907	 6.6911	13.0818	 8.1344	 7.3387	15.4730	54.8169	99.9420	
  1136	 6.1697	 4.3118	10.4816	 6.4816	 6.6967	13.1784	 8.4688	 7.2131	15.6819	55.6614	99.9397	
  1137	 6.1697	 4.3118	10.4816	 6.4436	 6.7107	13.1544	 8.4212	 7.2828	15.7040	55.3975	99.9426	
  1138	 6.1225	 4.2836	10.4061	 6.4540	 6.6677	13.1218	 8.3239	 7.2675	15.5914	55.2624	99.9421	
  1139	 6.1374	 4.2781	10.4154	 6.4540	 6.6677	13.1218	 8.3209	 7.3204	15.6413	55.0941	99.9451	
  1140	 6.1234	 4.2985	10.4219	 6.4287	 6.6770	13.1058	 8.2763	 7.3372	15.6135	55.0250	99.9457	
  1141	 6.0403	 4.3063	10.3466	 6.3952	 6.6567	13.0520	 8.1344	 7.3387	15.4730	54.8811	99.9453	
  1142	 6.0779	 4.3000	10.3779	 6.3907	 6.6911	13.0818	 8.2822	 7.2314	15.5136	55.3672	99.9389	
  1143	 6.0788	 4.3150	10.3937	 6.3929	 6.7294	13.1224	 8.1344	 7.3387	15.4730	54.8410	99.9390	
  1144	 6.0490	 4.3259	10.3750	 6.3907	 6.6911	13.0818	 8.1789	 7.3219	15.5009	55.0334	99.9429	
  1145	 6.1540	 4.3024	10.4564	 6.4436	 6.7107	13.1544	 8.4212	 7.2828	15.7040	55.4025	99.9421	
  1146	 6.2624	 4.3386	10.6010	 6.4309	 6.8264	13.2574	 8.6553	 7.1949	15.8502	55.9809	99.9328	
  1147	 6.2913	 4.3127	10.6040	 6.4562	 6.8171	13.2734	 8.7110	 7.1740	15.8850	56.0489	99.9320	
  1148	 6.2441	 4.2844	10.5285	 6.4413	 6.7834	13.2248	 8.5661	 7.2284	15.7945	55.6517	99.9349	
  1149	 6.2117	 4.2506	10.4623	 6.4078	 6.7631	13.1710	 8.5579	 7.1797	15.7376	55.7395	99.9330	
  1150	 6.1671	 4.2671	10.4342	 6.3929	 6.7294	13.1224	 8.4242	 7.2299	15.6541	55.4536	99.9375	
  1151	 6.0928	 4.2946	10.3873	 6.3653	 6.7004	13.0659	 8.3766	 7.2995	15.6761	55.3490	99.9444	
  1152	 6.0394	 4.2914	10.3308	 6.3952	 6.6567	13.0520	 8.2347	 7.3010	15.5357	55.1424	99.9445	
  1153	 6.0219	 4.2521	10.2741	 6.4034	 6.5753	12.9788	 8.1819	 7.2691	15.4510	55.0707	99.9474	
  1154	 6.0079	 4.2725	10.2805	 6.4414	 6.5613	13.0028	 8.2265	 7.2523	15.4788	55.2573	99.9480	
  1155	 6.0691	 4.2804	10.3496	 6.4205	 6.6474	13.0680	 8.3766	 7.2995	15.6761	55.3566	99.9470	
  1156	 6.1986	 4.2860	10.4845	 6.5069	 6.6873	13.1943	 8.6078	 7.2645	15.8723	55.7103	99.9445	
  1157	 6.2301	 4.3048	10.5349	 6.5576	 6.6686	13.2263	 8.6635	 7.2436	15.9071	55.8586	99.9457	
  1158	 6.1846	 4.3064	10.4909	 6.5174	 6.6443	13.1617	 8.6078	 7.2645	15.8723	55.7686	99.9486	
  1159	 6.1837	 4.2914	10.4752	 6.5069	 6.6873	13.1943	 8.6078	 7.2645	15.8723	55.7419	99.9446	
  1160	 6.1697	 4.3118	10.4816	 6.5680	 6.6256	13.1937	 8.6553	 7.1949	15.8502	56.0630	99.9462	
  1161	 6.1688	 4.2969	10.4658	 6.5069	 6.6873	13.1943	 8.6553	 7.1949	15.8502	56.0361	99.9416	
  1162	 6.1540	 4.3024	10.4564	 6.4436	 6.7107	13.1544	 8.5661	 7.2284	15.7945	55.8150	99.9415	
  1163	 6.1391	 4.3079	10.4470	 6.3571	 6.7818	13.1390	 8.6107	 7.2116	15.8223	55.9730	99.9368	
  1164	 6.1111	 4.3487	10.4599	 6.4816	 6.6967	13.1784	 8.6078	 7.2645	15.8723	55.9533	99.9457	
  1165	 6.1260	 4.3432	10.4692	 6.4816	 6.6967	13.1784	 8.6078	 7.2645	15.8723	55.9218	99.9457	
  1166	 6.2047	 4.3903	10.5951	 6.5553	 6.7413	13.2967	 8.8553	 7.2176	16.0729	56.4831	99.9435	
  1167	 6.2878	 4.3825	10.6703	 6.5724	 6.8133	13.3859	 8.8635	 7.2662	16.1298	56.2458	99.9398	
  1168	 6.3167	 4.3566	10.6733	 6.5724	 6.8133	13.3859	 8.7632	 7.3039	16.0671	55.8730	99.9397	
  1169	 6.2755	 4.3032	10.5788	 6.5300	 6.7506	13.2807	 8.7104	 7.2720	15.9824	55.8099	99.9416	
  1170	 6.2598	 4.2938	10.5536	 6.5598	 6.7070	13.2669	 8.7081	 7.2268	15.9349	55.9218	99.9418	
  1171	 6.2616	 4.3236	10.5852	 6.4562	 6.8171	13.2734	 8.7104	 7.2720	15.9824	55.8682	99.9378	
  1172	 6.2309	 4.3197	10.5507	 6.4965	 6.7304	13.2269	 8.6658	 7.2887	15.9545	55.7783	99.9446	
  1173	 6.1697	 4.3118	10.4816	 6.5323	 6.6780	13.2103	 8.5655	 7.3264	15.8919	55.5668	99.9480	
  1174	 6.1846	 4.3064	10.4909	 6.4965	 6.7304	13.2269	 8.6213	 7.3054	15.9267	55.6933	99.9439	
  1175	 6.1706	 4.3268	10.4974	 6.4666	 6.7740	13.2408	 8.5180	 7.3960	15.9139	55.3310	99.9446	
  1176	 6.1706	 4.3268	10.4974	 6.4413	 6.7834	13.2248	 8.6213	 7.3054	15.9267	55.7516	99.9411	
  1177	 6.3079	 4.3370	10.6449	 6.5173	 6.8663	13.3837	 8.7603	 7.3568	16.1170	55.7127	99.9382	
  1178	 6.3936	 4.3739	10.7675	 6.6208	 6.8673	13.4882	 8.9609	 7.2814	16.2424	56.2259	99.9367	
  1179	 6.3936	 4.3739	10.7675	 6.5851	 6.9197	13.5048	 8.9052	 7.3024	16.2075	56.0689	99.9329	
  1180	 6.3761	 4.3347	10.7108	 6.5955	 6.8766	13.4722	 8.9134	 7.3511	16.2644	55.9158	99.9380	
  1181	 6.3464	 4.3457	10.6920	 6.5702	 6.8860	13.4563	 8.8576	 7.3720	16.2296	55.8216	99.9382	
  1182	 6.3376	 4.3260	10.6637	 6.5679	 6.8476	13.4157	 8.7603	 7.3568	16.1170	55.6496	99.9386	
  1183	 6.2913	 4.3127	10.6040	 6.5807	 6.7319	13.3127	 8.7186	 7.3206	16.0393	55.7006	99.9453	
  1184	 6.2432	 4.2695	10.5127	 6.4965	 6.7304	13.2269	 8.5655	 7.3264	15.8919	55.3818	99.9434	
  1185	 6.1592	 4.2624	10.4216	 6.4540	 6.6677	13.1218	 8.5579	 7.1797	15.7376	55.8370	99.9409	
  1186	 6.1400	 4.1933	10.3333	 6.5219	 6.4989	13.0209	 8.3239	 7.2675	15.5914	55.0673	99.9525	
  1187	 6.0700	 4.1658	10.2358	 6.4988	 6.4356	12.9345	 8.3245	 7.1695	15.4940	55.3606	99.9518	
  1188	 6.1679	 4.1525	10.3205	 6.5599	 6.4849	13.0449	 8.4717	 7.1603	15.6320	55.5004	99.9483	
  1189	 6.2143	 4.1659	10.3802	 6.5599	 6.4849	13.0449	 8.5586	 7.0817	15.6402	55.8201	99.9465	
  1190	 6.2195	 4.1258	10.3454	 6.5875	 6.4029	12.9905	 8.4160	 7.1812	15.5972	55.2165	99.9545	
  1191	 6.1303	 4.1588	10.2891	 6.5726	 6.3692	12.9419	 8.4166	 7.0832	15.4998	55.6516	99.9530	
  1192	 6.1723	 4.0976	10.2699	 6.5644	 6.3396	12.9041	 8.3720	 7.0999	15.4720	55.3479	99.9542	
  1193	 6.1268	 4.0991	10.2260	 6.4884	 6.3676	12.8562	 8.2271	 7.1543	15.3814	55.0014	99.9538	
  1194	 6.0805	 4.0858	10.1662	 6.5242	 6.3152	12.8395	 8.1409	 7.1349	15.2758	54.9241	99.9538	
  1195	 6.0577	 4.0865	10.1443	 6.5518	 6.2332	12.7851	 8.1409	 7.1349	15.2758	54.9588	99.9598	
  1196	 6.0420	 4.0771	10.1191	 6.5011	 6.2519	12.7532	 8.0828	 7.1107	15.1935	54.9108	99.9569	
  1197	 6.0123	 4.0881	10.1004	 6.5056	 6.2176	12.7233	 7.9936	 7.1442	15.1378	54.7176	99.9598	
  1198	 6.0875	 4.0756	10.1630	 6.4862	 6.3293	12.8156	 8.2271	 7.1543	15.3814	55.0145	99.9559	
  1199	 6.2012	 4.0717	10.2728	 6.5391	 6.3489	12.8881	 8.4196	 7.0303	15.4499	55.5217	99.9506	
  1200	 6.1714	 4.0827	10.2541	 6.5495	 6.3059	12.8555	 8.3192	 7.0680	15.3872	55.2982	99.9545	
  1201	 6.1260	 4.0842	10.2102	 6.4862	 6.3293	12.8156	 8.2746	 7.0847	15.3594	55.2394	99.9538	
  1202	 6.1600	 4.0183	10.1783	 6.5160	 6.2856	12.8017	 8.2301	 7.1015	15.3315	54.9373	99.9550	
  1203	 6.1006	 4.0403	10.1408	 6.5518	 6.2332	12.7851	 8.0851	 7.1559	15.2410	54.6481	99.9588	
  1204	 6.0848	 4.0308	10.1157	 6.4781	 6.1886	12.6668	 7.9045	 7.1777	15.0821	54.2438	99.9620	
  1205	 6.0385	 4.0175	10.0560	 6.5667	 6.1559	12.7227	 7.8628	 7.1416	15.0044	54.2945	99.9583	
  1206	 6.0149	 4.0033	10.0182	 6.4744	 6.1247	12.5991	 7.6710	 7.1676	14.8386	53.8571	99.9607	
  1207	 5.9685	 3.9900	 9.9585	 6.5400	 6.0286	12.5687	 7.6264	 7.1843	14.8107	53.7708	99.9653	
  1208	 6.0236	 4.0230	10.0466	 6.5079	 6.1450	12.6529	 7.8628	 7.1416	15.0044	54.3269	99.9612	
  1209	 6.1592	 4.0034	10.1626	 6.5816	 6.1896	12.7713	 8.0858	 7.0579	15.1436	54.7364	99.9560	
  1210	 6.1303	 4.0293	10.1596	 6.5518	 6.2332	12.7851	 8.1749	 7.0244	15.1993	55.0852	99.9536	
  1211	 6.1574	 3.9736	10.1310	 6.6174	 6.1372	12.7547	 8.1304	 7.0411	15.1715	54.8116	99.9584	
  1212	 6.0988	 4.0104	10.1093	 6.5921	 6.1465	12.7387	 8.1304	 7.0411	15.1715	54.9672	99.9589	
  1213	 6.1434	 3.9940	10.1374	 6.5816	 6.1896	12.7713	 8.2277	 7.0563	15.2841	55.0230	99.9580	
  1214	 6.1198	 3.9798	10.0996	 6.6852	 6.0795	12.7648	 8.3615	 7.0061	15.3676	55.4142	99.9631	
  1215	 6.1994	 4.0419	10.2413	 6.6382	 6.2731	12.9115	 8.5533	 6.9801	15.5334	55.8494	99.9531	
  1216	 6.2746	 4.1588	10.4335	 6.6762	 6.3701	13.0464	 8.0382	 7.1275	15.1657	54.5929	99.9461	
  1217	 5.6616	 3.9357	 9.5973	 6.1944	 5.6469	11.8414	 6.4492	 6.8326	13.2818	52.6048	99.9576	
  1218	 5.3406	 3.7724	 9.1129	 6.1439	 5.3325	11.4764	 6.4059	 6.5440	12.9499	53.4354	99.9592	
  1219	 5.6239	 3.8125	 9.4364	 6.3994	 5.4994	11.8988	 7.0669	 6.6927	13.7596	54.0559	99.9661	
  1220	 6.0061	 3.8542	 9.8603	 6.6370	 5.5814	12.2185	 7.3591	 6.6290	13.9881	54.3079	99.9612	
  1221	 5.8871	 3.7686	 9.6558	 6.7116	 5.4167	12.1284	 7.3210	 6.5513	13.8723	54.4433	99.9620	
  1222	 5.8679	 3.6995	 9.5674	 6.6617	 5.3372	11.9990	 7.1937	 6.5071	13.7008	54.1938	99.9626	
  1223	 5.6248	 3.5684	 9.1931	 6.4822	 5.1423	11.6245	 6.9709	 6.3722	13.3430	54.2009	99.9656	
  1224	 5.5565	 3.5707	 9.1272	 6.4569	 5.1516	11.6086	 6.9732	 6.4173	13.3905	54.1996	99.9671	
