OxySoft export of:	C:\Users\TO3 TechSupport\Documents\Train2Adapt\T2A_47
Export date:	2022/09/17 06:55:15
Start of measurement:	2022-09-16 22:22:57.410

Datafile sample rate:	10.00	Hz
Datafile duration:	3549.900	s
Datafile total number of samples:	35499

Description:	

Optode-template:	PortaMon TSI Fit Factor
Optode distance (mm):	 35.00
Optode gradients (mm):	 5.00
DPF:	6.61

Device id:	334
# Receivers:	1
# Light sources:	6
# ADC:	2

Light source wavelengths:
device	index	wavelength
1	1	849	nm
1	2	759	nm
1	3	846	nm
1	4	757	nm
1	5	848	nm
1	6	757	nm

Export sample rate:	10.00	Hz
Selected time span:	0	3549.900
Selected time span (sample numbers):	0	35499


Legend:
Column	Trace (Measurement)
1	(Sample number)
2	Rx1-Tx1 O2Hb (T2A_47)
3	Rx1-Tx1 HHb (T2A_47)
4	Rx1-Tx1 tHb (T2A_47)
5	Rx1-Tx2 O2Hb (T2A_47)
6	Rx1-Tx2 HHb (T2A_47)
7	Rx1-Tx2 tHb (T2A_47)
8	Rx1-Tx3 O2Hb (T2A_47)
9	Rx1-Tx3 HHb (T2A_47)
10	Rx1-Tx3 tHb (T2A_47)
11	Rx1-Tx1,Tx2,Tx3 TSI% (T2A_47)
12	Rx1-Tx1,Tx2,Tx3 TSI Fit Factor (T2A_47)
13	(Event)


1	2	3	4	5	6	7	8	9	10	11	12	13
     0	117.4808	57.9300	175.4108	94.5554	47.3751	141.9306	75.6432	41.5407	117.1839	11.5652	98.7634	
     1	 0.0607	-0.0893	-0.0286	 0.0646	-0.0939	-0.0292	 0.0082	-0.0481	-0.0399	58.7683	99.8750	
     2	 0.1059	-0.0755	 0.0304	 0.0920	-0.0648	 0.0273	 0.0695	-0.0415	 0.0280	58.8542	99.8747	
     3	 0.1435	-0.0665	 0.0770	 0.1179	-0.0611	 0.0569	 0.1193	-0.0422	 0.0771	58.9378	99.8720	
     4	 0.1435	-0.0665	 0.0770	 0.1053	-0.0566	 0.0488	 0.0861	-0.0417	 0.0444	58.8497	99.8736	
     5	 0.1290	-0.0613	 0.0677	 0.0995	-0.0481	 0.0515	 0.0861	-0.0417	 0.0444	58.8915	99.8749	
     6	 0.1290	-0.0613	 0.0677	 0.0995	-0.0481	 0.0515	 0.0759	-0.0268	 0.0491	58.8124	99.8742	
     7	 0.1146	-0.0561	 0.0585	 0.0803	-0.0478	 0.0326	 0.0644	-0.0341	 0.0304	58.8497	99.8736	
     8	 0.0713	-0.0406	 0.0307	 0.0611	-0.0474	 0.0137	 0.0261	-0.0262	-0.0001	58.8475	99.8747	
     9	 0.0491	-0.0401	 0.0090	 0.0293	-0.0427	-0.0133	 0.0255	-0.0373	-0.0118	58.9289	99.8735	
    10	 0.0491	-0.0401	 0.0090	 0.0235	-0.0342	-0.0106	 0.0146	-0.0334	-0.0188	58.8871	99.8748	
    11	 0.0568	-0.0354	 0.0214	 0.0368	-0.0259	 0.0109	 0.0434	-0.0154	 0.0281	58.8960	99.8732	
    12	 0.1020	-0.0216	 0.0804	 0.0768	-0.0013	 0.0755	 0.1047	-0.0088	 0.0960	58.9817	99.8739	
    13	 0.1242	-0.0221	 0.1021	 0.0834	 0.0028	 0.0863	 0.1156	-0.0126	 0.1030	58.9795	99.8737	
    14	 0.1020	-0.0216	 0.0804	 0.0760	-0.0140	 0.0621	 0.0875	-0.0196	 0.0678	58.9751	99.8739	
    15	 0.0944	-0.0264	 0.0680	 0.0509	-0.0051	 0.0459	 0.0607	-0.0045	 0.0562	58.8542	99.8734	
    16	 0.0655	-0.0160	 0.0495	 0.0442	-0.0092	 0.0351	 0.0549	-0.0081	 0.0468	58.9355	99.8736	
    17	 0.0433	-0.0156	 0.0278	 0.0317	-0.0048	 0.0270	 0.0434	-0.0154	 0.0281	58.9751	99.8757	
    18	 0.0433	-0.0156	 0.0278	 0.0250	-0.0089	 0.0163	 0.0109	-0.0039	 0.0070	58.8497	99.8754	
    19	 0.0144	-0.0052	 0.0092	-0.0000	-0.0000	 0.0000	-0.0006	-0.0111	-0.0117	58.9289	99.8761	
    20	 0.0000	-0.0000	-0.0000	-0.0000	-0.0000	 0.0000	 0.0000	-0.0000	 0.0000	58.9333	99.8754	
    21	 0.0520	 0.0038	 0.0558	 0.0399	 0.0246	 0.0646	 0.0837	 0.0100	 0.0937	59.0256	99.8744	
    22	 0.0895	 0.0128	 0.1023	 0.0717	 0.0198	 0.0916	 0.0901	 0.0246	 0.1148	58.9422	99.8728	
    23	 0.0606	 0.0232	 0.0838	 0.0466	 0.0287	 0.0754	 0.0837	 0.0100	 0.0937	59.0607	99.8739	
    24	 0.0385	 0.0237	 0.0621	 0.0274	 0.0290	 0.0565	 0.0620	 0.0176	 0.0797	59.0212	99.8735	
    25	 0.0385	 0.0237	 0.0621	 0.0207	 0.0249	 0.0458	 0.0403	 0.0253	 0.0656	58.9378	99.8727	
    26	 0.0308	 0.0189	 0.0497	 0.0023	 0.0379	 0.0403	 0.0397	 0.0142	 0.0539	58.9773	99.8746	
    27	 0.0019	 0.0293	 0.0312	-0.0043	 0.0338	 0.0296	 0.0180	 0.0219	 0.0399	58.9773	99.8749	
    28	-0.0193	 0.0444	 0.0251	-0.0169	 0.0382	 0.0215	-0.0145	 0.0334	 0.0188	58.9333	99.8754	
    29	-0.0270	 0.0396	 0.0126	-0.0294	 0.0426	 0.0133	-0.0152	 0.0223	 0.0071	58.9729	99.8765	
    30	-0.0116	 0.0491	 0.0375	-0.0035	 0.0464	 0.0430	 0.0569	 0.0251	 0.0820	59.1462	99.8731	
    31	 0.0336	 0.0629	 0.0965	 0.0357	 0.0584	 0.0942	 0.0749	 0.0470	 0.1219	59.0651	99.8733	
    32	 0.0336	 0.0629	 0.0965	 0.0114	 0.0799	 0.0914	 0.0583	 0.0472	 0.1055	59.0212	99.8750	
    33	 0.0115	 0.0633	 0.0748	-0.0020	 0.0717	 0.0698	 0.0366	 0.0549	 0.0915	58.9817	99.8739	
    34	-0.0030	 0.0685	 0.0655	-0.0086	 0.0676	 0.0591	 0.0142	 0.0515	 0.0657	58.9773	99.8749	
    35	-0.0174	 0.0737	 0.0563	-0.0211	 0.0720	 0.0510	 0.0142	 0.0515	 0.0657	59.0190	99.8744	
    36	-0.0251	 0.0689	 0.0439	-0.0403	 0.0723	 0.0321	 0.0027	 0.0442	 0.0470	59.0168	99.8742	
    37	-0.0472	 0.0694	 0.0222	-0.0529	 0.0768	 0.0240	-0.0298	 0.0557	 0.0259	58.9355	99.8761	
    38	-0.0617	 0.0746	 0.0129	-0.0654	 0.0812	 0.0159	-0.0406	 0.0596	 0.0189	58.9355	99.8761	
    39	-0.0684	 0.0845	 0.0161	-0.0646	 0.0938	 0.0293	-0.0075	 0.0591	 0.0517	59.0629	99.8756	
    40	-0.0164	 0.0883	 0.0719	-0.0129	 0.1014	 0.0886	 0.0437	 0.0806	 0.1243	59.0299	99.8745	
    41	 0.0066	 0.1025	 0.1092	-0.0004	 0.0970	 0.0967	 0.0328	 0.0844	 0.1173	58.9817	99.8732	
    42	-0.0232	 0.0982	 0.0751	-0.0321	 0.1017	 0.0697	 0.0098	 0.0700	 0.0798	59.0190	99.8751	
    43	-0.0376	 0.1034	 0.0658	-0.0446	 0.1061	 0.0616	-0.0010	 0.0738	 0.0728	59.0190	99.8751	
    44	-0.0521	 0.1086	 0.0565	-0.0446	 0.1061	 0.0616	-0.0010	 0.0738	 0.0728	59.0607	99.8757	
    45	-0.0598	 0.1039	 0.0441	-0.0697	 0.1150	 0.0454	-0.0176	 0.0740	 0.0564	59.0190	99.8759	
    46	-0.0887	 0.1142	 0.0256	-0.0764	 0.1109	 0.0346	-0.0502	 0.0855	 0.0354	58.9773	99.8767	
    47	-0.0964	 0.1095	 0.0131	-0.0889	 0.1153	 0.0265	-0.0718	 0.0932	 0.0213	58.8960	99.8775	
    48	-0.1108	 0.1147	 0.0039	-0.1022	 0.1071	 0.0050	-0.0725	 0.0821	 0.0096	58.9751	99.8757	
    49	-0.0945	 0.1388	 0.0443	-0.0623	 0.1317	 0.0696	-0.0105	 0.0998	 0.0892	59.1067	99.8764	
    50	-0.0425	 0.1427	 0.1002	-0.0239	 0.1311	 0.1073	 0.0284	 0.1030	 0.1314	59.1067	99.8746	
    51	-0.0280	 0.1375	 0.1094	-0.0364	 0.1355	 0.0992	 0.0176	 0.1068	 0.1244	59.0234	99.8735	
    52	-0.0502	 0.1379	 0.0877	-0.0615	 0.1444	 0.0830	-0.0156	 0.1072	 0.0916	58.9795	99.8755	
    53	-0.0646	 0.1431	 0.0785	-0.0740	 0.1488	 0.0749	-0.0156	 0.1072	 0.0916	59.0212	99.8750	
    54	-0.0646	 0.1431	 0.0785	-0.0740	 0.1488	 0.0749	-0.0265	 0.1110	 0.0846	58.9795	99.8755	
    55	-0.0791	 0.1483	 0.0692	-0.0807	 0.1447	 0.0641	-0.0373	 0.1149	 0.0776	58.9795	99.8748	
    56	-0.1012	 0.1487	 0.0475	-0.1116	 0.1621	 0.0506	-0.0539	 0.1151	 0.0612	58.9795	99.8763	
    57	-0.1156	 0.1539	 0.0383	-0.1057	 0.1536	 0.0479	-0.0756	 0.1228	 0.0472	58.9378	99.8770	
    58	-0.1368	 0.1690	 0.0322	-0.1308	 0.1624	 0.0317	-0.0864	 0.1266	 0.0402	58.9773	99.8756	
    59	-0.0926	 0.1681	 0.0756	-0.0916	 0.1744	 0.0829	-0.0085	 0.1330	 0.1244	59.0694	99.8738	
    60	-0.0473	 0.1819	 0.1345	-0.0708	 0.1994	 0.1286	 0.0253	 0.1436	 0.1689	59.0694	99.8735	
    61	-0.0618	 0.1871	 0.1253	-0.0650	 0.1908	 0.1260	 0.0030	 0.1402	 0.1432	59.0651	99.8755	
    62	-0.0762	 0.1922	 0.1160	-0.0900	 0.1997	 0.1097	-0.0187	 0.1479	 0.1292	59.0234	99.8749	
    63	-0.0907	 0.1974	 0.1068	-0.0900	 0.1997	 0.1097	-0.0079	 0.1440	 0.1362	59.1067	99.8750	
    64	-0.0907	 0.1974	 0.1068	-0.1026	 0.2041	 0.1016	-0.0295	 0.1517	 0.1222	59.0234	99.8749	
    65	-0.0984	 0.1927	 0.0943	-0.1151	 0.2085	 0.0935	-0.0512	 0.1594	 0.1081	58.9422	99.8758	
    66	-0.1195	 0.2078	 0.0882	-0.1151	 0.2085	 0.0935	-0.0519	 0.1483	 0.0964	59.0607	99.8772	
    67	-0.1417	 0.2082	 0.0665	-0.1284	 0.2003	 0.0720	-0.0736	 0.1559	 0.0824	59.0212	99.8761	
    68	-0.1484	 0.2181	 0.0697	-0.1410	 0.2048	 0.0639	-0.0838	 0.1708	 0.0871	58.9817	99.8739	
    69	-0.1119	 0.2125	 0.1007	-0.1135	 0.2338	 0.1204	-0.0224	 0.1774	 0.1550	59.0321	99.8759	
    70	-0.0666	 0.2263	 0.1597	-0.0743	 0.2458	 0.1716	 0.0274	 0.1768	 0.2042	59.1132	99.8757	
    71	-0.0666	 0.2263	 0.1597	-0.0751	 0.2332	 0.1581	-0.0001	 0.1808	 0.1808	59.0278	99.8750	
    72	-0.0878	 0.2414	 0.1536	-0.1002	 0.2420	 0.1419	-0.0218	 0.1885	 0.1667	59.0256	99.8741	
    73	-0.0955	 0.2366	 0.1411	-0.1002	 0.2420	 0.1419	-0.0218	 0.1885	 0.1667	59.0278	99.8750	
    74	-0.0955	 0.2366	 0.1411	-0.1002	 0.2420	 0.1419	-0.0326	 0.1923	 0.1597	58.9861	99.8755	
    75	-0.1100	 0.2418	 0.1319	-0.1127	 0.2464	 0.1338	-0.0543	 0.2000	 0.1457	58.9444	99.8760	
    76	-0.1321	 0.2423	 0.1102	-0.1378	 0.2553	 0.1176	-0.0651	 0.2038	 0.1387	58.9466	99.8759	
    77	-0.1388	 0.2522	 0.1133	-0.1503	 0.2597	 0.1095	-0.0868	 0.2115	 0.1247	58.9027	99.8755	
    78	-0.1677	 0.2625	 0.0948	-0.1570	 0.2556	 0.0987	-0.0983	 0.2043	 0.1059	58.9817	99.8765	
    79	-0.1533	 0.2574	 0.1041	-0.1378	 0.2553	 0.1176	-0.0702	 0.2113	 0.1410	58.9883	99.8757	
    80	-0.0936	 0.2660	 0.1723	-0.0978	 0.2799	 0.1822	-0.0083	 0.2289	 0.2207	58.9949	99.8747	
    81	-0.0638	 0.2702	 0.2065	-0.0786	 0.2796	 0.2011	 0.0026	 0.2251	 0.2277	58.9905	99.8746	
    82	-0.0927	 0.2806	 0.1879	-0.1037	 0.2885	 0.1849	-0.0140	 0.2253	 0.2113	59.0299	99.8749	
    83	-0.1071	 0.2858	 0.1787	-0.1096	 0.2970	 0.1875	-0.0249	 0.2291	 0.2043	59.0299	99.8767	
    84	-0.1071	 0.2858	 0.1787	-0.1162	 0.2929	 0.1768	-0.0249	 0.2291	 0.2043	59.0299	99.8749	
    85	-0.1283	 0.3009	 0.1726	-0.1288	 0.2973	 0.1687	-0.0574	 0.2406	 0.1833	58.9861	99.8755	
    86	-0.1360	 0.2961	 0.1602	-0.1413	 0.3017	 0.1605	-0.0682	 0.2445	 0.1762	58.9466	99.8759	
    87	-0.1504	 0.3013	 0.1509	-0.1538	 0.3062	 0.1524	-0.0797	 0.2372	 0.1575	58.9839	99.8771	
    88	-0.1581	 0.2966	 0.1385	-0.1664	 0.3106	 0.1443	-0.0899	 0.2521	 0.1622	58.9071	99.8763	
    89	-0.1726	 0.3018	 0.1292	-0.1914	 0.3195	 0.1281	-0.1123	 0.2487	 0.1365	58.9027	99.8769	
    90	-0.1495	 0.3160	 0.1665	-0.1589	 0.3273	 0.1685	-0.0510	 0.2553	 0.2044	59.0321	99.8748	
    91	-0.0898	 0.3246	 0.2347	-0.1005	 0.3390	 0.2386	 0.0002	 0.2768	 0.2770	58.9970	99.8746	
    92	-0.0821	 0.3293	 0.2472	-0.1005	 0.3390	 0.2386	-0.0107	 0.2806	 0.2700	58.9532	99.8741	
    93	-0.1110	 0.3397	 0.2287	-0.1131	 0.3434	 0.2305	-0.0228	 0.2623	 0.2395	59.0694	99.8771	
    94	-0.1255	 0.3448	 0.2194	-0.1256	 0.3479	 0.2224	-0.0330	 0.2772	 0.2442	59.0321	99.8759	
    95	-0.1187	 0.3349	 0.2162	-0.1256	 0.3479	 0.2224	-0.0547	 0.2849	 0.2302	58.9093	99.8772	
    96	-0.1399	 0.3500	 0.2101	-0.1448	 0.3482	 0.2035	-0.0655	 0.2887	 0.2232	58.9488	99.8751	
    97	-0.1688	 0.3604	 0.1916	-0.1632	 0.3611	 0.1980	-0.0662	 0.2777	 0.2115	59.0694	99.8771	
    98	-0.1620	 0.3505	 0.1884	-0.1699	 0.3570	 0.1873	-0.0987	 0.2892	 0.1904	58.9049	99.8771	
    99	-0.1765	 0.3556	 0.1792	-0.1824	 0.3615	 0.1792	-0.1045	 0.2855	 0.1810	58.9444	99.8775	
   100	-0.1909	 0.3608	 0.1699	-0.1957	 0.3533	 0.1576	-0.1204	 0.2968	 0.1764	58.9049	99.8746	
   101	-0.1688	 0.3604	 0.1916	-0.1691	 0.3697	 0.2007	-0.0700	 0.3072	 0.2373	58.9554	99.8751	
   102	-0.1236	 0.3742	 0.2506	-0.1048	 0.3728	 0.2681	-0.0144	 0.3102	 0.2958	59.0386	99.8762	
   103	-0.1159	 0.3789	 0.2630	-0.1048	 0.3728	 0.2681	-0.0151	 0.2992	 0.2841	59.0737	99.8764	
   104	-0.1303	 0.3841	 0.2538	-0.1299	 0.3817	 0.2519	-0.0585	 0.3145	 0.2560	58.9488	99.8769	
   105	-0.1380	 0.3793	 0.2413	-0.1299	 0.3817	 0.2519	-0.0368	 0.3068	 0.2700	59.0343	99.8768	
   106	-0.1447	 0.3892	 0.2445	-0.1424	 0.3861	 0.2438	-0.0585	 0.3145	 0.2560	58.9905	99.8764	
   107	-0.1592	 0.3944	 0.2352	-0.1675	 0.3950	 0.2276	-0.0801	 0.3221	 0.2420	58.9488	99.8758	
   108	-0.1813	 0.3949	 0.2135	-0.1800	 0.3994	 0.2195	-0.0808	 0.3111	 0.2303	59.0299	99.8774	
   109	-0.1958	 0.4001	 0.2043	-0.1742	 0.3909	 0.2168	-0.0916	 0.3149	 0.2233	59.0299	99.8778	
   110	-0.2102	 0.4052	 0.1950	-0.1992	 0.3997	 0.2006	-0.1242	 0.3264	 0.2022	58.9466	99.8777	
   111	-0.2179	 0.4005	 0.1826	-0.2059	 0.3956	 0.1898	-0.1299	 0.3228	 0.1928	58.9466	99.8777	
   112	-0.2102	 0.4052	 0.1950	-0.1926	 0.4038	 0.2113	-0.1120	 0.3447	 0.2327	58.9138	99.8766	
   113	-0.1573	 0.4237	 0.2664	-0.1401	 0.4240	 0.2841	-0.0398	 0.3475	 0.3076	59.0386	99.8769	
   114	-0.1207	 0.4181	 0.2974	-0.1334	 0.4281	 0.2948	-0.0182	 0.3398	 0.3216	59.0365	99.8757	
   115	-0.1429	 0.4186	 0.2757	-0.1401	 0.4240	 0.2841	-0.0615	 0.3551	 0.2936	58.9138	99.8773	
   116	-0.1573	 0.4237	 0.2664	-0.1526	 0.4284	 0.2759	-0.0615	 0.3551	 0.2936	58.9554	99.8769	
   117	-0.1640	 0.4337	 0.2696	-0.1585	 0.4370	 0.2786	-0.0724	 0.3589	 0.2866	58.9532	99.8777	
   118	-0.1573	 0.4237	 0.2664	-0.1710	 0.4414	 0.2705	-0.0947	 0.3555	 0.2608	58.8676	99.8792	
   119	-0.1862	 0.4341	 0.2479	-0.1902	 0.4417	 0.2516	-0.1056	 0.3594	 0.2538	58.9093	99.8780	
   120	-0.1939	 0.4294	 0.2355	-0.2027	 0.4462	 0.2435	-0.1164	 0.3632	 0.2468	58.8699	99.8783	
   121	-0.2006	 0.4393	 0.2387	-0.2153	 0.4506	 0.2354	-0.1222	 0.3596	 0.2374	58.9071	99.8777	
   122	-0.2295	 0.4496	 0.2201	-0.2153	 0.4506	 0.2354	-0.1489	 0.3747	 0.2258	58.8676	99.8795	
   123	-0.2295	 0.4496	 0.2201	-0.2211	 0.4591	 0.2381	-0.1266	 0.3781	 0.2515	58.9138	99.8781	
   124	-0.1698	 0.4582	 0.2884	-0.1569	 0.4622	 0.3055	-0.0653	 0.3847	 0.3194	58.9576	99.8778	
   125	-0.1400	 0.4625	 0.3225	-0.1252	 0.4575	 0.3324	-0.0429	 0.3881	 0.3452	58.9576	99.8771	
   126	-0.1544	 0.4677	 0.3133	-0.1628	 0.4708	 0.3081	-0.0761	 0.3885	 0.3124	58.9116	99.8771	
   127	-0.1689	 0.4729	 0.3040	-0.1569	 0.4622	 0.3055	-0.0761	 0.3885	 0.3124	58.9532	99.8770	
   128	-0.1621	 0.4630	 0.3008	-0.1753	 0.4752	 0.3000	-0.0761	 0.3885	 0.3124	58.9138	99.8770	
   129	-0.1833	 0.4781	 0.2947	-0.1878	 0.4796	 0.2919	-0.0978	 0.3962	 0.2984	58.9116	99.8771	
   130	-0.1978	 0.4832	 0.2855	-0.2004	 0.4841	 0.2838	-0.1093	 0.3890	 0.2796	58.9488	99.8783	
   131	-0.2055	 0.4785	 0.2730	-0.2004	 0.4841	 0.2838	-0.1202	 0.3928	 0.2726	58.9093	99.8797	
   132	-0.2199	 0.4837	 0.2638	-0.2196	 0.4844	 0.2649	-0.1310	 0.3966	 0.2656	58.9093	99.8780	
   133	-0.2199	 0.4837	 0.2638	-0.2380	 0.4973	 0.2595	-0.1418	 0.4004	 0.2586	58.8676	99.8781	
   134	-0.2122	 0.4884	 0.2762	-0.2121	 0.5011	 0.2891	-0.1297	 0.4187	 0.2891	58.8326	99.8789	
   135	-0.1670	 0.5022	 0.3352	-0.1478	 0.5043	 0.3565	-0.0467	 0.4177	 0.3710	59.0014	99.8783	
   136	-0.1439	 0.5164	 0.3725	-0.1345	 0.5125	 0.3780	-0.0460	 0.4287	 0.3827	58.9576	99.8778	
   137	-0.1516	 0.5117	 0.3601	-0.1537	 0.5128	 0.3592	-0.0575	 0.4215	 0.3640	58.9554	99.8776	
   138	-0.1660	 0.5168	 0.3508	-0.1537	 0.5128	 0.3592	-0.0684	 0.4253	 0.3570	58.9554	99.8786	
   139	-0.1660	 0.5168	 0.3508	-0.1596	 0.5213	 0.3618	-0.0684	 0.4253	 0.3570	58.9554	99.8793	
   140	-0.1872	 0.5319	 0.3447	-0.1663	 0.5172	 0.3511	-0.0792	 0.4292	 0.3500	58.9949	99.8783	
   141	-0.2017	 0.5371	 0.3354	-0.1913	 0.5261	 0.3349	-0.1016	 0.4258	 0.3242	58.9905	99.8789	
   142	-0.2229	 0.5522	 0.3293	-0.2039	 0.5305	 0.3267	-0.1226	 0.4445	 0.3219	58.9510	99.8778	
   143	-0.2171	 0.5276	 0.3106	-0.2039	 0.5305	 0.3267	-0.1232	 0.4334	 0.3102	58.9116	99.8806	
   144	-0.2383	 0.5427	 0.3045	-0.2289	 0.5394	 0.3105	-0.1398	 0.4336	 0.2938	58.9488	99.8801	
   145	-0.2238	 0.5376	 0.3137	-0.2223	 0.5435	 0.3213	-0.1226	 0.4445	 0.3219	58.9138	99.8788	
   146	-0.1641	 0.5462	 0.3820	-0.1572	 0.5592	 0.4021	-0.0389	 0.4545	 0.4156	59.0036	99.8789	
   147	-0.1411	 0.5604	 0.4193	-0.1130	 0.5501	 0.4372	-0.0274	 0.4617	 0.4343	59.0014	99.8793	
   148	-0.1555	 0.5655	 0.4100	-0.1506	 0.5633	 0.4129	-0.0497	 0.4583	 0.4086	58.9970	99.8789	
   149	-0.1555	 0.5655	 0.4100	-0.1631	 0.5678	 0.4048	-0.0497	 0.4583	 0.4086	58.9970	99.8778	
   150	-0.1699	 0.5707	 0.4008	-0.1506	 0.5633	 0.4129	-0.0497	 0.4583	 0.4086	59.0386	99.8794	
   151	-0.1699	 0.5707	 0.4008	-0.1631	 0.5678	 0.4048	-0.0714	 0.4660	 0.3945	58.9554	99.8793	
   152	-0.1844	 0.5759	 0.3915	-0.1631	 0.5678	 0.4048	-0.0823	 0.4698	 0.3875	58.9554	99.8804	
   153	-0.1988	 0.5811	 0.3822	-0.1882	 0.5766	 0.3886	-0.0931	 0.4736	 0.3805	58.9554	99.8793	
   154	-0.1988	 0.5811	 0.3822	-0.2007	 0.5811	 0.3805	-0.0938	 0.4626	 0.3688	58.9927	99.8794	
   155	-0.2133	 0.5863	 0.3730	-0.2007	 0.5811	 0.3805	-0.1365	 0.4890	 0.3525	58.8304	99.8808	
   156	-0.2277	 0.5914	 0.3637	-0.2258	 0.5899	 0.3642	-0.1148	 0.4813	 0.3665	58.9554	99.8783	
   157	-0.1902	 0.6005	 0.4103	-0.1615	 0.5930	 0.4316	-0.0643	 0.4917	 0.4274	59.0014	99.8800	
   158	-0.1450	 0.6142	 0.4693	-0.1223	 0.6050	 0.4828	-0.0196	 0.4985	 0.4789	59.0430	99.8795	
   159	-0.1382	 0.6043	 0.4661	-0.1223	 0.6050	 0.4828	-0.0305	 0.5024	 0.4719	58.9620	99.8804	
   160	-0.1450	 0.6142	 0.4693	-0.1474	 0.6139	 0.4666	-0.0522	 0.5100	 0.4579	58.9182	99.8789	
   161	-0.1450	 0.6142	 0.4693	-0.1474	 0.6139	 0.4666	-0.0522	 0.5100	 0.4579	58.9182	99.8789	
   162	-0.1517	 0.6242	 0.4724	-0.1591	 0.6309	 0.4719	-0.0630	 0.5139	 0.4509	58.9160	99.8804	
   163	-0.1662	 0.6293	 0.4632	-0.1717	 0.6354	 0.4638	-0.0630	 0.5139	 0.4509	58.9576	99.8799	
   164	-0.1806	 0.6345	 0.4539	-0.1599	 0.6183	 0.4585	-0.0745	 0.5066	 0.4321	58.9949	99.8807	
   165	-0.1883	 0.6298	 0.4415	-0.1717	 0.6354	 0.4638	-0.0854	 0.5105	 0.4251	58.9554	99.8835	
   166	-0.2027	 0.6350	 0.4322	-0.1850	 0.6272	 0.4423	-0.1070	 0.5181	 0.4111	58.9138	99.8816	
   167	-0.2172	 0.6401	 0.4230	-0.2101	 0.6360	 0.4261	-0.1179	 0.5219	 0.4041	58.9138	99.8805	
   168	-0.1873	 0.6444	 0.4571	-0.1709	 0.6480	 0.4772	-0.0674	 0.5324	 0.4650	58.9620	99.8811	
   169	-0.1344	 0.6629	 0.5285	-0.1125	 0.6597	 0.5473	-0.0061	 0.5390	 0.5329	59.0452	99.8812	
   170	-0.1123	 0.6625	 0.5502	-0.1000	 0.6552	 0.5554	-0.0061	 0.5390	 0.5329	59.0014	99.8807	
   171	-0.1412	 0.6729	 0.5317	-0.1250	 0.6641	 0.5392	-0.0119	 0.5353	 0.5235	59.0824	99.8806	
   172	-0.1412	 0.6729	 0.5317	-0.1184	 0.6682	 0.5499	-0.0336	 0.5430	 0.5095	58.9992	99.8833	
   173	-0.1412	 0.6729	 0.5317	-0.1309	 0.6726	 0.5418	-0.0336	 0.5430	 0.5095	58.9992	99.8822	
   174	-0.1624	 0.6880	 0.5256	-0.1434	 0.6771	 0.5337	-0.0495	 0.5543	 0.5048	58.9992	99.8815	
   175	-0.1556	 0.6780	 0.5224	-0.1501	 0.6730	 0.5230	-0.0552	 0.5507	 0.4954	58.9576	99.8810	
   176	-0.1845	 0.6884	 0.5039	-0.1626	 0.6774	 0.5148	-0.0661	 0.5545	 0.4884	58.9992	99.8815	
   177	-0.1912	 0.6983	 0.5071	-0.1752	 0.6818	 0.5067	-0.0878	 0.5622	 0.4744	58.9554	99.8811	
   178	-0.1989	 0.6936	 0.4946	-0.1877	 0.6862	 0.4986	-0.0884	 0.5511	 0.4627	58.9949	99.8821	
   179	-0.2066	 0.6888	 0.4822	-0.2128	 0.6951	 0.4824	-0.0993	 0.5549	 0.4557	58.9554	99.8814	
   180	-0.1836	 0.7031	 0.5195	-0.1360	 0.6938	 0.5579	-0.0265	 0.5688	 0.5423	59.0888	99.8826	
   181	-0.1094	 0.7065	 0.5970	-0.0968	 0.7058	 0.6091	 0.0125	 0.5719	 0.5844	59.0452	99.8819	
   182	-0.1094	 0.7065	 0.5970	-0.0968	 0.7058	 0.6091	 0.0125	 0.5719	 0.5844	59.0452	99.8819	
   183	-0.1094	 0.7065	 0.5970	-0.1219	 0.7147	 0.5929	-0.0200	 0.5834	 0.5634	58.9204	99.8812	
   184	-0.1239	 0.7116	 0.5878	-0.1278	 0.7232	 0.5955	-0.0200	 0.5834	 0.5634	58.9620	99.8825	
   185	-0.1306	 0.7216	 0.5909	-0.1278	 0.7232	 0.5955	-0.0200	 0.5834	 0.5634	59.0014	99.8821	
   186	-0.1451	 0.7267	 0.5817	-0.1344	 0.7191	 0.5848	-0.0417	 0.5911	 0.5494	58.9598	99.8819	
   187	-0.1595	 0.7319	 0.5724	-0.1344	 0.7191	 0.5848	-0.0475	 0.5875	 0.5400	58.9992	99.8833	
   188	-0.1740	 0.7371	 0.5631	-0.1654	 0.7365	 0.5712	-0.0692	 0.5951	 0.5260	58.9576	99.8834	
   189	-0.1817	 0.7324	 0.5507	-0.1595	 0.7279	 0.5686	-0.0800	 0.5990	 0.5190	58.9182	99.8841	
   190	-0.1817	 0.7324	 0.5507	-0.1720	 0.7324	 0.5604	-0.0908	 0.6028	 0.5120	58.8765	99.8835	
   191	-0.1961	 0.7375	 0.5414	-0.1853	 0.7242	 0.5389	-0.0915	 0.5917	 0.5002	58.9554	99.8818	
   192	-0.1875	 0.7569	 0.5695	-0.1395	 0.7403	 0.6009	-0.0512	 0.6171	 0.5658	59.0058	99.8836	
   193	-0.1143	 0.7457	 0.6314	-0.0878	 0.7478	 0.6601	 0.0145	 0.6051	 0.6196	59.0473	99.8845	
   194	-0.1201	 0.7703	 0.6502	-0.1003	 0.7522	 0.6520	-0.0014	 0.6164	 0.6150	59.0430	99.8820	
   195	-0.1143	 0.7457	 0.6314	-0.1128	 0.7567	 0.6439	-0.0180	 0.6166	 0.5986	58.9226	99.8839	
   196	-0.1422	 0.7707	 0.6285	-0.1187	 0.7652	 0.6466	-0.0072	 0.6128	 0.6056	59.0845	99.8839	
   197	-0.1345	 0.7754	 0.6409	-0.1187	 0.7652	 0.6466	-0.0180	 0.6166	 0.5986	59.0408	99.8835	
   198	-0.1490	 0.7806	 0.6316	-0.1187	 0.7652	 0.6466	-0.0340	 0.6279	 0.5940	59.0014	99.8842	
   199	-0.1567	 0.7759	 0.6192	-0.1379	 0.7655	 0.6277	-0.0506	 0.6281	 0.5776	58.9598	99.8836	
   200	-0.1711	 0.7811	 0.6099	-0.1505	 0.7700	 0.6196	-0.0506	 0.6281	 0.5776	59.0014	99.8831	
   201	-0.1711	 0.7811	 0.6099	-0.1630	 0.7744	 0.6115	-0.0722	 0.6358	 0.5636	58.9182	99.8831	
   202	-0.1856	 0.7862	 0.6007	-0.1630	 0.7744	 0.6115	-0.0729	 0.6247	 0.5518	58.9970	99.8847	
   203	-0.1856	 0.7862	 0.6007	-0.1689	 0.7829	 0.6142	-0.0665	 0.6394	 0.5729	58.9620	99.8835	
   204	-0.1403	 0.8000	 0.6597	-0.1038	 0.7987	 0.6950	 0.0114	 0.6458	 0.6572	59.0910	99.8849	
   205	-0.0961	 0.7991	 0.7031	-0.0654	 0.7980	 0.7327	 0.0229	 0.6530	 0.6760	59.0080	99.8859	
   206	-0.1096	 0.8190	 0.7094	-0.0846	 0.7984	 0.7138	 0.0121	 0.6568	 0.6689	59.0452	99.8829	
   207	-0.1173	 0.8142	 0.6970	-0.0905	 0.8069	 0.7165	 0.0013	 0.6607	 0.6619	59.0058	99.8850	
   208	-0.1173	 0.8142	 0.6970	-0.0972	 0.8028	 0.7057	 0.0013	 0.6607	 0.6619	59.0058	99.8832	
   209	-0.1317	 0.8194	 0.6877	-0.1030	 0.8113	 0.7084	-0.0096	 0.6645	 0.6549	59.0058	99.8850	
   210	-0.1317	 0.8194	 0.6877	-0.1097	 0.8072	 0.6976	-0.0211	 0.6573	 0.6362	59.0014	99.8848	
   211	-0.1461	 0.8246	 0.6784	-0.1222	 0.8116	 0.6895	-0.0319	 0.6611	 0.6292	59.0014	99.8848	
   212	-0.1538	 0.8198	 0.6660	-0.1222	 0.8116	 0.6895	-0.0428	 0.6649	 0.6222	58.9620	99.8862	
   213	-0.1683	 0.8250	 0.6568	-0.1473	 0.8205	 0.6733	-0.0543	 0.6577	 0.6034	58.9992	99.8863	
   214	-0.1827	 0.8302	 0.6475	-0.1598	 0.8249	 0.6652	-0.0760	 0.6654	 0.5894	58.9576	99.8868	
   215	-0.1827	 0.8302	 0.6475	-0.1598	 0.8249	 0.6652	-0.0428	 0.6649	 0.6222	59.0452	99.8843	
   216	-0.1298	 0.8487	 0.7189	-0.0948	 0.8407	 0.7460	 0.0192	 0.6826	 0.7018	59.0910	99.8849	
   217	-0.0788	 0.8379	 0.7591	-0.0689	 0.8445	 0.7757	 0.0307	 0.6898	 0.7205	58.9686	99.8852	
   218	-0.1000	 0.8530	 0.7530	-0.0689	 0.8445	 0.7757	 0.0300	 0.6788	 0.7088	59.0867	99.8865	
   219	-0.1144	 0.8582	 0.7438	-0.0756	 0.8404	 0.7649	 0.0199	 0.6937	 0.7135	59.0495	99.8847	
   220	-0.1144	 0.8582	 0.7438	-0.0940	 0.8533	 0.7594	 0.0300	 0.6788	 0.7088	59.1282	99.8850	
   221	-0.1212	 0.8681	 0.7469	-0.0940	 0.8533	 0.7594	 0.0192	 0.6826	 0.7018	59.1261	99.8851	
   222	-0.1356	 0.8733	 0.7377	-0.1065	 0.8578	 0.7513	-0.0133	 0.6941	 0.6808	59.0430	99.8861	
   223	-0.1500	 0.8785	 0.7284	-0.1065	 0.8578	 0.7513	-0.0242	 0.6979	 0.6737	59.0430	99.8871	
   224	-0.1577	 0.8737	 0.7160	-0.1257	 0.8581	 0.7325	-0.0248	 0.6869	 0.6620	59.0824	99.8864	
   225	-0.1654	 0.8690	 0.7036	-0.1383	 0.8625	 0.7244	-0.0465	 0.6945	 0.6480	59.0014	99.8872	
   226	-0.1866	 0.8841	 0.6975	-0.1508	 0.8669	 0.7163	-0.0574	 0.6983	 0.6410	59.0408	99.8869	
   227	-0.1654	 0.8690	 0.7036	-0.1316	 0.8666	 0.7351	-0.0344	 0.7128	 0.6785	58.9686	99.8862	
   228	-0.1125	 0.8875	 0.7750	-0.0857	 0.8827	 0.7971	 0.0378	 0.7156	 0.7534	59.0932	99.8848	
   229	-0.0971	 0.8970	 0.7998	-0.0666	 0.8824	 0.8159	 0.0378	 0.7156	 0.7534	59.0888	99.8857	
   230	-0.1048	 0.8922	 0.7874	-0.0791	 0.8868	 0.8078	 0.0263	 0.7083	 0.7346	59.0867	99.8872	
   231	-0.1116	 0.9021	 0.7906	-0.0916	 0.8912	 0.7997	 0.0263	 0.7083	 0.7346	59.1261	99.8858	
   232	-0.1260	 0.9073	 0.7813	-0.0975	 0.8998	 0.8024	 0.0161	 0.7232	 0.7394	59.0888	99.8864	
   233	-0.1337	 0.9026	 0.7689	-0.0916	 0.8912	 0.7997	 0.0154	 0.7122	 0.7276	59.1282	99.8877	
   234	-0.1337	 0.9026	 0.7689	-0.0983	 0.8871	 0.7890	-0.0279	 0.7275	 0.6996	58.9620	99.8879	
   235	-0.1481	 0.9078	 0.7596	-0.1292	 0.9045	 0.7754	-0.0178	 0.7126	 0.6948	59.0824	99.8877	
   236	-0.1626	 0.9129	 0.7504	-0.1359	 0.9004	 0.7646	-0.0286	 0.7164	 0.6878	59.0824	99.8871	
   237	-0.1703	 0.9082	 0.7379	-0.1367	 0.8878	 0.7512	-0.0394	 0.7203	 0.6808	59.0430	99.8861	
   238	-0.1847	 0.9134	 0.7287	-0.1492	 0.8922	 0.7431	-0.0720	 0.7318	 0.6598	58.9598	99.8870	
   239	-0.1693	 0.9229	 0.7535	-0.1226	 0.9086	 0.7862	-0.0056	 0.7309	 0.7253	59.1303	99.8869	
   240	-0.1097	 0.9315	 0.8218	-0.0650	 0.9077	 0.8428	 0.0500	 0.7339	 0.7839	59.1718	99.8858	
   241	-0.0875	 0.9310	 0.8435	-0.0575	 0.9244	 0.8670	 0.0666	 0.7337	 0.8002	59.1718	99.8871	
   242	-0.1020	 0.9362	 0.8342	-0.0575	 0.9244	 0.8670	 0.0449	 0.7413	 0.7862	59.1303	99.8886	
   243	-0.1020	 0.9362	 0.8342	-0.0642	 0.9203	 0.8562	 0.0391	 0.7377	 0.7768	59.1282	99.8877	
   244	-0.1020	 0.9362	 0.8342	-0.0767	 0.9247	 0.8481	 0.0341	 0.7452	 0.7792	59.0888	99.8864	
   245	-0.1164	 0.9414	 0.8250	-0.0767	 0.9247	 0.8481	 0.0283	 0.7415	 0.7698	59.1282	99.8877	
   246	-0.1164	 0.9414	 0.8250	-0.0767	 0.9247	 0.8481	 0.0175	 0.7454	 0.7628	59.0867	99.8882	
   247	-0.1241	 0.9366	 0.8125	-0.0893	 0.9292	 0.8400	 0.0175	 0.7454	 0.7628	59.0888	99.8881	
   248	-0.1385	 0.9418	 0.8033	-0.1143	 0.9380	 0.8238	-0.0151	 0.7569	 0.7418	59.0058	99.8880	
   249	-0.1530	 0.9470	 0.7940	-0.1151	 0.9254	 0.8104	-0.0259	 0.7607	 0.7348	59.0058	99.8867	
   250	-0.1674	 0.9522	 0.7847	-0.1269	 0.9424	 0.8157	-0.0151	 0.7569	 0.7418	59.0888	99.8881	
   251	-0.1155	 0.9560	 0.8406	-0.0626	 0.9456	 0.8831	 0.0462	 0.7635	 0.8097	59.1346	99.8887	
   252	-0.0635	 0.9599	 0.8964	-0.0175	 0.9490	 0.9316	 0.0909	 0.7703	 0.8612	59.1368	99.8879	
   253	-0.0702	 0.9698	 0.8996	-0.0175	 0.9490	 0.9316	 0.0801	 0.7741	 0.8542	59.1346	99.8880	
   254	-0.0702	 0.9698	 0.8996	-0.0301	 0.9535	 0.9235	 0.0584	 0.7818	 0.8402	59.0517	99.8880	
   255	-0.0702	 0.9698	 0.8996	-0.0360	 0.9620	 0.9261	 0.0584	 0.7818	 0.8402	59.0517	99.8886	
   256	-0.0847	 0.9750	 0.8903	-0.0426	 0.9579	 0.9154	 0.0476	 0.7856	 0.8332	59.0517	99.8880	
   257	-0.0991	 0.9802	 0.8810	-0.0551	 0.9623	 0.9073	 0.0367	 0.7894	 0.8261	59.0517	99.8880	
   258	-0.1068	 0.9754	 0.8686	-0.0559	 0.9497	 0.8938	 0.0361	 0.7783	 0.8144	59.0910	99.8876	
   259	-0.1145	 0.9707	 0.8562	-0.0751	 0.9500	 0.8750	 0.0137	 0.7749	 0.7886	59.0473	99.8879	
   260	-0.1539	 0.9323	 0.7784	-0.0975	 0.8998	 0.8024	 0.0039	 0.7049	 0.7089	59.2421	99.8889	
   261	-0.2414	 0.8363	 0.5948	-0.1755	 0.7788	 0.6034	-0.1132	 0.5994	 0.4862	59.2230	99.8890	
   262	-0.3798	 0.6385	 0.2587	-0.2869	 0.6373	 0.3506	-0.2310	 0.4828	 0.2518	59.0672	99.8932	
   263	-0.4356	 0.5760	 0.1404	-0.3135	 0.6209	 0.3075	-0.2317	 0.4717	 0.2401	59.0452	99.8962	
   264	-0.4039	 0.6096	 0.2058	-0.3311	 0.6465	 0.3155	-0.2750	 0.4871	 0.2120	58.9071	99.8954	
   265	-0.4059	 0.6928	 0.2869	-0.3730	 0.6936	 0.3207	-0.3401	 0.5100	 0.1700	58.8826	99.8940	
   266	-0.4617	 0.7428	 0.2811	-0.4423	 0.7116	 0.2694	-0.4742	 0.4896	 0.0154	58.8466	99.8991	
   267	-0.6513	 0.6684	 0.0171	-0.6524	 0.6308	-0.0214	-0.7228	 0.4079	-0.3149	58.6524	99.9002	
   268	-0.9900	 0.5724	-0.4175	-1.0285	 0.5571	-0.4713	-1.1245	 0.3577	-0.7668	58.1725	99.8993	
   269	-1.3489	 0.5062	-0.8427	-1.3889	 0.5294	-0.8594	-1.4724	 0.3733	-1.0991	57.7197	99.8974	
   270	-1.5000	 0.4555	-1.0445	-1.5195	 0.3883	-1.1311	-1.5675	 0.1752	-1.3923	58.3367	99.8941	
   271	-1.9423	 0.0143	-1.9280	-2.1697	-0.0730	-2.2426	-2.2345	-0.2333	-2.4678	57.6856	99.8737	
   272	-2.0328	 0.0993	-1.9336	-2.3374	-0.0913	-2.4285	-2.6081	-0.2765	-2.8846	57.2251	99.8788	
   273	-2.1610	 0.2877	-1.8733	-2.3466	 0.1703	-2.1762	-2.5314	-0.0154	-2.5468	57.2735	99.8868	
   274	-2.1255	 0.3799	-1.7456	-2.2169	 0.2989	-1.9179	-2.4512	 0.1201	-2.3311	57.1847	99.8993	
   275	-1.8262	 0.4375	-1.3887	-1.8349	 0.3641	-1.4707	-2.0322	 0.1812	-1.8510	57.6636	99.9027	
   276	-1.4005	 0.1649	-1.2357	-1.3167	 0.1487	-1.1679	-1.5344	-0.1021	-1.6365	58.4337	99.9195	
   277	-0.9941	-0.1758	-1.1699	-0.7844	-0.0458	-0.8301	-1.0522	-0.2781	-1.3303	58.6219	99.9371	
   278	-0.7176	-0.3574	-1.0751	-0.5161	-0.1600	-0.6759	-0.8405	-0.3472	-1.1877	58.3954	99.9406	
   279	-0.7148	-0.3135	-1.0283	-0.4674	 0.0037	-0.4637	-0.5801	-0.1624	-0.7425	58.5401	99.9358	
   280	-0.3203	-0.1550	-0.4754	-0.2017	 0.1552	-0.0464	-0.3932	-0.0023	-0.3956	58.1201	99.9331	
   281	-0.2106	-0.1719	-0.3825	-0.1265	 0.1286	 0.0022	-0.3366	-0.0732	-0.4098	58.2592	99.9350	
   282	-0.2972	-0.2533	-0.5505	-0.2194	-0.0258	-0.2452	-0.4527	-0.2526	-0.7053	58.5395	99.9335	
   283	-0.4337	-0.4218	-0.8554	-0.4056	-0.2377	-0.6433	-0.6168	-0.4941	-1.1109	58.7804	99.9290	
   284	-0.0035	-0.3961	-0.3996	-0.1909	-0.0811	-0.2719	-0.2713	-0.4579	-0.7292	58.7896	99.9258	
   285	-0.0920	-0.3944	-0.4864	-0.1776	-0.2795	-0.4571	-0.4914	-0.6175	-1.1089	58.9587	99.9312	
   286	 0.1562	-0.3260	-0.1697	-0.0910	-0.2262	-0.3171	-0.4633	-0.6105	-1.0737	58.7016	99.9288	
   287	 0.1648	-0.1941	-0.0293	-0.0381	-0.0964	-0.1344	-0.4061	-0.4894	-0.8955	58.7613	99.9315	
   288	 0.2677	-0.0885	 0.1791	 0.0466	 0.0287	 0.0754	-0.2890	-0.3839	-0.6728	58.7777	99.9311	
   289	 0.4081	 0.0260	 0.4341	 0.1740	 0.1193	 0.2934	-0.2294	-0.3145	-0.5439	58.7206	99.9348	
   290	 0.4206	-0.0084	 0.4122	 0.1266	 0.0780	 0.2046	-0.3011	-0.4022	-0.7033	58.7259	99.9360	
   291	 0.2475	-0.1713	 0.0762	-0.0322	-0.1049	-0.1370	-0.4785	-0.5881	-1.0667	58.8232	99.9370	
   292	 0.0003	-0.3375	-0.3372	-0.2352	-0.2786	-0.5137	-0.6231	-0.6896	-1.3127	58.8396	99.9299	
   293	 0.0157	-0.3280	-0.3123	-0.1694	-0.2502	-0.4195	-0.4985	-0.6433	-1.1417	59.0015	99.9287	
   294	 0.1658	-0.2919	-0.1261	-0.0393	-0.2186	-0.2579	-0.3975	-0.6224	-1.0199	58.9970	99.9300	
   295	 0.1996	-0.3415	-0.1419	-0.0366	-0.2777	-0.3142	-0.4073	-0.6924	-1.0997	59.0220	99.9293	
   296	 0.2082	-0.3221	-0.1139	 0.0159	-0.2575	-0.2415	-0.3325	-0.6454	-0.9779	59.0876	99.9282	
   297	 0.2987	-0.2946	 0.0041	 0.0884	-0.2250	-0.1365	-0.2417	-0.6097	-0.8514	59.0966	99.9261	
   298	 0.5064	-0.1667	 0.3398	 0.2338	-0.0504	 0.1836	-0.1087	-0.5154	-0.6240	59.0491	99.9324	
   299	 0.4112	-0.2675	 0.1438	 0.1441	-0.1543	-0.0101	-0.2353	-0.5950	-0.8303	58.9107	99.9331	
   300	 0.4362	-0.2240	 0.2123	 0.1989	-0.0962	 0.1029	-0.2116	-0.5694	-0.7810	58.9516	99.9396	
   301	 0.4689	-0.1757	 0.2932	 0.2229	-0.0207	 0.2023	-0.1916	-0.5143	-0.7060	58.8721	99.9423	
   302	 0.4852	-0.1516	 0.3337	 0.2487	-0.0169	 0.2319	-0.1961	-0.4958	-0.6919	58.8266	99.9425	
   303	 0.4391	-0.1800	 0.2591	 0.1904	-0.0285	 0.1619	-0.2204	-0.5324	-0.7528	58.9084	99.9424	
   304	 0.4285	-0.2287	 0.1998	 0.2248	-0.0924	 0.1325	-0.1943	-0.5586	-0.7529	58.9607	99.9418	
   305	 0.3718	-0.3058	 0.0660	 0.1891	-0.1508	 0.0384	-0.1970	-0.6028	-0.7998	59.0151	99.9409	
   306	 0.3237	-0.3635	-0.0398	 0.1593	-0.2178	-0.0584	-0.2227	-0.6616	-0.8843	59.0966	99.9405	
   307	 0.2391	-0.4157	-0.1766	 0.0919	-0.2714	-0.1795	-0.3013	-0.6790	-0.9803	58.9744	99.9395	
   308	 0.3217	-0.2804	 0.0414	 0.1523	-0.1249	 0.0275	-0.1892	-0.5660	-0.7553	59.0715	99.9382	
   309	 0.4227	-0.2041	 0.2186	 0.1931	-0.0876	 0.1055	-0.1726	-0.5662	-0.7389	59.1262	99.9370	
   310	 0.4150	-0.2089	 0.2062	 0.1739	-0.0873	 0.0867	-0.1937	-0.5475	-0.7412	59.0038	99.9356	
   311	 0.4083	-0.1989	 0.2093	 0.1931	-0.0876	 0.1055	-0.1726	-0.5662	-0.7389	59.1692	99.9375	
   312	 0.4015	-0.1890	 0.2125	 0.1872	-0.0791	 0.1082	-0.1828	-0.5514	-0.7342	59.1284	99.9373	
   313	 0.4160	-0.1942	 0.2218	 0.1696	-0.0535	 0.1162	-0.1655	-0.5405	-0.7060	59.0921	99.9363	
   314	 0.4872	-0.2348	 0.2525	 0.2557	-0.1098	 0.1461	-0.0744	-0.5897	-0.6640	59.2617	99.9353	
   315	 0.4960	-0.3279	 0.1681	 0.2819	-0.2030	 0.0791	-0.0401	-0.6639	-0.7040	59.3497	99.9343	
   316	 0.4239	-0.4145	 0.0094	 0.2580	-0.2785	-0.0204	-0.0601	-0.7190	-0.7791	59.4010	99.9357	
   317	 0.3912	-0.4627	-0.0715	 0.2623	-0.3123	-0.0499	-0.0441	-0.7303	-0.7744	59.4158	99.9362	
   318	 0.3903	-0.4774	-0.0871	 0.2874	-0.3211	-0.0337	-0.0116	-0.7418	-0.7534	59.5053	99.9375	
   319	 0.3912	-0.4627	-0.0715	 0.3081	-0.2962	 0.0120	 0.0287	-0.7165	-0.6878	59.5581	99.9379	
   320	 0.4364	-0.4489	-0.0125	 0.3356	-0.2671	 0.0685	 0.0510	-0.7131	-0.6620	59.5540	99.9399	
   321	 0.4432	-0.4589	-0.0157	 0.3473	-0.2842	 0.0632	 0.0619	-0.7169	-0.6550	59.5561	99.9389	
   322	 0.4432	-0.4589	-0.0157	 0.3481	-0.2716	 0.0766	 0.0575	-0.6984	-0.6409	59.4773	99.9396	
   323	 0.4586	-0.4494	 0.0092	 0.3806	-0.2637	 0.1170	 0.1181	-0.7029	-0.5848	59.6491	99.9395	
   324	 0.5625	-0.4417	 0.1208	 0.4907	-0.2445	 0.2464	 0.2356	-0.6822	-0.4466	59.7015	99.9398	
   325	 0.6472	-0.3896	 0.2576	 0.5765	-0.2037	 0.3729	 0.3091	-0.6574	-0.3482	59.7821	99.9410	
   326	 0.7145	-0.3762	 0.3383	 0.6349	-0.1921	 0.4429	 0.3487	-0.6431	-0.2943	59.7398	99.9414	
   327	 0.7444	-0.3720	 0.3724	 0.6541	-0.1924	 0.4618	 0.3813	-0.6546	-0.2733	59.8204	99.9406	
   328	 0.7030	-0.4396	 0.2634	 0.6318	-0.2426	 0.3892	 0.3857	-0.6731	-0.2874	59.7939	99.9388	
   329	 0.7030	-0.4396	 0.2634	 0.6776	-0.2265	 0.4512	 0.4572	-0.6814	-0.2242	60.0101	99.9420	
   330	 0.6155	-0.5357	 0.0799	 0.5604	-0.3595	 0.2010	 0.3133	-0.7718	-0.4586	59.8685	99.9372	
   331	 0.6319	-0.5115	 0.1203	 0.6211	-0.3099	 0.3113	 0.4240	-0.6810	-0.2570	59.8634	99.9351	
   332	 0.9656	-0.2639	 0.7017	 0.9974	-0.0295	 0.9680	 0.7921	-0.5455	 0.2466	60.3612	99.9486	
   333	 1.1755	-0.3317	 0.8438	 1.1329	-0.1162	 1.0168	 0.8954	-0.5763	 0.3191	60.1526	99.9425	
   334	 1.3102	-0.3050	 1.0052	 1.3022	-0.0726	 1.2296	 1.0462	-0.5561	 0.4901	60.2832	99.9474	
   335	 1.4228	-0.2779	 1.1449	 1.3938	-0.0404	 1.3535	 1.0922	-0.5272	 0.5650	60.1563	99.9494	
   336	 1.5112	-0.1672	 1.3441	 1.4719	 0.0805	 1.5525	 1.1525	-0.4467	 0.7057	60.1545	99.9527	
   337	 1.5853	-0.1638	 1.4216	 1.4687	 0.0300	 1.4988	 1.0922	-0.5272	 0.5650	60.1557	99.9515	
   338	 1.3776	-0.2917	 1.0859	 1.3131	-0.1023	 1.2109	 0.9930	-0.6108	 0.3822	60.2507	99.9477	
   339	 1.2997	-0.3537	 0.9460	 1.2731	-0.1270	 1.1463	 1.0147	-0.6185	 0.3963	60.3142	99.9469	
   340	 1.2698	-0.3580	 0.9118	 1.2908	-0.1526	 1.1383	 1.0428	-0.6114	 0.4314	60.4064	99.9454	
   341	 1.2920	-0.3584	 0.9335	 1.3233	-0.1447	 1.1787	 1.1194	-0.6272	 0.4922	60.6158	99.9453	
   342	 1.4027	-0.3607	 1.0420	 1.4318	-0.1507	 1.2812	 1.2132	-0.6321	 0.5811	60.6572	99.9457	
   343	 1.5268	-0.3827	 1.1442	 1.5395	-0.1694	 1.3702	 1.3287	-0.6446	 0.6841	60.7019	99.9443	
   344	 1.6231	-0.3797	 1.2434	 1.6296	-0.1625	 1.4672	 1.4073	-0.6272	 0.7801	60.6655	99.9441	
   345	 1.6837	-0.3565	 1.3272	 1.6763	-0.1338	 1.5426	 1.4686	-0.6206	 0.8480	60.7466	99.9443	
   346	 1.7366	-0.3380	 1.3986	 1.7213	-0.1303	 1.5911	 1.5076	-0.6174	 0.8902	60.7846	99.9435	
   347	 1.7655	-0.3483	 1.4172	 1.7464	-0.1392	 1.6073	 1.5401	-0.6289	 0.9112	60.8260	99.9431	
   348	 1.7627	-0.3923	 1.3704	 1.7499	-0.1856	 1.5644	 1.5151	-0.6766	 0.8385	60.8195	99.9450	
   349	 1.7165	-0.4207	 1.2958	 1.7158	-0.2188	 1.4971	 1.4985	-0.6764	 0.8221	60.7863	99.9422	
   350	 1.7550	-0.3970	 1.3579	 1.7307	-0.1853	 1.5455	 1.5266	-0.6693	 0.8572	60.8244	99.9425	
   351	 1.8156	-0.3738	 1.4418	 1.8157	-0.1572	 1.6586	 1.6231	-0.6300	 0.9931	60.8768	99.9426	
   352	 1.8416	-0.4281	 1.4135	 1.8517	-0.1958	 1.6561	 1.6875	-0.6640	 1.0235	60.9654	99.9419	
   353	 1.8311	-0.4768	 1.3543	 1.8803	-0.2511	 1.6293	 1.6926	-0.6715	 1.0211	60.8927	99.9417	
   354	 1.7675	-0.4315	 1.3360	 1.8800	-0.1541	 1.7260	 1.7491	-0.5615	 1.1876	60.8833	99.9434	
   355	 1.8809	-0.2773	 1.6037	 2.0297	-0.0132	 2.0166	 1.8906	-0.4193	 1.4712	60.9365	99.9447	
   356	 2.1407	-0.1455	 1.9952	 2.2178	 0.1270	 2.3449	 2.0497	-0.3513	 1.6985	60.9648	99.9478	
   357	 2.2426	-0.0546	 2.1880	 2.3276	 0.2432	 2.5708	 2.0916	-0.2078	 1.8838	60.6152	99.9514	
   358	 2.3763	 0.0699	 2.4461	 2.4640	 0.3758	 2.8399	 2.1972	-0.1095	 2.0877	60.6169	99.9553	
   359	 2.3945	 0.1233	 2.5178	 2.4922	 0.4175	 2.9098	 2.2101	-0.0802	 2.1299	60.6544	99.9567	
   360	 2.3647	 0.1190	 2.4837	 2.4530	 0.4055	 2.8586	 2.2274	-0.0693	 2.1580	60.7034	99.9519	
   361	 2.3406	 0.0901	 2.4308	 2.4514	 0.3802	 2.8318	 2.2318	-0.0878	 2.1439	60.7473	99.9523	
   362	 2.2434	 0.0725	 2.3160	 2.3723	 0.3436	 2.7160	 2.1793	-0.1315	 2.0478	60.9036	99.9512	
   363	 2.1655	 0.0105	 2.1760	 2.2849	 0.2776	 2.5626	 2.0980	-0.1932	 1.9049	60.8974	99.9501	
   364	 2.0501	-0.0606	 1.9896	 2.1650	 0.2037	 2.3688	 1.9995	-0.2657	 1.7338	60.9318	99.9485	
   365	 1.9193	-0.1411	 1.7782	 2.0352	 0.0752	 2.1105	 1.8645	-0.3932	 1.4713	61.0734	99.9465	
   366	 1.8463	-0.2423	 1.6039	 1.9329	-0.0243	 1.9088	 1.7639	-0.4989	 1.2650	61.0613	99.9455	
   367	 1.8136	-0.2906	 1.5230	 1.8730	-0.0612	 1.8119	 1.6833	-0.5496	 1.1338	60.9701	99.9468	
   368	 1.8280	-0.2958	 1.5322	 1.8906	-0.0868	 1.8039	 1.7311	-0.5834	 1.1477	61.1706	99.9447	
   369	 1.8627	-0.3307	 1.5320	 1.9141	-0.1209	 1.7932	 1.7240	-0.6091	 1.1149	61.0855	99.9454	
   370	 1.8387	-0.3596	 1.4791	 1.8792	-0.1667	 1.7126	 1.6875	-0.6640	 1.0235	61.1571	99.9447	
   371	 1.7694	-0.4022	 1.3672	 1.8219	-0.2627	 1.5593	 1.5934	-0.7551	 0.8383	61.2612	99.9443	
   372	 1.5599	-0.6719	 0.8879	 1.6491	-0.4664	 1.1827	 1.4800	-0.8902	 0.5898	61.1190	99.9417	
   373	 1.5771	-0.6331	 0.9440	 1.7023	-0.4336	 1.2689	 1.5522	-0.8875	 0.6647	61.3637	99.9439	
   374	 1.6253	-0.6879	 0.9374	 1.6584	-0.5214	 1.1371	 1.5008	-1.0049	 0.4958	61.4187	99.9401	
   375	 1.5840	-0.7556	 0.8284	 1.6059	-0.5416	 1.0644	 1.4709	-0.9492	 0.5217	61.0353	99.9357	
   376	 1.8043	-0.6621	 1.1422	 1.8704	-0.5123	 1.3581	 1.6149	-1.0396	 0.5753	61.5681	99.9489	
   377	 1.8189	-0.7798	 1.0391	 1.8680	-0.5502	 1.3179	 1.6871	-1.0368	 0.6502	61.3904	99.9455	
   378	 1.9093	-0.7523	 1.1570	 1.9648	-0.5392	 1.4256	 1.7657	-1.0194	 0.7463	61.4314	99.9456	
   379	 1.9767	-0.7389	 1.2377	 2.0173	-0.5190	 1.4983	 1.7772	-1.0122	 0.7650	61.3450	99.9483	
   380	 1.9468	-0.7432	 1.2036	 1.9973	-0.5313	 1.4661	 1.7484	-1.0302	 0.7181	61.3818	99.9491	
   381	 1.8603	-0.8247	 1.0356	 1.9017	-0.6267	 1.2750	 1.6492	-1.1139	 0.5353	61.3732	99.9475	
   382	 1.6929	-0.8996	 0.7933	 1.7575	-0.6791	 1.0785	 1.5584	-1.1496	 0.4088	61.3818	99.9458	
   383	 1.6255	-0.9129	 0.7126	 1.7692	-0.6962	 1.0731	 1.5801	-1.1573	 0.4229	61.5531	99.9481	
   384	 1.5698	-0.9754	 0.5944	 1.7343	-0.7420	 0.9925	 1.5622	-1.1792	 0.3830	61.5204	99.9475	
   385	 1.6208	-0.9862	 0.6346	 1.7978	-0.7515	 1.0464	 1.6388	-1.1949	 0.4438	61.6444	99.9477	
   386	 1.6786	-1.0069	 0.6717	 1.8597	-0.7862	 1.0735	 1.7032	-1.2290	 0.4742	61.7641	99.9470	
   387	 1.6709	-1.0116	 0.6592	 1.8405	-0.7859	 1.0546	 1.6923	-1.2252	 0.4671	61.7247	99.9461	
   388	 1.6574	-0.9918	 0.6656	 1.8295	-0.7562	 1.0734	 1.6337	-1.1875	 0.4462	61.5218	99.9488	
   389	 1.3235	-1.1270	 0.1966	 1.3240	-1.0555	 0.2686	 0.9974	-1.5447	-0.5473	61.4661	99.9434	
   390	 0.1777	-1.5932	-1.4155	 0.3561	-1.3723	-1.0160	 0.1761	-1.6670	-1.4910	60.6986	99.9389	
   391	 0.2045	-1.4079	-1.2034	 0.4682	-1.4247	-0.9565	 0.1516	-1.9805	-1.8289	62.2522	99.9547	
   392	-0.3272	-1.9744	-2.3016	-0.2892	-2.2679	-2.5570	-0.6507	-2.7933	-3.4439	62.6550	99.9281	
   393	-0.4982	-2.3329	-2.8311	-0.7541	-2.7366	-3.4905	-1.3437	-3.3565	-4.7001	62.2912	99.9270	
   394	-0.6819	-2.4319	-3.1139	-0.9833	-2.8170	-3.8002	-1.5026	-3.3286	-4.8311	61.8250	99.9112	
   395	-0.3770	-2.2864	-2.6634	-0.5683	-2.6343	-3.2025	-0.9381	-3.0590	-3.9971	62.1113	99.9018	
   396	-0.1297	-2.2327	-2.3623	-0.3783	-2.5658	-2.9440	-0.7989	-3.0460	-3.8449	62.1010	99.9083	
   397	-0.3792	-1.9782	-2.3574	-0.5947	-2.2375	-2.8321	-0.9794	-2.5528	-3.5322	60.9585	99.8984	
   398	-0.0556	-1.2021	-1.2577	 0.1960	-1.1671	-0.9710	 0.1884	-1.3719	-1.1835	61.1743	99.9130	
   399	 0.7739	-1.0573	-0.2834	 1.0471	-0.8737	 0.1735	 0.9998	-1.1387	-0.1389	61.2233	99.9313	
   400	 0.7961	-1.1702	-0.3741	 1.0984	-0.9758	 0.1227	 1.1328	-1.3213	-0.1885	61.8609	99.9342	
   401	 1.1273	-1.1915	-0.0643	 1.3181	-1.0470	 0.2712	 1.2396	-1.4777	-0.2381	62.0223	99.9383	
   402	 1.3640	-1.1865	 0.1775	 1.3976	-1.1073	 0.2904	 1.2573	-1.5518	-0.2945	61.9102	99.9312	
   403	 1.4488	-1.2469	 0.2019	 1.4704	-1.1718	 0.2987	 1.3318	-1.6007	-0.2689	61.9514	99.9290	
   404	 1.5460	-1.2292	 0.3167	 1.5621	-1.1396	 0.4226	 1.4155	-1.5907	-0.1752	61.9927	99.9317	
   405	 1.5979	-1.2254	 0.3726	 1.6021	-1.1150	 0.4872	 1.4564	-1.5543	-0.0979	61.8766	99.9314	
   406	 1.6758	-1.1633	 0.5125	 1.6895	-1.0490	 0.6406	 1.5211	-1.4924	 0.0287	61.8392	99.9338	
   407	 1.7691	-1.0918	 0.6773	 1.7710	-0.9745	 0.7966	 1.5641	-1.4228	 0.1412	61.7168	99.9361	
   408	 1.9221	-1.0118	 0.9103	 1.9000	-0.8586	 1.0415	 1.6863	-1.3247	 0.3615	61.6024	99.9385	
   409	 2.1876	-0.9046	 1.2830	 2.1292	-0.7781	 1.3511	 1.8509	-1.3490	 0.5019	61.9051	99.9458	
   410	 2.1339	-1.0502	 1.0836	 2.0629	-0.9162	 1.1468	 1.7683	-1.4328	 0.3355	61.7007	99.9431	
   411	 2.1329	-1.0649	 1.0680	 2.1005	-0.9295	 1.1712	 1.8002	-1.4554	 0.3448	61.8249	99.9458	
   412	 2.1676	-1.0998	 1.0678	 2.1248	-0.9510	 1.1739	 1.7938	-1.4701	 0.3237	61.7007	99.9473	
   413	 2.1907	-1.0856	 1.1051	 2.1205	-0.9171	 1.2034	 1.7677	-1.4439	 0.3238	61.5347	99.9487	
   414	 2.0674	-1.0489	 1.0185	 1.9434	-0.8804	 1.0631	 1.4946	-1.3813	 0.1133	60.9425	99.9500	
   415	 1.6227	-0.9569	 0.6658	 1.5757	-0.7182	 0.8576	 1.3643	-1.1545	 0.2099	60.8831	99.9400	
   416	 1.6907	-0.5914	 1.0993	 1.8505	-0.3180	 1.5326	 1.7153	-0.7530	 0.9624	61.1928	99.9472	
   417	 2.1130	-0.3455	 1.7675	 2.2204	-0.1387	 2.0818	 1.9401	-0.5160	 1.4241	60.7888	99.9458	
   418	 1.5067	-0.4654	 1.0413	 1.4457	-0.5431	 0.9027	 1.1961	-0.8238	 0.3723	60.8221	99.9100	
   419	 0.6033	-0.8387	-0.2353	 0.5561	-1.0425	-0.4863	 0.4075	-1.3193	-0.9118	61.2971	99.8931	
   420	 0.0801	-1.1608	-1.0808	 0.1802	-1.4199	-1.2396	 0.0555	-1.6470	-1.5916	61.6991	99.8912	
   421	-0.0215	-1.5892	-1.6107	-0.0500	-1.9262	-1.9761	-0.3062	-2.2256	-2.5318	61.9102	99.8930	
   422	-0.6214	-2.2962	-2.9176	-0.9743	-2.7750	-3.7492	-1.5470	-3.2394	-4.7864	61.6350	99.8999	
   423	-1.5209	-2.7233	-4.2442	-1.9484	-3.1929	-5.1412	-2.4451	-3.6228	-6.0679	61.2369	99.8856	
   424	-1.8520	-2.7020	-4.5540	-2.2383	-3.1163	-5.3545	-2.5716	-3.4256	-5.9971	60.8534	99.8666	
   425	-1.5752	-2.3065	-3.8817	-1.6660	-2.5694	-4.2353	-1.7513	-2.7717	-4.5230	61.1552	99.8706	
   426	-0.7161	-1.9324	-2.6485	-0.4214	-1.9242	-2.3455	-0.6351	-2.2619	-2.8971	61.5579	99.9373	
   427	 0.1470	-1.7246	-1.5776	 0.5323	-1.6282	-1.0958	-0.0187	-2.1407	-2.1594	61.6295	99.9726	
   428	 0.5693	-1.4787	-0.9094	 0.7699	-1.3118	-0.5418	 0.2645	-1.7604	-1.4959	60.8339	99.9637	
   429	 1.0665	-1.1023	-0.0357	 1.0968	-1.0011	 0.0958	 0.6668	-1.5183	-0.8515	61.0775	99.9538	
   430	 1.4957	-0.9788	 0.5169	 1.4052	-0.8840	 0.5213	 0.8974	-1.4585	-0.5611	60.9738	99.9556	
   431	 1.4919	-1.0374	 0.4545	 1.3969	-0.9134	 0.4837	 0.9300	-1.4700	-0.5401	60.9444	99.9536	
   432	 1.4486	-1.0219	 0.4267	 1.3726	-0.8919	 0.4809	 0.9218	-1.4219	-0.5001	60.8729	99.9524	
   433	 1.4572	-1.0025	 0.4547	 1.3801	-0.8751	 0.5051	 0.9276	-1.4183	-0.4908	60.9118	99.9530	
   434	 1.3456	-1.0149	 0.3307	 1.2590	-0.8646	 0.3945	 0.8114	-1.4168	-0.6055	60.7850	99.9540	
   435	 1.0656	-1.1169	-0.0513	 0.9941	-1.0035	-0.0093	 0.5353	-1.4945	-0.9591	60.6085	99.9499	
   436	 0.8808	-1.1181	-0.2373	 1.0032	-0.9615	 0.0417	 0.6295	-1.4034	-0.7740	60.8715	99.9531	
   437	 0.8701	-1.0543	-0.1842	 0.9855	-0.9359	 0.0497	 0.4652	-1.4640	-0.9988	60.8663	99.9632	
   438	 0.3216	-1.0825	-0.7609	 0.4746	-1.1170	-0.6424	-0.1184	-1.5008	-1.6193	60.4612	99.9529	
   439	-0.7473	-1.5013	-2.2487	-0.6842	-1.7215	-2.4056	-1.0540	-2.0461	-3.1001	60.9366	99.9189	
   440	-1.2502	-1.9657	-3.2160	-1.2047	-2.2609	-3.4655	-1.4402	-2.4804	-3.9206	61.2143	99.8917	
   441	-1.1450	-2.2808	-3.4259	-1.2139	-2.5095	-3.7233	-1.4572	-2.8530	-4.3102	61.4713	99.9022	
   442	-1.5373	-2.7474	-4.2847	-1.8669	-3.1184	-4.9851	-2.4858	-3.5632	-6.0490	60.8489	99.9117	
   443	-2.1185	-2.8239	-4.9424	-2.4267	-3.1595	-5.5861	-2.9523	-3.4945	-6.4467	60.2519	99.8983	
   444	-2.1188	-2.4864	-4.6052	-2.4156	-2.7760	-5.1914	-2.7352	-3.0174	-5.7526	59.9973	99.8770	
   445	-1.8027	-1.9400	-3.7427	-1.7786	-2.1163	-3.8948	-1.8949	-2.3085	-4.2034	60.5221	99.8886	
   446	-1.2505	-1.7407	-2.9912	-0.8687	-1.7015	-2.5701	-1.1370	-2.0451	-3.1820	61.0194	99.9472	
   447	-0.4517	-1.6148	-2.0666	 0.0293	-1.4764	-1.4469	-0.4849	-1.9760	-2.4609	61.2700	99.9754	
   448	 0.0370	-1.3703	-1.3333	 0.3429	-1.1738	-0.8308	-0.1597	-1.6332	-1.7928	60.5920	99.9693	
   449	 0.7016	-0.9189	-0.2173	 0.6996	-0.7962	-0.0964	 0.2595	-1.2953	-1.0358	60.4118	99.9532	
   450	 1.1884	-0.7036	 0.4847	 1.1103	-0.5796	 0.5308	 0.5893	-1.1519	-0.5626	60.4011	99.9582	
   451	 1.1500	-0.8398	 0.3102	 1.0515	-0.7009	 0.3507	 0.5738	-1.2255	-0.6517	60.3268	99.9531	
   452	 0.8969	-0.8690	 0.0279	 0.9355	-0.7116	 0.2240	 0.5917	-1.2036	-0.6119	60.7020	99.9510	
   453	 0.8883	-0.8884	-0.0001	 0.9054	-0.6816	 0.2239	 0.5829	-1.1666	-0.5837	60.5072	99.9509	
   454	 0.7689	-0.9056	-0.1366	 0.7396	-0.7715	-0.0318	 0.2998	-1.2700	-0.9702	60.3304	99.9524	
   455	 0.7862	-0.8668	-0.0806	 0.8854	-0.6939	 0.1916	 0.3963	-1.2306	-0.8343	60.5126	99.9639	
   456	 0.6688	-0.8547	-0.1859	 0.8078	-0.7052	 0.1027	 0.2313	-1.3023	-1.0710	60.6067	99.9712	
   457	 0.1914	-0.8109	-0.6195	 0.2946	-0.7176	-0.4229	-0.3199	-1.1697	-1.4896	59.7202	99.9624	
   458	-0.7335	-0.8315	-1.5651	-0.7167	-1.0126	-1.7292	-1.2026	-1.2986	-2.5012	59.6129	99.9241	
   459	-1.4935	-1.2712	-2.7647	-1.4527	-1.5146	-2.9672	-1.7402	-1.7642	-3.5043	60.1792	99.9035	
   460	-1.7711	-1.7939	-3.5650	-1.8847	-2.0723	-3.9570	-2.2085	-2.3672	-4.5757	60.2526	99.8973	
   461	-2.1075	-2.3105	-4.4180	-2.4069	-2.6370	-5.0437	-2.9804	-3.0438	-6.0242	59.9059	99.9107	
   462	-2.7087	-2.5822	-5.2909	-3.1663	-2.8982	-6.0644	-3.7224	-3.3184	-7.0408	59.3327	99.9012	
   463	-2.9900	-2.3614	-5.3514	-3.4251	-2.6324	-6.0574	-3.8297	-2.8963	-6.7260	58.6273	99.8785	
   464	-2.6884	-1.6973	-4.3857	-2.8386	-1.8580	-4.6965	-3.0272	-1.9875	-5.0147	58.7164	99.8776	
   465	-2.1527	-1.2972	-3.4499	-1.8427	-1.1960	-3.0386	-1.9751	-1.5286	-3.5037	59.9117	99.9393	
   466	-1.2183	-1.1300	-2.3483	-0.6837	-0.8951	-1.5787	-1.0474	-1.2969	-2.3443	60.1427	99.9705	
   467	-0.5776	-0.8200	-1.3976	-0.1625	-0.5497	-0.7121	-0.4966	-0.8869	-1.3835	59.7054	99.9630	
   468	 0.1504	-0.3014	-0.1510	 0.2448	-0.0801	 0.1648	-0.0328	-0.5422	-0.5750	59.6774	99.9518	
   469	 0.4883	-0.3326	 0.1557	 0.4786	-0.1304	 0.3483	 0.0595	-0.6652	-0.6057	59.6206	99.9577	
   470	 0.3807	-0.5114	-0.1307	 0.3947	-0.2428	 0.1520	-0.0038	-0.7050	-0.7088	59.3179	99.9566	
   471	 0.3374	-0.4959	-0.1585	 0.3779	-0.2046	 0.1734	-0.0120	-0.6569	-0.6689	59.2501	99.9578	
   472	 0.2535	-0.4208	-0.1673	 0.3200	-0.1066	 0.2134	-0.0514	-0.5752	-0.6266	59.2206	99.9598	
   473	 0.1649	-0.3066	-0.1417	 0.2111	-0.0036	 0.2076	-0.1724	-0.4703	-0.6427	59.0083	99.9591	
   474	-0.0517	-0.2289	-0.2806	 0.0388	 0.1090	 0.1479	-0.2511	-0.3069	-0.5579	58.8503	99.9551	
   475	-0.0230	-0.1267	-0.1497	 0.2254	 0.2239	 0.4493	-0.1295	-0.2198	-0.3494	59.0791	99.9663	
   476	-0.5264	-0.0286	-0.5551	-0.3509	 0.3306	-0.0202	-0.8908	-0.0808	-0.9716	57.8168	99.9708	
   477	-1.4516	 0.1757	-1.2759	-1.2872	 0.3127	-0.9744	-1.8922	 0.0243	-1.8679	57.1347	99.9580	
   478	-2.3898	-0.0501	-2.4399	-2.3315	-0.0998	-2.4312	-2.6515	-0.2612	-2.9126	57.3758	99.9152	
   479	-2.4433	-0.4208	-2.8640	-2.4520	-0.4899	-2.9418	-2.7471	-0.6512	-3.3983	57.6197	99.9076	
   480	-2.4602	-0.7970	-3.2573	-2.6935	-0.8695	-3.5629	-3.2335	-1.0953	-4.3288	56.8677	99.9168	
   481	-2.8288	-0.8973	-3.7260	-3.1523	-0.9335	-4.0857	-3.7419	-1.1699	-4.9118	56.1819	99.9186	
   482	-3.2851	-0.7561	-4.0412	-3.7626	-0.8599	-4.6224	-4.3589	-1.0254	-5.3843	55.2171	99.8978	
   483	-3.5235	-0.1008	-3.6243	-3.7426	-0.1308	-3.8733	-4.0079	-0.1662	-4.1741	55.4354	99.8831	
   484	-3.4449	 0.2009	-3.2440	-3.2010	 0.3366	-2.8643	-3.2791	 0.1640	-3.1151	56.9603	99.9239	
   485	-2.5815	 0.1836	-2.3979	-2.0021	 0.4555	-1.5465	-2.2550	-0.0227	-2.2776	58.6172	99.9730	
   486	-1.6018	 0.2521	-1.3497	-1.2224	 0.6320	-0.5902	-1.5679	 0.2601	-1.3078	57.6872	99.9690	
   487	-0.9324	 0.7767	-0.1557	-0.8743	 1.0774	 0.2032	-1.1959	 0.6429	-0.5530	57.4006	99.9554	
   488	-0.6487	 0.9373	 0.2887	-0.7520	 1.1891	 0.4373	-1.1830	 0.6722	-0.5108	57.1894	99.9565	
   489	-0.8853	 0.8198	-0.0655	-0.9346	 1.1374	 0.2029	-1.3382	 0.6706	-0.6676	56.9344	99.9576	
   490	-0.9931	 0.8660	-0.1272	-1.0258	 1.2148	 0.1891	-1.3890	 0.7450	-0.6440	56.8741	99.9579	
   491	-1.0721	 0.9018	-0.1703	-1.1245	 1.2755	 0.1511	-1.5120	 0.8167	-0.6953	56.5388	99.9588	
   492	-1.1704	 0.9820	-0.1884	-1.1891	 1.3694	 0.1804	-1.5399	 0.9057	-0.6342	56.5632	99.9592	
   493	-1.1552	 1.2165	 0.0613	-1.1040	 1.6041	 0.5002	-1.5132	 1.0715	-0.4418	56.6469	99.9678	
   494	-1.1390	 1.3531	 0.2141	-1.0769	 1.7301	 0.6534	-1.5590	 1.1385	-0.4205	56.6167	99.9732	
   495	-1.7944	 1.3857	-0.4087	-1.8039	 1.7804	-0.0235	-2.3973	 1.3781	-1.0191	54.8734	99.9684	
   496	-2.9064	 1.6721	-1.2343	-2.9207	 2.0523	-0.8684	-3.6356	 1.6857	-1.9499	53.3624	99.9718	
   497	-4.1567	 1.7606	-2.3960	-4.2963	 1.8731	-2.4231	-4.9025	 1.6134	-3.2890	52.8518	99.9432	
   498	-4.8021	 1.3774	-3.4248	-4.9273	 1.4115	-3.5157	-5.3459	 1.2390	-4.1070	53.2619	99.9203	
   499	-4.6083	 0.9480	-3.6603	-4.9365	 0.9562	-3.9802	-5.3656	 0.8221	-4.5435	53.0979	99.9030	
   500	-4.5877	 0.5807	-4.0070	-5.1072	 0.5838	-4.5232	-5.7992	 0.3368	-5.4625	52.4693	99.9197	
   501	-5.1900	 0.4069	-4.7831	-5.8720	 0.4407	-5.4311	-6.5599	 0.2100	-6.3500	51.4576	99.9104	
   502	-5.7004	 0.7399	-4.9605	-6.3748	 0.7992	-5.5755	-6.9614	 0.7135	-6.2479	50.4661	99.8918	
   503	-5.8803	 1.6141	-4.2662	-6.3022	 1.7552	-4.5469	-6.6674	 1.7284	-4.9390	50.5637	99.8934	
   504	-5.8979	 1.9128	-3.9851	-5.8115	 2.2276	-3.5838	-6.0812	 1.9904	-4.0909	52.2747	99.9451	
   505	-5.1404	 1.8586	-3.2819	-4.7619	 2.3153	-2.4465	-5.0920	 1.8669	-3.2251	53.8171	99.9758	
   506	-4.3397	 1.9012	-2.4384	-4.0237	 2.4420	-1.5817	-4.3791	 2.0275	-2.3516	53.7101	99.9758	
   507	-3.6058	 2.3953	-1.2106	-3.5836	 2.8225	-0.7610	-3.9823	 2.3620	-1.6203	53.4178	99.9658	
   508	-3.0585	 2.7463	-0.3123	-3.1767	 3.1824	 0.0058	-3.6546	 2.6530	-1.0016	53.0990	99.9675	
   509	-2.8412	 2.9082	 0.0671	-3.0505	 3.3574	 0.3070	-3.5744	 2.7886	-0.7858	52.8151	99.9683	
   510	-2.9086	 3.0074	 0.0988	-3.0634	 3.4588	 0.3956	-3.5996	 2.9218	-0.6778	52.6866	99.9695	
   511	-2.9193	 3.0712	 0.1519	-3.1205	 3.5694	 0.4490	-3.6542	 3.0258	-0.6284	52.3558	99.9696	
   512	-3.0695	 3.1475	 0.0781	-3.2368	 3.6557	 0.4190	-3.7484	 3.1156	-0.6328	52.2968	99.9701	
   513	-3.1302	 3.2368	 0.1066	-3.3139	 3.7540	 0.4402	-3.8407	 3.2386	-0.6020	51.9665	99.9695	
   514	-3.1967	 3.3506	 0.1539	-3.3828	 3.8817	 0.4990	-3.9017	 3.3280	-0.5737	51.9212	99.9711	
   515	-3.2565	 3.4545	 0.1980	-3.4525	 3.9967	 0.5443	-3.9658	 3.4580	-0.5078	51.6863	99.9703	
   516	-3.1844	 3.5411	 0.3567	-3.3694	 4.0965	 0.7272	-3.8385	 3.5487	-0.2899	51.8189	99.9696	
   517	-3.1633	 3.6385	 0.4752	-3.3439	 4.1973	 0.8535	-3.8152	 3.6591	-0.1561	51.7160	99.9696	
   518	-3.2327	 3.7084	 0.4757	-3.4042	 4.2573	 0.8533	-3.8502	 3.7223	-0.1279	51.7300	99.9685	
   519	-3.3742	 3.6916	 0.3175	-3.5444	 4.2681	 0.7238	-3.9688	 3.7755	-0.1933	51.4660	99.9668	
   520	-3.5917	 3.7547	 0.1629	-3.6866	 4.3506	 0.6642	-4.0630	 3.8653	-0.1977	51.5227	99.9678	
   521	-3.7669	 3.7875	 0.0206	-3.8370	 4.4038	 0.5669	-4.1962	 3.9519	-0.2443	51.3053	99.9673	
   522	-3.9114	 3.8393	-0.0720	-3.9498	 4.4436	 0.4940	-4.3040	 4.0013	-0.3027	51.2699	99.9675	
   523	-4.0220	 3.8415	-0.1805	-4.0258	 4.4576	 0.4319	-4.3467	 4.0277	-0.3190	51.3033	99.9672	
   524	-4.0586	 3.8472	-0.2115	-4.0258	 4.4576	 0.4319	-4.3568	 4.0426	-0.3142	51.3176	99.9681	
   525	-4.0126	 3.9881	-0.0245	-3.9947	 4.6468	 0.6522	-4.3180	 4.2267	-0.0914	51.0715	99.9691	
   526	-3.9656	 4.1437	 0.1781	-4.0052	 4.7861	 0.7810	-4.3625	 4.3158	-0.0466	50.9334	99.9700	
   527	-4.1013	 4.2148	 0.1135	-4.1431	 4.8348	 0.6918	-4.5258	 4.3622	-0.1636	50.7739	99.9704	
   528	-4.3342	 4.1559	-0.1783	-4.3708	 4.7797	 0.4090	-4.6938	 4.3312	-0.3626	50.7436	99.9673	
   529	-4.4958	 4.0564	-0.4394	-4.4613	 4.6631	 0.2019	-4.7062	 4.2169	-0.4893	51.1928	99.9658	
   530	-4.4244	 3.9034	-0.5210	-4.2471	 4.5035	 0.2565	-4.3900	 4.0430	-0.3470	52.1541	99.9667	
   531	-4.0835	 3.6911	-0.3924	-3.9417	 4.2664	 0.3248	-4.1633	 3.8555	-0.3077	52.1672	99.9658	
   532	-3.9574	 3.6984	-0.2590	-3.8382	 4.2815	 0.4434	-4.0427	 3.8355	-0.2071	52.3307	99.9660	
   533	-3.9275	 3.5902	-0.3373	-3.8512	 4.1763	 0.3252	-4.1002	 3.7994	-0.3009	51.9458	99.9634	
   534	-3.6322	 3.8142	 0.1820	-3.8910	 4.5649	 0.6741	-3.7612	 4.2785	 0.5174	51.2598	99.9306	
   535	-3.9184	 4.1867	 0.2683	-3.7148	 5.0258	 1.3111	-3.8590	 4.6748	 0.8158	51.2154	99.9708	
   536	-4.0660	 4.5321	 0.4660	-4.0238	 5.3093	 1.2857	-4.4540	 4.9076	 0.4536	49.8935	99.9768	
   537	-4.5198	 4.9422	 0.4224	-4.4885	 5.7641	 1.2757	-4.9686	 5.3719	 0.4033	48.8586	99.9792	
   538	-5.0572	 5.3149	 0.2577	-5.0439	 6.1024	 1.0586	-5.6115	 5.8195	 0.2080	47.5798	99.9778	
   539	-5.6716	 5.6402	-0.0314	-5.6808	 6.3662	 0.6855	-6.2981	 6.1863	-0.1117	46.4780	99.9737	
   540	-6.3464	 5.8297	-0.5167	-6.4337	 6.4126	-0.0210	-6.9954	 6.3762	-0.6192	45.7136	99.9560	
   541	-7.1492	 5.8702	-1.2789	-7.4347	 6.2820	-1.1527	-7.7846	 6.3273	-1.4573	45.3571	99.9188	
   542	-7.5645	 5.3894	-2.1751	-7.7848	 5.9084	-1.8763	-7.9182	 6.0411	-1.8771	45.6668	99.9075	
   543	-7.2718	 5.3444	-1.9274	-7.3303	 6.0061	-1.3241	-7.2858	 6.1511	-1.1347	46.5047	99.9134	
   544	-6.8292	 5.4481	-1.3811	-6.8088	 6.0479	-0.7608	-6.8184	 6.1894	-0.6290	47.0568	99.9177	
   545	-6.7473	 5.3437	-1.4036	-6.7740	 5.8871	-0.8868	-6.8437	 6.0457	-0.7980	46.9989	99.9138	
   546	-6.8205	 5.3550	-1.4655	-6.7956	 5.8495	-0.9460	-6.8003	 6.0304	-0.7699	47.3747	99.9071	
   547	-6.6894	 5.2105	-1.4789	-6.4815	 5.7514	-0.7299	-6.5665	 5.8687	-0.6978	47.9562	99.9305	
   548	-6.4651	 5.1376	-1.3275	-6.2170	 5.7807	-0.4362	-6.4408	 5.8412	-0.5996	47.7425	99.9497	
   549	-6.2814	 5.2366	-1.0448	-6.0462	 5.8495	-0.1966	-6.2376	 5.9050	-0.3325	47.9793	99.9461	
   550	-6.1352	 5.3266	-0.8085	-5.9270	 5.9107	-0.0162	-6.0771	 5.9952	-0.0818	48.0642	99.9391	
   551	-5.9880	 5.4313	-0.5567	-5.7413	 6.0130	 0.2718	-5.8648	 6.1180	 0.2532	48.2329	99.9379	
   552	-5.8100	 5.4424	-0.3676	-5.5579	 6.0774	 0.5196	-5.6883	 6.1969	 0.5086	48.1393	99.9404	
   553	-5.7002	 5.4255	-0.2747	-5.4204	 6.1257	 0.7054	-5.5420	 6.2357	 0.6936	48.1680	99.9453	
   554	-5.4653	 5.4013	-0.0641	-5.1308	 6.1461	 1.0153	-5.2616	 6.2948	 1.0332	48.2354	99.9479	
   555	-5.2680	 5.3680	 0.1000	-4.9134	 6.2436	 1.3303	-4.8961	 6.3861	 1.4899	48.5088	99.9477	
   556	-4.9600	 5.3325	 0.3725	-4.7637	 6.1778	 1.4142	-4.9683	 6.3833	 1.4150	47.5504	99.9472	
   557	-4.9744	 5.3377	 0.3632	-4.6728	 6.1974	 1.5246	-4.8074	 6.3886	 1.5812	48.0516	99.9496	
   558	-4.9321	 5.3075	 0.3754	-4.6611	 6.1803	 1.5193	-4.7986	 6.3516	 1.5530	48.0293	99.9502	
   559	-4.9349	 5.2635	 0.3286	-4.6776	 6.1215	 1.4441	-4.8415	 6.2820	 1.4405	48.0228	99.9509	
   560	-5.0013	 5.2648	 0.2635	-4.7117	 6.0884	 1.3768	-4.8787	 6.2160	 1.3373	48.2686	99.9527	
   561	-4.9811	 5.2351	 0.2540	-4.6741	 6.0751	 1.4011	-4.7812	 6.1816	 1.4004	48.5476	99.9524	
   562	-4.7925	 5.2949	 0.5024	-4.4605	 6.1094	 1.6490	-4.5607	 6.2562	 1.6956	48.6886	99.9495	
   563	-4.6839	 5.4884	 0.8045	-4.3516	 6.2130	 1.8615	-4.4172	 6.4316	 2.0144	48.7801	99.9385	
   564	-4.5822	 5.8043	 1.2221	-4.3691	 6.4452	 2.0762	-4.4025	 6.6750	 2.2725	48.5905	99.9251	
   565	-4.6835	 6.0655	 1.3820	-4.5394	 6.6927	 2.1534	-4.4586	 6.9378	 2.4792	48.4437	99.9121	
   566	-4.7741	 6.1505	 1.3764	-4.7085	 6.8558	 2.1473	-4.6860	 7.1142	 2.4282	47.6285	99.9157	
   567	-5.0553	 6.3713	 1.3160	-4.9415	 7.1254	 2.1840	-4.9158	 7.3423	 2.4265	47.3798	99.9246	
   568	-5.1719	 6.5106	 1.3387	-5.0883	 7.3387	 2.2505	-5.0532	 7.5434	 2.4903	46.9362	99.9278	
   569	-5.0739	 6.6553	 1.5815	-4.9527	 7.4587	 2.5061	-4.9086	 7.6449	 2.7363	47.1723	99.9291	
   570	-5.0604	 6.6355	 1.5751	-4.9801	 7.4296	 2.4496	-4.9993	 7.6092	 2.6098	46.9388	99.9308	
   571	-5.2701	 6.4783	 1.2082	-5.1674	 7.3021	 2.1347	-5.1957	 7.4751	 2.2794	46.8653	99.9345	
   572	-5.3489	 6.4016	 1.0527	-5.2063	 7.1931	 1.9869	-5.1916	 7.3607	 2.1691	47.2253	99.9325	
   573	-5.2940	 6.3369	 1.0429	-5.1315	 7.0569	 1.9255	-5.1133	 7.2821	 2.1689	47.4270	99.9250	
   574	-5.1043	 6.2989	 1.1946	-4.9341	 6.9355	 2.0014	-4.9289	 7.2170	 2.2881	47.6666	99.9166	
   575	-5.0493	 6.1217	 1.0724	-4.9033	 6.7115	 1.8083	-4.9461	 7.0253	 2.0792	47.6745	99.9125	
   576	-5.0442	 5.8575	 0.8133	-4.8384	 6.5206	 1.6823	-4.8886	 6.7846	 1.8960	47.9586	99.9248	
   577	-4.9610	 5.4303	 0.4693	-4.7496	 6.1987	 1.4491	-4.8588	 6.2712	 1.4124	48.4604	99.9470	
   578	-5.0436	 5.1825	 0.1390	-4.8022	 5.9718	 1.1697	-5.0090	 5.9852	 0.9762	48.5103	99.9575	
   579	-5.0772	 5.1196	 0.0424	-4.8192	 5.8035	 0.9844	-5.0231	 5.7528	 0.7298	49.1325	99.9568	
   580	-5.0838	 5.0170	-0.0668	-4.8537	 5.6607	 0.8070	-5.0727	 5.5726	 0.4999	49.3311	99.9567	
   581	-5.0876	 4.9584	-0.1292	-4.8753	 5.6231	 0.7479	-5.0690	 5.5430	 0.4740	49.3026	99.9552	
   582	-5.0039	 4.9959	-0.0081	-4.7554	 5.6970	 0.9417	-4.9352	 5.6483	 0.7131	49.2650	99.9559	
   583	-4.8492	 5.2178	 0.3686	-4.5633	 5.9003	 1.3371	-4.7054	 5.8779	 1.1725	49.4033	99.9532	
   584	-4.6134	 5.2082	 0.5948	-4.3153	 5.8708	 1.5556	-4.4469	 5.8487	 1.4018	49.7146	99.9522	
   585	-4.4402	 5.2585	 0.8183	-4.1453	 5.9270	 1.7818	-4.2532	 5.9385	 1.6853	49.7370	99.9491	
   586	-4.3392	 5.3348	 0.9956	-4.0837	 5.9892	 1.9056	-4.1720	 6.0002	 1.8283	49.7421	99.9456	
   587	-4.2903	 5.5196	 1.2293	-4.0500	 6.1194	 2.0695	-4.1064	 6.1692	 2.0628	49.7341	99.9378	
   588	-4.2086	 5.6403	 1.4317	-3.9869	 6.2069	 2.2201	-4.0204	 6.3083	 2.2879	49.6547	99.9301	
   589	-4.1508	 5.6196	 1.4687	-3.8975	 6.2011	 2.3037	-3.9483	 6.3111	 2.3628	49.6800	99.9330	
   590	-4.2170	 5.3959	 1.1789	-3.9372	 6.0795	 2.1424	-3.9908	 6.1566	 2.1658	49.6520	99.9422	
   591	-4.1003	 5.1441	 1.0438	-3.7539	 5.9373	 2.1835	-3.8163	 6.0215	 2.2052	49.7275	99.9504	
   592	-3.9191	 4.8617	 0.9426	-3.5362	 5.7312	 2.1951	-3.5756	 5.7895	 2.2139	50.0852	99.9555	
   593	-3.8679	 4.6259	 0.7581	-3.4873	 5.5912	 2.1040	-3.5593	 5.6934	 2.1341	49.7646	99.9587	
   594	-3.8958	 4.6509	 0.7551	-3.5606	 5.5461	 1.9856	-3.6547	 5.5802	 1.9254	49.9686	99.9586	
   595	-3.9372	 4.6958	 0.7586	-3.5864	 5.5423	 1.9559	-3.6412	 5.6206	 1.9794	50.0742	99.9528	
   596	-3.8632	 4.8117	 0.9485	-3.5124	 5.6001	 2.0878	-3.5843	 5.6457	 2.0614	50.2778	99.9529	
   597	-3.9594	 4.6962	 0.7369	-3.6864	 5.4807	 1.7945	-3.8230	 5.4531	 1.6301	50.1360	99.9567	
   598	-3.9710	 4.7454	 0.7744	-3.6248	 5.5429	 1.9182	-3.7025	 5.6140	 1.9115	50.1110	99.9520	
   599	-3.7664	 5.1668	 1.4004	-3.4531	 5.8310	 2.3780	-3.4731	 5.9285	 2.4554	50.3448	99.9392	
   600	-3.7926	 5.4461	 1.6535	-3.5529	 5.9760	 2.4232	-3.5027	 6.0802	 2.5775	50.5061	99.9232	
   601	-3.9139	 5.3996	 1.4858	-3.6513	 5.9397	 2.2886	-3.5487	 6.0513	 2.5026	50.6107	99.9212	
   602	-3.9051	 5.3065	 1.4014	-3.6301	 5.8677	 2.2377	-3.5571	 6.0034	 2.4462	50.4968	99.9231	
   603	-3.8618	 5.2910	 1.4292	-3.5792	 5.8626	 2.2835	-3.5290	 6.0104	 2.4814	50.4256	99.9247	
   604	-3.9090	 5.3604	 1.4514	-3.6270	 5.9183	 2.2914	-3.5551	 6.0366	 2.4815	50.5348	99.9247	
   605	-3.8407	 5.3884	 1.5477	-3.5470	 5.9675	 2.4206	-3.4197	 6.0791	 2.6595	50.7052	99.9236	
   606	-3.7493	 5.4306	 1.6813	-3.4377	 5.9741	 2.5365	-3.2977	 6.0813	 2.7835	50.9508	99.9219	
   607	-3.5915	 5.4714	 1.8799	-3.2685	 6.0176	 2.7493	-3.1609	 6.1459	 2.9850	50.8983	99.9231	
   608	-3.5386	 5.4899	 1.9514	-3.2167	 6.0252	 2.8085	-3.1104	 6.1564	 3.0459	50.9407	99.9222	
   609	-3.4683	 5.4347	 1.9665	-3.1549	 5.9904	 2.8356	-3.0779	 6.1449	 3.0669	50.7897	99.9231	
   610	-3.4345	 5.3852	 1.9506	-3.1298	 5.9815	 2.8518	-3.0525	 6.1076	 3.0551	50.7897	99.9272	
   611	-3.4441	 5.3511	 1.9070	-3.1196	 5.9392	 2.8197	-3.0718	 6.0636	 2.9918	50.8135	99.9296	
   612	-3.3700	 5.3545	 1.9845	-3.0170	 5.9417	 2.9248	-2.9370	 6.0951	 3.1581	50.9443	99.9269	
   613	-3.1072	 5.3052	 2.1980	-2.7514	 5.8866	 3.1353	-2.6506	 5.9769	 3.3263	51.4516	99.9298	
   614	-2.9801	 5.2147	 2.2346	-2.6300	 5.7791	 3.1492	-2.5188	 5.8682	 3.3494	51.6817	99.9279	
   615	-2.9125	 5.0030	 2.0905	-2.5694	 5.6221	 3.0528	-2.4990	 5.6465	 3.1475	51.7933	99.9374	
   616	-2.9170	 4.7047	 1.7877	-2.5577	 5.3984	 2.8408	-2.5449	 5.4367	 2.8918	51.6249	99.9443	
   617	-2.9353	 4.6513	 1.7160	-2.5409	 5.3602	 2.8194	-2.5520	 5.4109	 2.8589	51.5959	99.9471	
   618	-2.9160	 4.6069	 1.6909	-2.5433	 5.3223	 2.7791	-2.5336	 5.3479	 2.8143	51.7004	99.9468	
   619	-2.9302	 4.3871	 1.4569	-2.5344	 5.1577	 2.6234	-2.4837	 5.1664	 2.6827	51.9152	99.9492	
   620	-2.7242	 4.3732	 1.6490	-2.2597	 5.1446	 2.8849	-2.1752	 5.2326	 3.0574	52.0965	99.9457	
   621	-2.5357	 4.5455	 2.0098	-2.1022	 5.2052	 3.1031	-1.9682	 5.2668	 3.2986	52.5834	99.9375	
   622	-2.4598	 4.6907	 2.2309	-2.1054	 5.1546	 3.0493	-1.9729	 5.1894	 3.2165	53.0179	99.9242	
   623	-2.5755	 4.8446	 2.2692	-2.3545	 5.2685	 2.9141	-2.0804	 5.3347	 3.2543	52.8669	99.9023	
   624	-2.7075	 4.9745	 2.2670	-2.4708	 5.3548	 2.8841	-2.1665	 5.3764	 3.2100	53.0816	99.9019	
   625	-2.9423	 4.9987	 2.0564	-2.6713	 5.4256	 2.7544	-2.3508	 5.4416	 3.0908	52.9046	99.9066	
   626	-3.0849	 5.0798	 1.9950	-2.7692	 5.4990	 2.7298	-2.4962	 5.5099	 3.0137	52.7753	99.9124	
   627	-3.0531	 5.1134	 2.0603	-2.7136	 5.5697	 2.8562	-2.4220	 5.5458	 3.1238	52.8789	99.9176	
   628	-3.0570	 5.1673	 2.1103	-2.7214	 5.6499	 2.9287	-2.5061	 5.6207	 3.1147	52.5485	99.9244	
   629	-3.5459	 5.1477	 1.6018	-3.1162	 5.6861	 2.5700	-2.9542	 5.6265	 2.6723	52.2506	99.9377	
   630	-4.0300	 5.0889	 1.0589	-3.5241	 5.6171	 2.0931	-3.2916	 5.5423	 2.2507	52.4399	99.9379	
   631	-4.0878	 5.1096	 1.0219	-3.5723	 5.5631	 1.9909	-3.3609	 5.4029	 2.0420	52.8682	99.9411	
   632	-3.9461	 4.9014	 0.9553	-3.5713	 5.2722	 1.7010	-3.4288	 5.1048	 1.6760	52.8491	99.9341	
   633	-3.8939	 4.6802	 0.7863	-3.5511	 4.9809	 1.4299	-3.3886	 4.8533	 1.4646	53.1291	99.9241	
   634	-3.7050	 4.4026	 0.6976	-3.3628	 4.6108	 1.2481	-3.1086	 4.5396	 1.4310	53.8542	99.9070	
   635	-3.3631	 4.2050	 0.8419	-3.0652	 4.4540	 1.3889	-2.8050	 4.4323	 1.6273	53.8496	99.9024	
   636	-3.1254	 4.2247	 1.0993	-2.8501	 4.5136	 1.6636	-2.5794	 4.4995	 1.9201	53.8105	99.9025	
   637	-3.0099	 4.1833	 1.1734	-2.7114	 4.4775	 1.7662	-2.4710	 4.4612	 1.9902	53.8945	99.9065	
   638	-2.9444	 4.1673	 1.2229	-2.6080	 4.4927	 1.8848	-2.4172	 4.5270	 2.1098	53.6533	99.9101	
   639	-2.8867	 4.2591	 1.3723	-2.5323	 4.5757	 2.0435	-2.3366	 4.5776	 2.2410	53.8172	99.9129	
   640	-2.9329	 4.2306	 1.2977	-2.6056	 4.5306	 1.9251	-2.4236	 4.5123	 2.0887	53.8180	99.9127	
   641	-2.8068	 4.2379	 1.4310	-2.4195	 4.5359	 2.1164	-2.1777	 4.5497	 2.3720	54.1244	99.9093	
   642	-2.5614	 4.2623	 1.7009	-2.2009	 4.5490	 2.3482	-1.9352	 4.5319	 2.5967	54.4048	99.9079	
   643	-2.5123	 4.2222	 1.7099	-2.1739	 4.4685	 2.2946	-1.9469	 4.4287	 2.4817	54.5148	99.9082	
   644	-2.7278	 4.0896	 1.3618	-2.3636	 4.3030	 1.9395	-2.2049	 4.1920	 1.9872	54.7022	99.9178	
   645	-2.9470	 3.8983	 0.9513	-2.5576	 4.1713	 1.6138	-2.6017	 3.8576	 1.2559	54.7025	99.9487	
   646	-3.2711	 3.5722	 0.3011	-2.8359	 3.8176	 0.9818	-3.0259	 3.5271	 0.5013	54.4810	99.9555	
   647	-3.5049	 3.4986	-0.0063	-3.1925	 3.6465	 0.4541	-3.3614	 3.3801	 0.0187	54.3421	99.9425	
   648	-3.8611	 3.5889	-0.2722	-3.6658	 3.6588	-0.0069	-3.8262	 3.3861	-0.4401	53.9930	99.9324	
   649	-4.9119	 3.4485	-1.4635	-4.9744	 3.4236	-1.5507	-5.3117	 2.9955	-2.3162	52.9378	99.9360	
   650	-6.5081	 2.8739	-3.6342	-6.5108	 2.9267	-3.5839	-6.7341	 2.5488	-4.1853	52.2706	99.9333	
   651	-7.2163	 2.6630	-4.5533	-7.1522	 2.8111	-4.3410	-7.2354	 2.4998	-4.7355	51.9560	99.9289	
   652	-7.2999	 2.5131	-4.7868	-7.2244	 2.4750	-4.7494	-7.3813	 1.9185	-5.4628	53.3726	99.9406	
   653	-7.2563	 2.2726	-4.9838	-7.3625	 2.1104	-5.2520	-7.7217	 1.4172	-6.3045	53.4018	99.9459	
   654	-7.5726	 1.8387	-5.7339	-7.7298	 1.6655	-6.0643	-8.1327	 1.0312	-7.1014	53.0664	99.9413	
   655	-7.7177	 1.6508	-6.0669	-7.8827	 1.4741	-6.4086	-8.3012	 0.8082	-7.4930	53.1784	99.9438	
   656	-7.7531	 1.4461	-6.3070	-7.9044	 1.2299	-6.6744	-8.3671	 0.5433	-7.8237	53.4690	99.9463	
   657	-7.8021	 1.3737	-6.4284	-7.9487	 1.2391	-6.7095	-8.3929	 0.6655	-7.7274	52.8350	99.9422	
   658	-7.7169	 1.7780	-5.9389	-7.8536	 1.7350	-6.1185	-8.2067	 1.2721	-6.9346	52.1079	99.9346	
   659	-7.5547	 2.2296	-5.3251	-7.6967	 2.1962	-5.5004	-8.0281	 1.6611	-6.3670	52.1180	99.9390	
   660	-7.5625	 2.3374	-5.2251	-7.7671	 2.2986	-5.4684	-8.1153	 1.7766	-6.3386	51.7375	99.9356	
   661	-7.5925	 2.5581	-5.0345	-7.7596	 2.5219	-5.2375	-8.1158	 2.0424	-6.0734	51.4472	99.9353	
   662	-7.6628	 2.6133	-5.0496	-7.8516	 2.5868	-5.2647	-8.1616	 2.1094	-6.0521	51.3762	99.9316	
   663	-7.6109	 2.6171	-4.9937	-7.7105	 2.5886	-5.1219	-7.9790	 2.1071	-5.8719	51.8477	99.9339	
   664	-7.4393	 2.4132	-5.0262	-7.5341	 2.2356	-5.2983	-7.8159	 1.5070	-6.3089	53.5932	99.9435	
   665	-7.3081	 2.0437	-5.2644	-7.4316	 1.8249	-5.6067	-7.7486	 1.1555	-6.5931	53.7676	99.9375	
   666	-7.2491	 1.8126	-5.4365	-7.4389	 1.5045	-5.9342	-7.8520	 0.7286	-7.1233	54.2611	99.9422	
   667	-7.4884	 1.4261	-6.0623	-7.6831	 1.1840	-6.4990	-8.1035	 0.5067	-7.5968	53.7614	99.9392	
   668	-7.6270	 1.4534	-6.1737	-7.8159	 1.2115	-6.6043	-8.2394	 0.5491	-7.6903	53.5754	99.9387	
   669	-7.7532	 1.5586	-6.1946	-7.9384	 1.4033	-6.5350	-8.3337	 0.8197	-7.5140	52.8537	99.9367	
   670	-7.7487	 1.8569	-5.8918	-7.9312	 1.7237	-6.2074	-8.2473	 1.1508	-7.0964	52.7233	99.9324	
   671	-7.6289	 2.3387	-5.2902	-7.7847	 2.3242	-5.4604	-8.0880	 1.9535	-6.1345	51.3411	99.9253	
   672	-7.2918	 3.0950	-4.1968	-7.2687	 3.2010	-4.0676	-7.3729	 2.8818	-4.4911	51.5157	99.9263	
   673	-6.6048	 3.3209	-3.2839	-6.5548	 3.3491	-3.2056	-6.6666	 2.9318	-3.7348	52.5333	99.9307	
   674	-5.9793	 3.3964	-2.5828	-5.9796	 3.5334	-2.4461	-6.0405	 3.3039	-2.7366	51.9156	99.9168	
   675	-4.8357	 4.1708	-0.6648	-4.6475	 4.4512	-0.1962	-4.3998	 4.4307	 0.0309	52.3811	99.8991	
   676	-3.8420	 4.7966	 0.9545	-3.4903	 5.0304	 1.5402	-3.0344	 5.0333	 1.9988	53.6911	99.8888	
   677	-3.1268	 4.6600	 1.5332	-2.7076	 5.0509	 2.3435	-2.5117	 4.9785	 2.4668	53.5085	99.9272	
   678	-2.7455	 4.5008	 1.7553	-2.2500	 4.9926	 2.7427	-2.0832	 5.0136	 2.9304	53.3962	99.9319	
   679	-2.6051	 4.6154	 2.0103	-2.3217	 4.9727	 2.6511	-2.0744	 4.9766	 2.9022	53.5390	99.9081	
   680	-2.6503	 4.6016	 1.9513	-2.4867	 4.8954	 2.4088	-2.2579	 4.8719	 2.6140	53.4393	99.9001	
   681	-3.0063	 4.4669	 1.4606	-2.8785	 4.7755	 1.8971	-2.6836	 4.7002	 2.0166	53.2262	99.9057	
   682	-3.3844	 4.3326	 0.9482	-3.1928	 4.6670	 1.4743	-3.0683	 4.5649	 1.4966	53.0503	99.9181	
   683	-3.5576	 4.2822	 0.7246	-3.3695	 4.6067	 1.2373	-3.3277	 4.4870	 1.1593	52.8173	99.9240	
   684	-3.6875	 4.2164	 0.5289	-3.5137	 4.5543	 1.0407	-3.5136	 4.4341	 0.9204	52.5763	99.9268	
   685	-3.6162	 4.1758	 0.5596	-3.4467	 4.4984	 1.0518	-3.4533	 4.3336	 0.8804	52.8290	99.9292	
   686	-3.5007	 4.1344	 0.6337	-3.3715	 4.4718	 1.1004	-3.3991	 4.3145	 0.9154	52.6990	99.9287	
   687	-3.4718	 4.1240	 0.6522	-3.3339	 4.4585	 1.1247	-3.3665	 4.3030	 0.9365	52.7424	99.9292	
   688	-3.4516	 4.0943	 0.6427	-3.3096	 4.4370	 1.1275	-3.3462	 4.2732	 0.9270	52.7815	99.9307	
   689	-3.4313	 4.0645	 0.6332	-3.2944	 4.3735	 1.0792	-3.3655	 4.2291	 0.8637	52.7564	99.9291	
   690	-3.4842	 4.0460	 0.5618	-3.3728	 4.3496	 0.9769	-3.4244	 4.1708	 0.7465	52.8492	99.9288	
   691	-3.5160	 4.0124	 0.4964	-3.3951	 4.2993	 0.9043	-3.4870	 4.1421	 0.6551	52.7496	99.9292	
   692	-3.4023	 3.9417	 0.5393	-3.3039	 4.2219	 0.9181	-3.3775	 4.0300	 0.6525	53.0170	99.9289	
   693	-3.3176	 3.8813	 0.5637	-3.2577	 4.1410	 0.8834	-3.3873	 3.9600	 0.5727	52.8923	99.9283	
   694	-3.3118	 3.8567	 0.5449	-3.2526	 4.1198	 0.8673	-3.3988	 3.9527	 0.5539	52.8090	99.9285	
   695	-3.3137	 3.8274	 0.5137	-3.2609	 4.0905	 0.8297	-3.4181	 3.9087	 0.4906	52.8318	99.9299	
   696	-3.3752	 3.7895	 0.4143	-3.3400	 4.0538	 0.7139	-3.4821	 3.8578	 0.3758	52.8546	99.9291	
   697	-3.4069	 3.7559	 0.3489	-3.3749	 4.0080	 0.6332	-3.5555	 3.8329	 0.2774	52.7101	99.9291	
   698	-3.4811	 3.7525	 0.2714	-3.4325	 4.0090	 0.5766	-3.6003	 3.8261	 0.2259	52.7541	99.9300	
   699	-3.3925	 3.7507	 0.3582	-3.3122	 3.9859	 0.6738	-3.4464	 3.8057	 0.3593	53.0695	99.9280	
   700	-3.1894	 3.6928	 0.5035	-3.1360	 3.9365	 0.8007	-3.2940	 3.7631	 0.4692	53.0695	99.9280	
   701	-3.1335	 3.6428	 0.5093	-3.1074	 3.8812	 0.7739	-3.2821	 3.6855	 0.4034	53.1199	99.9289	
   702	-3.1652	 3.6092	 0.4440	-3.1474	 3.8566	 0.7093	-3.3274	 3.6676	 0.3401	53.0322	99.9289	
   703	-3.1893	 3.5803	 0.3911	-3.1740	 3.8402	 0.6663	-3.3728	 3.6497	 0.2769	52.9402	99.9308	
   704	-3.2557	 3.5817	 0.3260	-3.2516	 3.8289	 0.5774	-3.4578	 3.6176	 0.1598	52.9507	99.9314	
   705	-3.3298	 3.5783	 0.2485	-3.3100	 3.8172	 0.5073	-3.5236	 3.6295	 0.1060	52.8709	99.9305	
   706	-3.2422	 3.5618	 0.3197	-3.1897	 3.7941	 0.6045	-3.3589	 3.6052	 0.2463	53.1952	99.9290	
   707	-3.0381	 3.5186	 0.4805	-2.9809	 3.7526	 0.7718	-3.1777	 3.5808	 0.4031	53.2513	99.9298	
   708	-2.9514	 3.4876	 0.5361	-2.9316	 3.7223	 0.7908	-3.1095	 3.5171	 0.4076	53.3980	99.9291	
   709	-2.9841	 3.4393	 0.4552	-2.9665	 3.6765	 0.7101	-3.1888	 3.4886	 0.2999	53.2145	99.9306	
   710	-3.0284	 3.4402	 0.4118	-2.9923	 3.6727	 0.6804	-3.2213	 3.5001	 0.2788	53.1788	99.9306	
   711	-3.0592	 3.4212	 0.3621	-3.0390	 3.6439	 0.6051	-3.2636	 3.4416	 0.1780	53.2737	99.9311	
   712	-3.1121	 3.4027	 0.2906	-3.0907	 3.6364	 0.5458	-3.3083	 3.4348	 0.1265	53.2338	99.9313	
   713	-3.0765	 3.3825	 0.3060	-3.0280	 3.6142	 0.5863	-3.2311	 3.4301	 0.1990	53.3420	99.9304	
   714	-2.8560	 3.3634	 0.5073	-2.7918	 3.6018	 0.8101	-2.9394	 3.4005	 0.4611	53.7550	99.9294	
   715	-2.6529	 3.3055	 0.6526	-2.6163	 3.5398	 0.9236	-2.8310	 3.3622	 0.5313	53.6164	99.9300	
   716	-2.6490	 3.2516	 0.6026	-2.6328	 3.4811	 0.8484	-2.8516	 3.2960	 0.4445	53.6364	99.9294	
   717	-2.6875	 3.2279	 0.5405	-2.6602	 3.4520	 0.7919	-2.8868	 3.2633	 0.3765	53.6682	99.9304	
   718	-2.7183	 3.2090	 0.4907	-2.6685	 3.4226	 0.7543	-2.8888	 3.2301	 0.3413	53.7915	99.9308	
   719	-2.7355	 3.1702	 0.4347	-2.7100	 3.3727	 0.6628	-2.9413	 3.1865	 0.2452	53.7281	99.9291	
   720	-2.7817	 3.1418	 0.3601	-2.7551	 3.3693	 0.6143	-2.9426	 3.1643	 0.2217	53.8234	99.9293	
   721	-2.6344	 3.1340	 0.4995	-2.5522	 3.3363	 0.7843	-2.7217	 3.1541	 0.4324	54.1513	99.9278	
   722	-2.4082	 3.0903	 0.6821	-2.3426	 3.3075	 0.9650	-2.5188	 3.1220	 0.6032	54.2456	99.9284	
   723	-2.3090	 3.0247	 0.7157	-2.2756	 3.2515	 0.9760	-2.4513	 3.0473	 0.5959	54.3136	99.9286	
   724	-2.3273	 2.9713	 0.6441	-2.2921	 3.1928	 0.9008	-2.4987	 2.9962	 0.4975	54.2553	99.9297	
   725	-2.3869	 2.9627	 0.5758	-2.3329	 3.1555	 0.8228	-2.5441	 2.9783	 0.4342	54.2912	99.9278	
   726	-2.3965	 2.9287	 0.5322	-2.3595	 3.1391	 0.7797	-2.5685	 2.9417	 0.3733	54.2800	99.9293	
   727	-2.4350	 2.9050	 0.4700	-2.4003	 3.1019	 0.7017	-2.6247	 2.9277	 0.3030	54.1892	99.9276	
   728	-2.4061	 2.8946	 0.4885	-2.3184	 3.0794	 0.7611	-2.4939	 2.8928	 0.3989	54.5875	99.9275	
   729	-2.1943	 2.8562	 0.6618	-2.1096	 3.0379	 0.9284	-2.2744	 2.8604	 0.5861	54.7712	99.9256	
   730	-2.0490	 2.8190	 0.7701	-1.9768	 3.0104	 1.0336	-2.1327	 2.8217	 0.6889	54.9005	99.9258	
   731	-2.0017	 2.7496	 0.7479	-1.9491	 2.9424	 0.9935	-2.1144	 2.7587	 0.6443	54.8899	99.9250	
   732	-2.0200	 2.6962	 0.6762	-1.9597	 2.8751	 0.9156	-2.1574	 2.6891	 0.5317	54.9084	99.9267	
   733	-2.0459	 2.6380	 0.5921	-2.0012	 2.8252	 0.8241	-2.1933	 2.6453	 0.4520	54.8616	99.9256	
   734	-2.0680	 2.6384	 0.5704	-2.0138	 2.8297	 0.8160	-2.1926	 2.6563	 0.4638	54.8723	99.9250	
   735	-2.1133	 2.6247	 0.5114	-2.0169	 2.7791	 0.7623	-2.2169	 2.6198	 0.4028	54.9877	99.9252	
   736	-1.9900	 2.5880	 0.5979	-1.9084	 2.7731	 0.8648	-2.0306	 2.5878	 0.5572	55.2634	99.9233	
   737	-1.7994	 2.5646	 0.7652	-1.7055	 2.7401	 1.0347	-1.8334	 2.5521	 0.7186	55.4778	99.9239	
   738	-1.7282	 2.5240	 0.7959	-1.6452	 2.6801	 1.0350	-1.7927	 2.4925	 0.6997	55.5435	99.9232	
   739	-1.7243	 2.4702	 0.7459	-1.6601	 2.6466	 0.9866	-1.7954	 2.4482	 0.6528	55.5402	99.9235	
   740	-1.7704	 2.4417	 0.6713	-1.7017	 2.5967	 0.8951	-1.8536	 2.4010	 0.5473	55.5632	99.9232	
   741	-1.8243	 2.4086	 0.5843	-1.7416	 2.5721	 0.8305	-1.9099	 2.3869	 0.4771	55.4806	99.9247	
   742	-1.8618	 2.3995	 0.5377	-1.7808	 2.5601	 0.7794	-1.9495	 2.3727	 0.4232	55.4739	99.9247	
   743	-1.8926	 2.3806	 0.4880	-1.7765	 2.5263	 0.7499	-1.9393	 2.3578	 0.4185	55.5665	99.9237	
   744	-1.7318	 2.3529	 0.6211	-1.5987	 2.5022	 0.9036	-1.6930	 2.3103	 0.6173	56.0039	99.9222	
   745	-1.5499	 2.3102	 0.7603	-1.4408	 2.4658	 1.0251	-1.5616	 2.2865	 0.7249	55.9645	99.9220	
   746	-1.5364	 2.2903	 0.7539	-1.4306	 2.4234	 0.9929	-1.5483	 2.2309	 0.6826	56.1129	99.9211	
   747	-1.5537	 2.2515	 0.6978	-1.4573	 2.4070	 0.9498	-1.5828	 2.2092	 0.6264	56.0276	99.9230	
   748	-1.5922	 2.2279	 0.6357	-1.4981	 2.3698	 0.8718	-1.6411	 2.1620	 0.5209	56.0483	99.9239	
   749	-1.6451	 2.2093	 0.5643	-1.5380	 2.3451	 0.8072	-1.6654	 2.1254	 0.4600	56.1671	99.9241	
   750	-1.7048	 2.2008	 0.4960	-1.5913	 2.3123	 0.7211	-1.7606	 2.1082	 0.3476	56.0658	99.9244	
   751	-1.7355	 2.1818	 0.4463	-1.5855	 2.3038	 0.7184	-1.7064	 2.0890	 0.3826	56.2921	99.9248	
   752	-1.5449	 2.1584	 0.6135	-1.4076	 2.2797	 0.8722	-1.4811	 2.0603	 0.5792	56.5566	99.9212	
   753	-1.3851	 2.1161	 0.7310	-1.2497	 2.2433	 0.9936	-1.3395	 2.0215	 0.6821	56.6414	99.9227	
   754	-1.3504	 2.0812	 0.7307	-1.2329	 2.2051	 0.9722	-1.3422	 1.9773	 0.6351	56.6267	99.9232	
   755	-1.3889	 2.0575	 0.6686	-1.2729	 2.1804	 0.9076	-1.3499	 1.9405	 0.5905	56.7482	99.9219	
   756	-1.4120	 2.0433	 0.6313	-1.2803	 2.1637	 0.8834	-1.3621	 1.9222	 0.5601	56.7877	99.9230	
   757	-1.4139	 2.0140	 0.6001	-1.2643	 2.1128	 0.8486	-1.3635	 1.9000	 0.5366	56.7877	99.9214	
   758	-1.4100	 1.9601	 0.5501	-1.2549	 2.0578	 0.8030	-1.3756	 1.8817	 0.5061	56.6691	99.9201	
   759	-1.4033	 1.9502	 0.5469	-1.2224	 2.0657	 0.8434	-1.2767	 1.8694	 0.5927	56.9378	99.9199	
   760	-1.2117	 1.9415	 0.7298	-1.0238	 2.0666	 1.0429	-1.0501	 1.8628	 0.8127	57.1625	99.9197	
   761	-1.0433	 1.9185	 0.8753	-0.8393	 2.0466	 1.2074	-0.8407	 1.8453	 1.0046	57.3859	99.9188	
   762	-0.8960	 1.9107	 1.0147	-0.6383	 2.0854	 1.4472	-0.5749	 1.9379	 1.3630	57.4578	99.9163	
   763	-0.7189	 1.9072	 1.1883	-0.3480	 2.1184	 1.7706	-0.1725	 1.9991	 1.8266	57.9407	99.9153	
   764	-0.5407	 1.8058	 1.2650	-0.0691	 2.0715	 2.0026	 0.1341	 2.0321	 2.1661	58.0138	99.9162	
   765	-0.4205	 1.8376	 1.4172	 0.1503	 2.0973	 2.2478	 0.3543	 2.0108	 2.3651	58.4973	99.9248	
   766	-0.3203	 1.7867	 1.4664	 0.2197	 2.0793	 2.2991	 0.4423	 2.0023	 2.4446	58.4306	99.9233	
   767	-0.2914	 1.7763	 1.4849	 0.2706	 2.0742	 2.3449	 0.5419	 2.0010	 2.5429	58.6041	99.9214	
   768	-0.1461	 1.7392	 1.5931	 0.4293	 2.0505	 2.4798	 0.7469	 2.0021	 2.7489	58.7477	99.9180	
   769	 0.0522	 1.7206	 1.7728	 0.6722	 2.0421	 2.7144	 1.0074	 2.0061	 3.0134	58.9669	99.9189	
   770	 0.1745	 1.6692	 1.8437	 0.8241	 2.0143	 2.8385	 1.1388	 1.9822	 3.1210	59.0167	99.9230	
   771	 0.1698	 1.5959	 1.7657	 0.7943	 1.9473	 2.7417	 1.0857	 1.9276	 3.0132	58.8921	99.9225	
   772	 0.0793	 1.5684	 1.6477	 0.7344	 1.9104	 2.6449	 1.0390	 1.8876	 2.9265	59.0064	99.9229	
   773	 0.0909	 1.5193	 1.6102	 0.7520	 1.8848	 2.6369	 1.0159	 1.8731	 2.8890	58.8526	99.9264	
   774	 0.0159	 1.5012	 1.5171	 0.6744	 1.8734	 2.5480	 0.9431	 1.8593	 2.8024	58.8109	99.9266	
   775	-0.0198	 1.5215	 1.5017	 0.6693	 1.8946	 2.5640	 0.9834	 1.8846	 2.8680	58.9420	99.9251	
   776	 0.1149	 1.5481	 1.6631	 0.8170	 1.9005	 2.7177	 1.1494	 1.8824	 3.0318	59.1782	99.9239	
   777	 0.2555	 1.5502	 1.8057	 0.9322	 1.8986	 2.8309	 1.2592	 1.8663	 3.1254	59.2508	99.9237	
   778	 0.2709	 1.5597	 1.8305	 0.9631	 1.8812	 2.8445	 1.2700	 1.8624	 3.1324	59.2861	99.9231	
   779	 0.3286	 1.5390	 1.8676	 0.9631	 1.8812	 2.8445	 1.2578	 1.8441	 3.1019	59.1601	99.9235	
   780	 0.2314	 1.5213	 1.7528	 0.8848	 1.8572	 2.7421	 1.1901	 1.8229	 3.0129	59.1975	99.9232	
   781	 0.2324	 1.5360	 1.7684	 0.9181	 1.8778	 2.7959	 1.2246	 1.8446	 3.0692	59.2448	99.9251	
   782	 0.2776	 1.5498	 1.8274	 0.9447	 1.8942	 2.8390	 1.2253	 1.8556	 3.0809	59.1621	99.9263	
   783	 0.3007	 1.5640	 1.8647	 0.9839	 1.9062	 2.8902	 1.2923	 1.8658	 3.1582	59.2861	99.9254	
   784	 0.4412	 1.5661	 2.0073	 1.1242	 1.8954	 3.0196	 1.4187	 1.8494	 3.2682	59.4000	99.9258	
   785	 0.5057	 1.5354	 2.0412	 1.1735	 1.8650	 3.0386	 1.4614	 1.8231	 3.2845	59.3981	99.9251	
   786	 0.4961	 1.5014	 1.9975	 1.1343	 1.8530	 2.9875	 1.4435	 1.8011	 3.2446	59.3588	99.9244	
   787	 0.4297	 1.5027	 1.9324	 1.1002	 1.8199	 2.9202	 1.3757	 1.7799	 3.1556	59.3883	99.9251	
   788	 0.3922	 1.4937	 1.8859	 1.0610	 1.8079	 2.8690	 1.3521	 1.7543	 3.1064	59.4612	99.9249	
   789	 0.3537	 1.4700	 1.8237	 1.0152	 1.7918	 2.8071	 1.3111	 1.7179	 3.0290	59.4928	99.9262	
   790	 0.2864	 1.4567	 1.7430	 0.9192	 1.7934	 2.7127	 1.2332	 1.7116	 2.9447	59.4121	99.9252	
   791	 0.2363	 1.4821	 1.7184	 0.9192	 1.7934	 2.7127	 1.2677	 1.7333	 3.0010	59.5790	99.9224	
   792	 0.4143	 1.4932	 1.9076	 1.1186	 1.8069	 2.9256	 1.4618	 1.7381	 3.2000	59.7413	99.9246	
   793	 0.5385	 1.4712	 2.0097	 1.2381	 1.7712	 3.0094	 1.5601	 1.7147	 3.2748	59.7786	99.9238	
   794	 0.5741	 1.4509	 2.0251	 1.2506	 1.7667	 3.0175	 1.5709	 1.7109	 3.2818	59.7022	99.9237	
   795	 0.5588	 1.4414	 2.0002	 1.2365	 1.7459	 2.9825	 1.5472	 1.6854	 3.2326	59.7340	99.9240	
   796	 0.5212	 1.4324	 1.9536	 1.1981	 1.7465	 2.9448	 1.5249	 1.6820	 3.2068	59.7358	99.9239	
   797	 0.5049	 1.4083	 1.9132	 1.1781	 1.7342	 2.9125	 1.4954	 1.6528	 3.1482	59.7303	99.9262	
   798	 0.4173	 1.4247	 1.8420	 1.1072	 1.7270	 2.8343	 1.4182	 1.6575	 3.0757	59.7266	99.9252	
   799	 0.3951	 1.4251	 1.8203	 1.0822	 1.7358	 2.8181	 1.4073	 1.6613	 3.0687	59.7285	99.9250	
   800	 0.5058	 1.4229	 1.9288	 1.1981	 1.7465	 2.9448	 1.5357	 1.6781	 3.2138	59.7786	99.9249	
   801	 0.6540	 1.4298	 2.0838	 1.3517	 1.7439	 3.0957	 1.7125	 1.6722	 3.3847	59.9774	99.9233	
   802	 0.7118	 1.4090	 2.1209	 1.3893	 1.7306	 3.1201	 1.7437	 1.6385	 3.3823	60.0093	99.9246	
   803	 0.6887	 1.3948	 2.0836	 1.3685	 1.7057	 3.0743	 1.7092	 1.6168	 3.3260	60.0041	99.9247	
   804	 0.6512	 1.3858	 2.0370	 1.3352	 1.6852	 3.0205	 1.6689	 1.5915	 3.2604	60.0362	99.9250	
   805	 0.6204	 1.3668	 1.9873	 1.2835	 1.6776	 2.9612	 1.6235	 1.5737	 3.1972	59.9936	99.9250	
   806	 0.5752	 1.3531	 1.9283	 1.2494	 1.6445	 2.8940	 1.5673	 1.5596	 3.1269	59.9509	99.9243	
   807	 0.5155	 1.3445	 1.8600	 1.1793	 1.6499	 2.8292	 1.5117	 1.5566	 3.0684	59.9117	99.9244	
   808	 0.5396	 1.3734	 1.9129	 1.2635	 1.6653	 2.9289	 1.6445	 1.5549	 3.1995	60.2685	99.9249	
   809	 0.7369	 1.3401	 2.0770	 1.4355	 1.6497	 3.0853	 1.7997	 1.5566	 3.3563	60.1990	99.9244	
   810	 0.7956	 1.3340	 2.1296	 1.4982	 1.6276	 3.1259	 1.8424	 1.5302	 3.3726	60.2701	99.9251	
   811	 0.7793	 1.3099	 2.0892	 1.4707	 1.5986	 3.0694	 1.8078	 1.5085	 3.3164	60.2278	99.9241	
   812	 0.7629	 1.2857	 2.0487	 1.4374	 1.5780	 3.0155	 1.7733	 1.4868	 3.2601	60.1854	99.9236	
   813	 0.7177	 1.2720	 1.9897	 1.3857	 1.5705	 2.9563	 1.7279	 1.4690	 3.1969	60.1820	99.9241	
   814	 0.6513	 1.2733	 1.9246	 1.3273	 1.5588	 2.8862	 1.6507	 1.4736	 3.1243	60.1022	99.9236	
   815	 0.5984	 1.2548	 1.8532	 1.2447	 1.5686	 2.8134	 1.5945	 1.4596	 3.0541	60.0613	99.9240	
   816	 0.5993	 1.2694	 1.8688	 1.2831	 1.5680	 2.8511	 1.6283	 1.4702	 3.0986	60.1430	99.9244	
   817	 0.7764	 1.2659	 2.0423	 1.4684	 1.5606	 3.0291	 1.8377	 1.4528	 3.2905	60.3803	99.9238	
   818	 0.8939	 1.2538	 2.1476	 1.5761	 1.5420	 3.1181	 1.9359	 1.4294	 3.3653	60.4548	99.9238	
   819	 0.8785	 1.2443	 2.1228	 1.5878	 1.5249	 3.1128	 1.9258	 1.4443	 3.3700	60.3835	99.9237	
   820	 0.8631	 1.2348	 2.0979	 1.5236	 1.5218	 3.0454	 1.8784	 1.3932	 3.2716	60.4451	99.9241	
   821	 0.7880	 1.2168	 2.0048	 1.4703	 1.4889	 2.9593	 1.8113	 1.3830	 3.1943	60.4061	99.9235	
   822	 0.7880	 1.2168	 2.0048	 1.4703	 1.4889	 2.9593	 1.7998	 1.3757	 3.1756	60.4029	99.9248	
   823	 0.7496	 1.1931	 1.9426	 1.4052	 1.4732	 2.8785	 1.7263	 1.3509	 3.0772	60.3182	99.9251	
   824	 0.6985	 1.2039	 1.9024	 1.3927	 1.4776	 2.8704	 1.7117	 1.3843	 3.0960	60.2891	99.9247	
   825	 0.8092	 1.2017	 2.0109	 1.5087	 1.4883	 2.9970	 1.8771	 1.3711	 3.2481	60.5278	99.9244	
   826	 0.9344	 1.1943	 2.1286	 1.6231	 1.4737	 3.0968	 1.9875	 1.3659	 3.3534	60.5682	99.9229	
   827	 0.9478	 1.1744	 2.1223	 1.6215	 1.4484	 3.0700	 1.9625	 1.3183	 3.2807	60.5945	99.9249	
   828	 0.9103	 1.1654	 2.0757	 1.5948	 1.4320	 3.0269	 1.9394	 1.3038	 3.2432	60.6318	99.9246	
   829	 0.9094	 1.1508	 2.0601	 1.5748	 1.4197	 2.9946	 1.8998	 1.2896	 3.1894	60.5492	99.9252	
   830	 0.8497	 1.1422	 1.9919	 1.5223	 1.3995	 2.9219	 1.8551	 1.2828	 3.1379	60.5492	99.9233	
   831	 0.7910	 1.1482	 1.9392	 1.4597	 1.4216	 2.8814	 1.7894	 1.2947	 3.0840	60.4712	99.9251	
   832	 0.7178	 1.1595	 1.8773	 1.4021	 1.4226	 2.8248	 1.7447	 1.2879	 3.0325	60.5460	99.9251	
   833	 0.8285	 1.1573	 1.9858	 1.5306	 1.4289	 2.9595	 1.8998	 1.2896	 3.1894	60.7096	99.9252	
   834	 0.9767	 1.1641	 2.1408	 1.6708	 1.4181	 3.0890	 2.0275	 1.2953	 3.3228	60.7500	99.9232	
   835	 1.0201	 1.1485	 2.1686	 1.7076	 1.3921	 3.0999	 2.0262	 1.2732	 3.2993	60.7050	99.9242	
   836	 1.0105	 1.1145	 2.1250	 1.6751	 1.3843	 3.0595	 2.0082	 1.2513	 3.2595	60.6661	99.9248	
   837	 0.9874	 1.1003	 2.0877	 1.6485	 1.3678	 3.0164	 1.9852	 1.2368	 3.2220	60.6645	99.9241	
   838	 0.9652	 1.1007	 2.0660	 1.6109	 1.3811	 2.9921	 1.9527	 1.2483	 3.2010	60.5882	99.9239	
   839	 0.9152	 1.1262	 2.0414	 1.5983	 1.3856	 2.9840	 1.9202	 1.2598	 3.1799	60.6256	99.9253	
   840	 0.8709	 1.1271	 1.9980	 1.5106	 1.4166	 2.9272	 1.8551	 1.2828	 3.1379	60.4728	99.9242	
   841	 0.9026	 1.1607	 2.0633	 1.6074	 1.4276	 3.0350	 1.9625	 1.3183	 3.2807	60.6397	99.9236	
   842	 1.0653	 1.1623	 2.2276	 1.7492	 1.4420	 3.1913	 2.1169	 1.3089	 3.4258	60.7561	99.9243	
   843	 1.1307	 1.1463	 2.2771	 1.7993	 1.4243	 3.2238	 2.1379	 1.2902	 3.4281	60.7127	99.9253	
   844	 1.0942	 1.1520	 2.2461	 1.7735	 1.4206	 3.1941	 2.1054	 1.3017	 3.4071	60.6754	99.9245	
   845	 1.1086	 1.1468	 2.2554	 1.7743	 1.4332	 3.2075	 2.1156	 1.2868	 3.4024	60.7112	99.9264	
   846	 1.0720	 1.1524	 2.2244	 1.7468	 1.4041	 3.1510	 2.0485	 1.2766	 3.3251	60.6645	99.9258	
   847	 1.0114	 1.1292	 2.1406	 1.6684	 1.3802	 3.0487	 1.9635	 1.2444	 3.2080	60.6177	99.9258	
   848	 0.9662	 1.1154	 2.0816	 1.6109	 1.3811	 2.9921	 1.9080	 1.2415	 3.1494	60.5396	99.9263	
   849	 0.9450	 1.1305	 2.0755	 1.5925	 1.3941	 2.9866	 1.9080	 1.2415	 3.1494	60.6162	99.9261	
   850	 1.0846	 1.1179	 2.2025	 1.7452	 1.3789	 3.1242	 2.0631	 1.2432	 3.3063	60.7019	99.9252	
   851	 1.1818	 1.1355	 2.3173	 1.8420	 1.3899	 3.2320	 2.1583	 1.2604	 3.4187	60.7439	99.9244	
   852	 1.2106	 1.1252	 2.3358	 1.8612	 1.3896	 3.2509	 2.1583	 1.2604	 3.4187	60.6661	99.9256	
   853	 1.2030	 1.1204	 2.3234	 1.8495	 1.4066	 3.2562	 2.1698	 1.2676	 3.4374	60.6708	99.9261	
   854	 1.1972	 1.1450	 2.3422	 1.8636	 1.4275	 3.2911	 2.1928	 1.2821	 3.4749	60.7500	99.9268	
   855	 1.1972	 1.1450	 2.3422	 1.8444	 1.4278	 3.2723	 2.1481	 1.2753	 3.4234	60.6661	99.9279	
   856	 1.1384	 1.1511	 2.2895	 1.7735	 1.4206	 3.1941	 2.0709	 1.2800	 3.3509	60.5850	99.9260	
   857	 1.0778	 1.1278	 2.2057	 1.6834	 1.4136	 3.0971	 1.9974	 1.2551	 3.2525	60.5412	99.9258	
   858	 1.0788	 1.1425	 2.2213	 1.7284	 1.4171	 3.1456	 2.0384	 1.2915	 3.3298	60.5524	99.9252	
   859	 1.2414	 1.1441	 2.3856	 1.8694	 1.4189	 3.2885	 2.1820	 1.2859	 3.4679	60.6303	99.9245	
   860	 1.3146	 1.1329	 2.4475	 1.9396	 1.4135	 3.3532	 2.2477	 1.2740	 3.5217	60.6692	99.9254	
   861	 1.2906	 1.1040	 2.3946	 1.9196	 1.4012	 3.3209	 2.2043	 1.2893	 3.4937	60.4825	99.9260	
   862	 1.1934	 1.0864	 2.2798	 1.8244	 1.4155	 3.2400	 2.1278	 1.3051	 3.4329	60.3737	99.9268	
   863	 1.1221	 1.1269	 2.2490	 1.8060	 1.4284	 3.2345	 2.0952	 1.3166	 3.4118	60.4873	99.9288	
   864	 1.0923	 1.1226	 2.2149	 1.7409	 1.4127	 3.1537	 2.0153	 1.2770	 3.2923	60.4712	99.9290	
   865	 1.0403	 1.1188	 2.1591	 1.6759	 1.3969	 3.0729	 1.9323	 1.2781	 3.2104	60.3506	99.9275	
   866	 1.0114	 1.1292	 2.1406	 1.6500	 1.3931	 3.0433	 1.8863	 1.2491	 3.1354	60.4158	99.9299	
   867	 1.0336	 1.1287	 2.1623	 1.6708	 1.4181	 3.0890	 1.9655	 1.2776	 3.2432	60.4696	99.9275	
   868	 1.1144	 1.1222	 2.2366	 1.7409	 1.4127	 3.1537	 2.0184	 1.2364	 3.2548	60.5755	99.9307	
   869	 1.1849	 0.8420	 2.0269	 1.5403	 1.2769	 2.8173	 2.0299	 1.2436	 3.2735	59.7376	99.8999	
   870	 1.2047	 1.2622	 2.4670	 1.8801	 1.4862	 3.3664	 2.0627	 1.3281	 3.3908	60.5692	99.9335	
   871	 1.1837	 1.1648	 2.3485	 1.8150	 1.4705	 3.2856	 2.0742	 1.3353	 3.4095	60.3605	99.9300	
   872	 1.3270	 1.2109	 2.5379	 1.9616	 1.5607	 3.5224	 2.2181	 1.4257	 3.6439	60.2634	99.9328	
   873	 1.5522	 1.2651	 2.8173	 2.1751	 1.5951	 3.7703	 2.4085	 1.4602	 3.8687	60.3413	99.9324	
   874	 1.6658	 1.1943	 2.8602	 2.2029	 1.5271	 3.7301	 2.3930	 1.3866	 3.7795	60.1684	99.9312	
   875	 1.5168	 1.0604	 2.5771	 2.0230	 1.4163	 3.4395	 2.2619	 1.3255	 3.5874	59.9830	99.9245	
   876	 1.5736	 1.0250	 2.5986	 2.0625	 1.3313	 3.3940	 2.2552	 1.2149	 3.4701	60.1478	99.9252	
   877	 1.4706	 1.0319	 2.5025	 1.9873	 1.3579	 3.3453	 2.1888	 1.2157	 3.4045	60.1871	99.9292	
   878	 1.4975	 1.1048	 2.6023	 2.0587	 1.4748	 3.5336	 2.2192	 1.3519	 3.5711	59.9384	99.9351	
   879	 1.1674	 1.0282	 2.1956	 1.7252	 1.3665	 3.0919	 1.9086	 1.2525	 3.1612	59.9188	99.9312	
   880	 0.7046	 0.9543	 1.6589	 1.4067	 1.2918	 2.6986	 1.6397	 1.2006	 2.8403	60.0866	99.9338	
   881	 0.5150	 0.8798	 1.3949	 1.1975	 1.2237	 2.4212	 1.4301	 1.1221	 2.5522	59.9940	99.9340	
   882	 0.4159	 0.8329	 1.2489	 1.0525	 1.1586	 2.2112	 1.2486	 1.0506	 2.2992	59.8521	99.9333	
   883	 0.2292	 0.8024	 1.0317	 0.8315	 1.1076	 1.9392	 1.0237	 0.9945	 2.0182	59.7525	99.9310	
   884	 0.0791	 0.7663	 0.8454	 0.7006	 1.0634	 1.7641	 0.9214	 0.9515	 1.8729	59.8283	99.9297	
   885	 0.1763	 0.7839	 0.9602	 0.8048	 1.0911	 1.8961	 1.0562	 0.9830	 2.0392	59.9205	99.9285	
   886	 0.3649	 0.8437	 1.2086	 1.0266	 1.1549	 2.1816	 1.2926	 1.0464	 2.3390	60.0946	99.9296	
   887	 0.6477	 0.9897	 1.6374	 1.3166	 1.2849	 2.6016	 1.5930	 1.1606	 2.7536	60.3015	99.9295	
   888	 1.0788	 1.1425	 2.2213	 1.6716	 1.4307	 3.1024	 1.9425	 1.2632	 3.2057	60.4174	99.9286	
   889	 1.4473	 1.2427	 2.6900	 1.9835	 1.5013	 3.4849	 2.1840	 1.3191	 3.5031	60.4076	99.9292	
   890	 1.6619	 1.2482	 2.9101	 2.1155	 1.4612	 3.5768	 2.3046	 1.2991	 3.6037	60.3960	99.9212	
   891	 1.6880	 1.1939	 2.8819	 2.0724	 1.3860	 3.4584	 2.3697	 1.2761	 3.6458	60.4452	99.9044	
   892	 1.7245	 1.1883	 2.9128	 2.1158	 1.3642	 3.4801	 2.4828	 1.3153	 3.7980	60.5054	99.8933	
   893	 1.7631	 1.0995	 2.8626	 2.2161	 1.3287	 3.5449	 2.6437	 1.3206	 3.9643	60.5777	99.8931	
   894	 1.8008	 0.9960	 2.7968	 2.3289	 1.2889	 3.6179	 2.7311	 1.3010	 4.0321	60.5224	99.9023	
   895	 1.7643	 0.8891	 2.6534	 2.3308	 1.2172	 3.5481	 2.7098	 1.2238	 3.9336	60.5239	99.9090	
   896	 1.6662	 0.8568	 2.5230	 2.2642	 1.1761	 3.4404	 2.6299	 1.1842	 3.8141	60.5579	99.9109	
   897	 1.5430	 0.7810	 2.3241	 2.1776	 1.1228	 3.3005	 2.5263	 1.1191	 3.6454	60.5547	99.9165	
   898	 1.4421	 0.7048	 2.1469	 2.0769	 1.0486	 3.1256	 2.4399	 1.0648	 3.5048	60.5160	99.9141	
   899	 1.4083	 0.7544	 2.1627	 2.0142	 1.0707	 3.0850	 2.3749	 1.0878	 3.4627	60.4693	99.9108	
   900	 1.4044	 0.8083	 2.2127	 1.9966	 1.0963	 3.0930	 2.3762	 1.1099	 3.4862	60.5421	99.9071	
   901	 1.4371	 0.8565	 2.2936	 1.9982	 1.1216	 3.1199	 2.3667	 1.1359	 3.5026	60.4969	99.9043	
   902	 1.5612	 0.9470	 2.5081	 2.1048	 1.1873	 3.2921	 2.5079	 1.1821	 3.6900	60.6893	99.9008	
   903	 1.7497	 1.0068	 2.7565	 2.2556	 1.2437	 3.4995	 2.6434	 1.2246	 3.8680	60.6878	99.9006	
   904	 1.8239	 1.0102	 2.8341	 2.3058	 1.2260	 3.5319	 2.6644	 1.2059	 3.8703	60.6785	99.8997	
   905	 1.8431	 0.9658	 2.8089	 2.1847	 1.2365	 3.4213	 2.6190	 1.1880	 3.8071	60.4825	99.8922	
   906	 1.7661	 1.0309	 2.7970	 2.2279	 1.3117	 3.5396	 2.6339	 1.2506	 3.8845	60.6102	99.9035	
   907	 1.7603	 1.0555	 2.8158	 2.2321	 1.2779	 3.5101	 2.6007	 1.2510	 3.8517	60.6024	99.8996	
   908	 1.7612	 1.0702	 2.8314	 2.2145	 1.3035	 3.5181	 2.5688	 1.2736	 3.8424	60.4857	99.9005	
   909	 1.7170	 1.0710	 2.7880	 2.1569	 1.3044	 3.4615	 2.5018	 1.2634	 3.7651	60.4402	99.9014	
   910	 1.6727	 1.0719	 2.7446	 2.1503	 1.3003	 3.4507	 2.4916	 1.2782	 3.7699	60.4467	99.9019	
   911	 1.7554	 1.0947	 2.8502	 2.2228	 1.3328	 3.5557	 2.6200	 1.2951	 3.9150	60.6086	99.8994	
   912	 1.8132	 1.0740	 2.8872	 2.2788	 1.3066	 3.5855	 2.6417	 1.2874	 3.9291	60.5310	99.8997	
   913	 1.7439	 1.0314	 2.7753	 2.2055	 1.2615	 3.4670	 2.5438	 1.2259	 3.7697	60.5182	99.9024	
   914	 1.5996	 0.9707	 2.5703	 2.0464	 1.1756	 3.2221	 2.3444	 1.1325	 3.4769	60.4566	99.9031	
   915	 1.4063	 0.8376	 2.2439	 1.8457	 1.0398	 2.8857	 2.0718	 0.9293	 3.0011	60.4929	99.9130	
   916	 0.9659	 0.4258	 1.3917	 1.4514	 0.6754	 2.1269	 1.4831	 0.4423	 1.9254	60.4552	99.9395	
   917	 0.5888	 0.1936	 0.7825	 1.1497	 0.5625	 1.7123	 1.2491	 0.3272	 1.5763	60.3588	99.9457	
   918	 0.6137	 0.3496	 0.9634	 1.2874	 0.8173	 2.1048	 1.5164	 0.7187	 2.2351	60.0333	99.9402	
   919	 1.2408	 0.7920	 2.0328	 2.0061	 1.2480	 3.2541	 2.3304	 1.1770	 3.5074	60.4563	99.9366	
   920	 1.7026	 0.9637	 2.6663	 2.3763	 1.3302	 3.7067	 2.6525	 1.2836	 3.9361	60.4853	99.9280	
   921	 1.8017	 1.0107	 2.8124	 2.4246	 1.3843	 3.8089	 2.7107	 1.3308	 4.0415	60.4096	99.9258	
   922	 1.8430	 1.0783	 2.9213	 2.4171	 1.3675	 3.7847	 2.6680	 1.3572	 4.0252	60.3173	99.9167	
   923	 1.8584	 1.0878	 2.9462	 2.3995	 1.3931	 3.7927	 2.6789	 1.3534	 4.0322	60.3529	99.9165	
   924	 1.7719	 1.0064	 2.7782	 2.3254	 1.3353	 3.6608	 2.5447	 1.3329	 3.8777	60.0466	99.9196	
   925	 1.6968	 0.9883	 2.6851	 2.2878	 1.3486	 3.6365	 2.5332	 1.3257	 3.8589	60.1314	99.9235	
   926	 1.6901	 0.9982	 2.6883	 2.2561	 1.3534	 3.6095	 2.5224	 1.3295	 3.8519	60.1297	99.9207	
   927	 1.6785	 1.0474	 2.7258	 2.2761	 1.3657	 3.6418	 2.5468	 1.3661	 3.9129	60.2108	99.9178	
   928	 1.8267	 1.0542	 2.8809	 2.4246	 1.3843	 3.8089	 2.7415	 1.3821	 4.1236	60.3774	99.9158	
   929	 1.9220	 1.0425	 2.9645	 2.5456	 1.3738	 3.9195	 2.8194	 1.3885	 4.2079	60.3436	99.9187	
   930	 1.9364	 1.0373	 2.9737	 2.5448	 1.3611	 3.9061	 2.8289	 1.3625	 4.1914	60.4144	99.9177	
   931	 1.9152	 1.0524	 2.9676	 2.5080	 1.3871	 3.8952	 2.8533	 1.3991	 4.2524	60.4257	99.9128	
   932	 2.0864	 1.1859	 3.2724	 2.5970	 1.4783	 4.0754	 2.9613	 1.4457	 4.4070	60.5626	99.9077	
   933	 2.0095	 1.1386	 3.1480	 2.5343	 1.5005	 4.0349	 2.8425	 1.4029	 4.2454	60.4386	99.9219	
   934	 1.8911	 1.1360	 3.0271	 2.4183	 1.4898	 3.9082	 2.6789	 1.3534	 4.0322	60.4175	99.9273	
   935	 1.7776	 1.0943	 2.8719	 2.2710	 1.3868	 3.6579	 2.5343	 1.2519	 3.7862	60.5086	99.9215	
   936	 1.6785	 1.0474	 2.7258	 2.0970	 1.2675	 3.3646	 2.3962	 1.1651	 3.5612	60.5268	99.9075	
   937	 1.6747	 0.9887	 2.6634	 2.0413	 1.1968	 3.2382	 2.3749	 1.0878	 3.4627	60.5940	99.9017	
   938	 1.6574	 0.9500	 2.6074	 2.0182	 1.1339	 3.1522	 2.3153	 1.0184	 3.3338	60.6174	99.9027	
   939	 1.5670	 0.9224	 2.4894	 1.9316	 1.0805	 3.0122	 2.2015	 0.9682	 3.1698	60.6047	99.9027	
   940	 1.4996	 0.9091	 2.4087	 1.8665	 1.0648	 2.9314	 2.1345	 0.9580	 3.0925	60.5637	99.9023	
   941	 1.4708	 0.8069	 2.2778	 1.8469	 0.9555	 2.8024	 2.0777	 0.7520	 2.8298	60.9197	99.9130	
   942	 1.0708	 0.4481	 1.5189	 1.5365	 0.7035	 2.2401	 1.6325	 0.4403	 2.0728	60.6965	99.9371	
   943	 0.7523	 0.3224	 1.0748	 1.3029	 0.6568	 1.9599	 1.4346	 0.4650	 1.8997	60.3773	99.9388	
   944	 0.9388	 0.5779	 1.5167	 1.5757	 0.9221	 2.4980	 1.8040	 0.8036	 2.6075	60.4435	99.9329	
   945	 1.4688	 0.8901	 2.3590	 1.9563	 1.1687	 3.1251	 2.2611	 1.0376	 3.2987	60.6051	99.9173	
   946	 1.6670	 0.9840	 2.6510	 2.1114	 1.1914	 3.3029	 2.3397	 1.0550	 3.3947	60.6222	99.9156	
   947	 1.7113	 0.9831	 2.6944	 2.1248	 1.1996	 3.3244	 2.3505	 1.0512	 3.4017	60.5797	99.9156	
   948	 1.7045	 0.9930	 2.6976	 2.1189	 1.2081	 3.3271	 2.3505	 1.0512	 3.4017	60.6174	99.9159	
   949	 1.6756	 1.0034	 2.6790	 2.1248	 1.1996	 3.3244	 2.3505	 1.0512	 3.4017	60.6960	99.9163	
   950	 1.6766	 1.0180	 2.6946	 2.1189	 1.2081	 3.3271	 2.3397	 1.0550	 3.3947	60.6929	99.9162	
   951	 1.6785	 1.0474	 2.7258	 2.1013	 1.2337	 3.3351	 2.3397	 1.0550	 3.3947	60.7653	99.9158	
   952	 1.6631	 1.0379	 2.7010	 2.0821	 1.2340	 3.3162	 2.2855	 1.0742	 3.3597	60.5717	99.9170	
   953	 1.7160	 1.0564	 2.7724	 2.1604	 1.2580	 3.4185	 2.4074	 1.0763	 3.4837	60.8122	99.9176	
   954	 1.8276	 1.0688	 2.8965	 2.2823	 1.2602	 3.5425	 2.5141	 1.1008	 3.6149	60.8183	99.9167	
   955	 1.8796	 1.0727	 2.9523	 2.3023	 1.2725	 3.5748	 2.5358	 1.0931	 3.6289	60.8137	99.9170	
   956	 1.8498	 1.0684	 2.9182	 2.2631	 1.2605	 3.5237	 2.4962	 1.0789	 3.5750	60.8091	99.9162	
   957	 1.8276	 1.0688	 2.8965	 2.2623	 1.2478	 3.5102	 2.4846	 1.0716	 3.5563	60.8469	99.9168	
   958	 1.8200	 1.0641	 2.8840	 2.2247	 1.2611	 3.4859	 2.4623	 1.0682	 3.5305	60.8061	99.9166	
   959	 1.7834	 1.0697	 2.8531	 2.2055	 1.2615	 3.4670	 2.4291	 1.0687	 3.4977	60.8046	99.9182	
   960	 1.7535	 1.0654	 2.8190	 2.1604	 1.2580	 3.4185	 2.3851	 1.0729	 3.4580	60.7260	99.9167	
   961	 1.7689	 1.0749	 2.8438	 2.2122	 1.2656	 3.4778	 2.4636	 1.0904	 3.5540	60.8529	99.9160	
   962	 1.8873	 1.0774	 2.9647	 2.3281	 1.2762	 3.6045	 2.5581	 1.0965	 3.6547	60.8544	99.9182	
   963	 1.9171	 1.0817	 2.9989	 2.3289	 1.2889	 3.6179	 2.5690	 1.0927	 3.6617	60.8514	99.9178	
   964	 1.8806	 1.0873	 2.9679	 2.3148	 1.2680	 3.5829	 2.5294	 1.0784	 3.6078	60.8846	99.9184	
   965	 1.8507	 1.0830	 2.9338	 2.2831	 1.2728	 3.5560	 2.4962	 1.0789	 3.5750	60.8453	99.9193	
   966	 1.8498	 1.0684	 2.9182	 2.2572	 1.2690	 3.5263	 2.4521	 1.0831	 3.5352	60.6882	99.9192	
   967	 1.7988	 1.0792	 2.8779	 2.2247	 1.2611	 3.4859	 2.4291	 1.0687	 3.4977	60.8015	99.9189	
   968	 1.7612	 1.0702	 2.8314	 2.1796	 1.2577	 3.4374	 2.3742	 1.0767	 3.4510	60.6851	99.9186	
   969	 1.7766	 1.0796	 2.8563	 2.2255	 1.2738	 3.4993	 2.4521	 1.0831	 3.5352	60.8484	99.9194	
   970	 1.8806	 1.0873	 2.9679	 2.3289	 1.2889	 3.6179	 2.5364	 1.1042	 3.6406	60.8137	99.9206	
   971	 1.9036	 1.1015	 3.0052	 2.3230	 1.2974	 3.6206	 2.5466	 1.0893	 3.6359	60.8846	99.9195	
   972	 1.8738	 1.0972	 2.9711	 2.3031	 1.2851	 3.5883	 2.4968	 1.0899	 3.5868	60.8046	99.9204	
   973	 1.8440	 1.0930	 2.9369	 2.2647	 1.2858	 3.5505	 2.4745	 1.0865	 3.5610	60.8046	99.9195	
   974	 1.8218	 1.0934	 2.9152	 2.2455	 1.2861	 3.5316	 2.4413	 1.0870	 3.5282	60.7637	99.9206	
   975	 1.7853	 1.0990	 2.8843	 2.2071	 1.2867	 3.4939	 2.4074	 1.0763	 3.4837	60.7984	99.9208	
   976	 1.7410	 1.0999	 2.8409	 2.1628	 1.2959	 3.4588	 2.3417	 1.0882	 3.4299	60.6804	99.9225	
   977	 1.7487	 1.1046	 2.8533	 2.1945	 1.2912	 3.4858	 2.4087	 1.0984	 3.5072	60.8061	99.9197	
   978	 1.8314	 1.1274	 2.9589	 2.2854	 1.3107	 3.5962	 2.4931	 1.1195	 3.6126	60.8484	99.9203	
   979	 1.8613	 1.1317	 2.9930	 2.2980	 1.3063	 3.6043	 2.4714	 1.1272	 3.5986	60.7275	99.9200	
   980	 1.8314	 1.1274	 2.9589	 2.2537	 1.3155	 3.5693	 2.4535	 1.1053	 3.5587	60.8015	99.9208	
   981	 1.7949	 1.1331	 2.9279	 2.2036	 1.3332	 3.5368	 2.3986	 1.1133	 3.5119	60.7213	99.9219	
   982	 1.7650	 1.1288	 2.8938	 2.1769	 1.3168	 3.4938	 2.3539	 1.1065	 3.4604	60.6788	99.9218	
   983	 1.7275	 1.1197	 2.8472	 2.1452	 1.3215	 3.4668	 2.2990	 1.1146	 3.4136	60.5621	99.9242	
   984	 1.6765	 1.1305	 2.8070	 2.1001	 1.3180	 3.4183	 2.2753	 1.0891	 3.3644	60.7119	99.9239	
   985	 1.6476	 1.1409	 2.7885	 2.1001	 1.3180	 3.4183	 2.2766	 1.1112	 3.3878	60.7182	99.9230	
   986	 1.7438	 1.1439	 2.8877	 2.1852	 1.3461	 3.5314	 2.3731	 1.1506	 3.5237	60.6520	99.9224	
   987	 1.7823	 1.1676	 2.9499	 2.2361	 1.3411	 3.5772	 2.4057	 1.1391	 3.5448	60.7622	99.9229	
   988	 1.7525	 1.1633	 2.9157	 2.1977	 1.3417	 3.5395	 2.3559	 1.1397	 3.4956	60.6819	99.9235	
   989	 1.7303	 1.1637	 2.8940	 2.1601	 1.3550	 3.5152	 2.3335	 1.1363	 3.4698	60.6804	99.9238	
   990	 1.7150	 1.1542	 2.8692	 2.1534	 1.3509	 3.5044	 2.2793	 1.1555	 3.4348	60.4863	99.9258	
   991	 1.6716	 1.1698	 2.8414	 2.1150	 1.3515	 3.4667	 2.2563	 1.1410	 3.3973	60.5983	99.9254	
   992	 1.6418	 1.1655	 2.8073	 2.0825	 1.3436	 3.4263	 2.2122	 1.1453	 3.3575	60.5193	99.9248	
   993	 1.6120	 1.1612	 2.7731	 2.0316	 1.3487	 3.3804	 2.1574	 1.1534	 3.3107	60.4007	99.9243	
   994	 1.5908	 1.1763	 2.7670	 2.0516	 1.3610	 3.4127	 2.1912	 1.1640	 3.3552	60.5242	99.9256	
   995	 1.6812	 1.2038	 2.8850	 2.1300	 1.3850	 3.5151	 2.2864	 1.1812	 3.4676	60.6047	99.9242	
   996	 1.7043	 1.2180	 2.9223	 2.1499	 1.3973	 3.5474	 2.3081	 1.1736	 3.4816	60.6788	99.9253	
   997	 1.6889	 1.2085	 2.8975	 2.1182	 1.4021	 3.5204	 2.2430	 1.1966	 3.4396	60.4452	99.9260	
   998	 1.6600	 1.2189	 2.8789	 2.1049	 1.3939	 3.4989	 2.2366	 1.1819	 3.4185	60.5588	99.9258	
   999	 1.6311	 1.2293	 2.8604	 2.0857	 1.3942	 3.4800	 2.2258	 1.1857	 3.4115	60.5983	99.9249	
  1000	 1.6158	 1.2198	 2.8355	 2.0355	 1.4119	 3.4476	 2.1709	 1.1938	 3.3647	60.4403	99.9258	
  1001	 1.5724	 1.2353	 2.8078	 2.0030	 1.4040	 3.4072	 2.1268	 1.1980	 3.3249	60.4370	99.9247	
  1002	 1.5426	 1.2310	 2.7736	 1.9654	 1.4173	 3.3828	 2.0936	 1.1985	 3.2921	60.3974	99.9261	
  1003	 1.5060	 1.2367	 2.7427	 1.9396	 1.4135	 3.3532	 2.0720	 1.2061	 3.2781	60.3990	99.9250	
  1004	 1.5734	 1.2500	 2.8234	 2.0297	 1.4204	 3.4502	 2.1563	 1.2272	 3.3835	60.4452	99.9250	
  1005	 1.6330	 1.2586	 2.8916	 2.0755	 1.4365	 3.5122	 2.2227	 1.2263	 3.4490	60.5242	99.9248	
  1006	 1.6263	 1.2685	 2.8948	 2.0630	 1.4410	 3.5040	 2.1902	 1.2378	 3.4280	60.4436	99.9248	
  1007	 1.5974	 1.2788	 2.8763	 2.0379	 1.4498	 3.4878	 2.1576	 1.2493	 3.4070	60.4040	99.9252	
  1008	 1.5916	 1.3034	 2.8950	 2.0328	 1.4710	 3.5039	 2.1800	 1.2527	 3.4327	60.5210	99.9247	
  1009	 1.5849	 1.3133	 2.8982	 2.0211	 1.4881	 3.5092	 2.1481	 1.2753	 3.4234	60.4040	99.9257	
  1010	 1.5704	 1.3185	 2.8889	 1.9827	 1.4887	 3.4715	 2.1156	 1.2868	 3.4024	60.3248	99.9230	
  1011	 1.5271	 1.3341	 2.8612	 1.9635	 1.4890	 3.4526	 2.0831	 1.2983	 3.3813	60.3248	99.9233	
  1012	 1.5050	 1.3345	 2.8395	 1.9134	 1.5067	 3.4202	 2.0499	 1.2987	 3.3486	60.2835	99.9232	
  1013	 1.4761	 1.3449	 2.8209	 1.9134	 1.5067	 3.4202	 2.0505	 1.3098	 3.3603	60.3265	99.9232	
  1014	 1.5656	 1.3577	 2.9233	 2.0235	 1.5260	 3.5495	 2.1738	 1.3340	 3.5078	60.4156	99.9234	
  1015	 1.6416	 1.3905	 3.0320	 2.0893	 1.5544	 3.6438	 2.2409	 1.3442	 3.5851	60.4912	99.9239	
  1016	 1.6425	 1.4051	 3.0476	 2.0768	 1.5588	 3.6357	 2.2409	 1.3442	 3.5851	60.5274	99.9221	
  1017	 1.6493	 1.3952	 3.0445	 2.0776	 1.5714	 3.6491	 2.2416	 1.3553	 3.5968	60.4534	99.9234	
  1018	 1.6416	 1.3905	 3.0320	 2.0693	 1.5421	 3.6115	 2.2165	 1.3076	 3.5242	60.5572	99.9242	
  1019	 1.3810	 1.1316	 2.5126	 1.7981	 1.3021	 3.1002	 1.8244	 1.0506	 2.8750	60.2806	99.9334	
  1020	 1.0501	 0.9278	 1.9780	 1.5007	 1.1553	 2.6560	 1.5559	 0.9138	 2.4697	60.1642	99.9360	
  1021	 0.8529	 0.8486	 1.7015	 1.3122	 1.1121	 2.4244	 1.3988	 0.8789	 2.2777	60.0513	99.9361	
  1022	 0.7634	 0.8358	 1.5991	 1.1853	 1.1311	 2.3165	 1.2795	 0.9211	 2.2005	59.7418	99.9341	
  1023	 0.7008	 0.8957	 1.5965	 1.1116	 1.1829	 2.2947	 1.2160	 1.0621	 2.2782	59.3716	99.9260	
  1024	 0.9133	 1.0969	 2.0102	 1.3139	 1.3440	 2.6580	 1.5191	 1.2206	 2.7397	59.7108	99.9166	
  1025	 1.0855	 1.1326	 2.2181	 1.4256	 1.3885	 2.8141	 1.5760	 1.2457	 2.8217	59.5417	99.9190	
  1026	 1.1548	 1.1752	 2.3300	 1.5098	 1.4039	 2.9138	 1.5984	 1.2492	 2.8475	59.5681	99.9229	
  1027	 1.1597	 1.0235	 2.1832	 1.4752	 1.2611	 2.7365	 1.5365	 1.0506	 2.5871	59.6922	99.9272	
  1028	 0.3680	 0.6627	 1.0307	 0.5685	 0.8970	 1.4656	 0.4714	 0.7432	 1.2146	58.6004	99.9267	
  1029	-0.0673	 0.9013	 0.8340	 0.1788	 1.1186	 1.2975	 0.0813	 0.9771	 1.0584	58.2423	99.9274	
  1030	 0.0278	 1.1146	 1.1424	 0.2675	 1.3068	 1.5744	 0.1834	 1.2009	 1.3844	58.1083	99.9220	
  1031	 0.1221	 1.0882	 1.2104	 0.5508	 1.4328	 1.9836	 0.5336	 1.3145	 1.8482	58.3699	99.9377	
  1032	 0.1426	 0.8335	 0.9761	 0.7164	 1.3161	 2.0327	 0.5849	 1.1552	 1.7401	58.3479	99.9594	
  1033	 0.1072	 0.6288	 0.7360	 0.5929	 1.0821	 1.6751	 0.4479	 0.8136	 1.2616	58.7048	99.9611	
  1034	 0.1575	 0.3783	 0.5358	 0.5622	 0.7959	 1.3581	 0.3856	 0.4232	 0.8088	59.1465	99.9632	
  1035	 0.3433	 0.2817	 0.6250	 0.6910	 0.7051	 1.3963	 0.4273	 0.2898	 0.7171	59.1103	99.9672	
  1036	 0.4674	 0.3721	 0.8395	 0.7193	 0.7468	 1.4662	 0.4358	 0.3376	 0.7734	58.9664	99.9624	
  1037	 0.5722	 0.5070	 1.0792	 0.7781	 0.8681	 1.6463	 0.5407	 0.4249	 0.9656	59.0888	99.9596	
  1038	 0.6452	 0.6082	 1.2535	 0.7812	 0.9187	 1.7000	 0.5421	 0.4470	 0.9891	59.1440	99.9563	
  1039	 0.5432	 0.6298	 1.1730	 0.6602	 0.9291	 1.5894	 0.4188	 0.4228	 0.8415	59.1643	99.9570	
  1040	 0.4143	 0.5786	 0.9929	 0.5469	 0.8594	 1.4064	 0.3036	 0.3504	 0.6541	59.2329	99.9571	
  1041	 0.4567	 0.4359	 0.8927	 0.5676	 0.6777	 1.2454	 0.2987	 0.1770	 0.4757	59.3708	99.9553	
  1042	 0.5732	 0.4091	 0.9824	 0.6679	 0.6423	 1.3103	 0.3828	 0.1021	 0.4848	59.5597	99.9571	
  1043	 0.3830	 0.0950	 0.4780	 0.5036	 0.3710	 0.8747	 0.2213	-0.0952	 0.1262	59.3624	99.9559	
  1044	 0.3119	-0.0894	 0.2225	 0.4373	 0.2329	 0.6703	 0.2708	-0.1918	 0.0791	59.4751	99.9499	
  1045	 0.7965	 0.4340	 1.2305	 0.5979	 0.8543	 1.4523	 0.5758	 0.1808	 0.7566	59.4168	99.9459	
  1046	 0.7675	 0.5569	 1.3244	 0.6468	 0.7143	 1.3612	 0.0007	 0.0110	 0.0118	58.8991	99.9705	
  1047	 0.6443	 0.5936	 1.2379	 0.5947	 0.8037	 1.3986	-0.0214	 0.1036	 0.0822	58.8499	99.9732	
  1048	 0.6451	 0.7207	 1.3658	 0.6551	 0.9503	 1.6055	 0.0710	 0.2574	 0.3284	58.8867	99.9742	
  1049	 0.6874	 0.8030	 1.4904	 0.7300	 1.0207	 1.7508	 0.1522	 0.3191	 0.4714	59.0218	99.9749	
  1050	 0.4923	 0.5281	 1.0204	 0.5532	 0.7538	 1.3071	 0.0904	 0.1206	 0.2110	59.2076	99.9684	
  1051	 0.3972	 0.3148	 0.7120	 0.5856	 0.5551	 1.1408	 0.1990	-0.0986	 0.1004	59.8860	99.9708	
  1052	 0.0050	-0.1518	-0.1468	 0.1897	 0.1654	 0.3552	-0.2256	-0.3441	-0.5697	59.1489	99.9685	
  1053	-0.2539	-0.1564	-0.4103	 0.0189	 0.3033	 0.3223	-0.2939	-0.0996	-0.3935	58.5913	99.9676	
  1054	-0.2215	 0.1169	-0.1046	 0.1523	 0.5920	 0.7443	-0.1119	 0.1638	 0.0520	58.8044	99.9706	
  1055	-0.1339	 0.1005	-0.0334	 0.2541	 0.5818	 0.8360	 0.0037	 0.1513	 0.1549	58.9359	99.9708	
  1056	-0.0530	 0.0940	 0.0409	 0.3685	 0.5672	 0.9358	 0.1300	 0.1349	 0.2649	59.1474	99.9712	
  1057	-0.0087	 0.0931	 0.0843	 0.4046	 0.5287	 0.9333	 0.1324	 0.0832	 0.2156	59.2484	99.9715	
  1058	 0.0442	 0.1116	 0.1557	 0.4312	 0.5451	 0.9764	 0.2154	 0.0821	 0.2975	59.4140	99.9690	
  1059	 0.2636	 0.0778	 0.3415	 0.6603	 0.4189	 1.0793	 0.4364	-0.1090	 0.3274	60.1483	99.9692	
  1060	 0.7093	 0.0005	 0.7098	 1.0669	 0.3657	 1.4327	 0.8602	-0.1514	 0.7089	60.3270	99.9673	
  1061	 1.1308	 0.1192	 1.2500	 1.3338	 0.4328	 1.7667	 1.0614	-0.1207	 0.9407	60.2540	99.9643	
  1062	 1.2520	 0.1657	 1.4177	 1.4447	 0.4647	 1.9095	 1.1644	-0.0667	 1.0977	60.2199	99.9626	
  1063	 1.4309	 0.3040	 1.7349	 1.6104	 0.5547	 2.1652	 1.2731	-0.0090	 1.2640	60.3260	99.9644	
  1064	 1.3981	 0.3682	 1.7663	 1.6735	 0.6422	 2.3158	 1.3879	-0.0327	 1.3552	60.9369	99.9711	
  1065	 1.2868	 0.0183	 1.3051	 1.3306	 0.3823	 1.7130	 1.0333	-0.1278	 0.9055	59.6377	99.9592	
  1066	 1.3001	 0.2234	 1.5235	 1.5011	 0.5481	 2.0493	 1.1467	 0.0073	 1.1540	59.9756	99.9676	
  1067	 1.2846	 0.3265	 1.6110	 1.5043	 0.5986	 2.1030	 1.1748	 0.0144	 1.1892	60.3295	99.9673	
  1068	 1.1528	 0.2313	 1.3841	 1.3769	 0.5080	 1.8850	 1.0725	-0.0286	 1.0439	60.2145	99.9643	
  1069	 1.0845	 0.2033	 1.2878	 1.3444	 0.5001	 1.8446	 1.0661	-0.0433	 1.0228	60.3042	99.9656	
  1070	 0.9903	 0.1171	 1.1074	 1.2813	 0.4126	 1.6940	 1.0110	-0.1312	 0.8798	60.4225	99.9663	
  1071	 0.9134	-0.0427	 0.8707	 1.2561	 0.2149	 1.4711	 0.9261	-0.3442	 0.5819	60.6805	99.9700	
  1072	 0.4943	-0.5822	-0.0878	 0.7238	-0.3074	 0.4165	 0.3330	-0.8127	-0.4797	60.1742	99.9669	
  1073	 0.0017	-0.7729	-0.7711	 0.4554	-0.3999	 0.0556	 0.2998	-0.8123	-0.5125	60.5065	99.9640	
  1074	 0.5232	-0.5925	-0.0693	 1.0047	-0.2194	 0.7854	 0.8383	-0.6974	 0.1409	60.9648	99.9684	
  1075	 0.9446	-0.4738	 0.4709	 1.2974	-0.1485	 1.1491	 1.0767	-0.6008	 0.4759	60.7543	99.9630	
  1076	 1.2294	-0.2985	 0.9309	 1.4922	-0.0042	 1.4881	 1.2186	-0.5436	 0.6750	60.8484	99.9650	
  1077	 1.2754	-0.1576	 1.1178	 1.7041	 0.0049	 1.7092	 1.3337	-0.4712	 0.8625	61.1750	99.9671	
  1078	 1.2305	-0.5088	 0.7217	 1.3099	-0.1529	 1.1572	 1.1395	-0.7529	 0.3865	60.8260	99.9585	
  1079	 1.5624	-0.2905	 1.2719	 1.6630	 0.0646	 1.7278	 0.9626	 0.6261	 1.5888	55.4862	99.9079	
  1080	 1.4602	-0.1564	 1.3038	 1.7917	 0.2775	 2.0693	 1.6884	-0.5570	 1.1314	62.0266	99.9753	
  1081	 1.5920	-0.0612	 1.5308	 1.9805	 0.2237	 2.2043	 1.6404	-0.1614	 1.4789	60.5129	99.9646	
  1082	 1.6189	 0.0116	 1.6305	 2.0060	 0.3245	 2.3306	 1.7882	-0.2814	 1.5067	61.4522	99.9704	
  1083	 1.6016	-0.0271	 1.5744	 1.9770	 0.2702	 2.2472	 1.7445	-0.3621	 1.3824	61.5587	99.9711	
  1084	 1.3929	-0.1697	 1.2232	 1.7689	 0.1177	 1.8866	 1.5424	-0.4998	 1.0426	61.5478	99.9700	
  1085	 1.1639	-0.2825	 0.8814	 1.5580	 0.0242	 1.5824	 1.3781	-0.5604	 0.8178	61.4734	99.9681	
  1086	 1.0205	-0.3286	 0.6920	 1.4554	 0.0218	 1.4773	 1.2792	-0.5480	 0.7312	61.3236	99.9702	
  1087	 0.7839	-0.4461	 0.3378	 1.2406	-0.1348	 1.1059	 1.0284	-0.7589	 0.2695	61.5722	99.9733	
  1088	 0.0652	-0.7056	-0.6405	 0.5372	-0.4223	 0.1150	 0.3300	-0.9529	-0.6229	61.1496	99.9691	
  1089	-0.2899	-0.8257	-1.1156	 0.3021	-0.4943	-0.1920	 0.1965	-0.9623	-0.7657	61.1839	99.9679	
  1090	-0.0253	-0.7332	-0.7585	 0.6180	-0.3605	 0.2576	 0.5481	-0.8265	-0.2785	61.3364	99.9694	
  1091	 0.2616	-0.7536	-0.4920	 0.9086	-0.4244	 0.4843	 0.8811	-0.9046	-0.0235	61.8556	99.9667	
  1092	 1.1055	-0.6139	 0.4916	 1.7659	-0.2365	 1.5295	 1.7065	-0.7160	 0.9905	62.0472	99.9699	
  1093	 1.6781	-0.5569	 1.1212	 2.0973	-0.2632	 1.8343	 1.9125	-0.7887	 1.1238	61.9250	99.9658	
  1094	 1.6552	-0.6836	 0.9715	 1.9774	-0.3370	 1.6405	 1.8567	-0.8877	 0.9690	61.8406	99.9625	
  1095	 1.5098	-0.6465	 0.8633	 1.9390	-0.3364	 1.6027	 1.7852	-0.8794	 0.9058	62.0007	99.9662	
  1096	 1.4077	-0.6249	 0.7829	 1.8814	-0.3354	 1.5461	 1.7246	-0.8749	 0.8497	62.0801	99.9671	
  1097	 1.4376	-0.6206	 0.8170	 1.9457	-0.3323	 1.6135	 1.7808	-0.8609	 0.9199	62.1250	99.9681	
  1098	 1.4501	-0.6551	 0.7951	 1.9425	-0.3828	 1.5598	 1.7602	-0.9270	 0.8331	62.1950	99.9684	
  1099	 1.4723	-0.6555	 0.8168	 1.9566	-0.3620	 1.5948	 1.7737	-0.8866	 0.8871	62.0422	99.9680	
  1100	 1.5916	-0.6383	 0.9533	 2.0334	-0.3633	 1.6702	 1.8323	-0.9243	 0.9080	62.1501	99.9682	
  1101	 1.5281	-0.7055	 0.8226	 1.9977	-0.4217	 1.5761	 1.8412	-0.9613	 0.8799	62.2375	99.9666	
  1102	 1.5108	-0.7443	 0.7665	 2.0079	-0.4641	 1.5440	 1.8263	-1.0239	 0.8024	62.3514	99.9694	
  1103	 1.3723	-0.8296	 0.5427	 1.8606	-0.5670	 1.2937	 1.7085	-1.1405	 0.5680	62.5016	99.9679	
  1104	 1.2579	-0.8860	 0.3719	 1.7724	-0.6456	 1.1268	 1.6056	-1.1945	 0.4111	62.4984	99.9675	
  1105	 1.2117	-0.9144	 0.2973	 1.7457	-0.6620	 1.0838	 1.6432	-1.2135	 0.4297	62.6643	99.9660	
  1106	 1.3156	-0.9067	 0.4089	 1.8691	-0.6346	 1.2346	 1.7600	-1.2039	 0.5562	62.7474	99.9685	
  1107	 1.3445	-0.9171	 0.4274	 1.8867	-0.6602	 1.2267	 1.7421	-1.2258	 0.5163	62.7025	99.9689	
  1108	 1.3359	-0.9365	 0.3994	 1.8726	-0.6810	 1.1917	 1.7363	-1.2294	 0.5069	62.6643	99.9675	
  1109	 1.3513	-0.9270	 0.4243	 1.8926	-0.6687	 1.2240	 1.7319	-1.2109	 0.5210	62.5851	99.9685	
  1110	 1.4475	-0.9240	 0.5235	 1.9259	-0.6482	 1.2778	 1.7339	-1.1777	 0.5562	62.3045	99.9677	
  1111	 1.6765	-0.8112	 0.8652	 2.0282	-0.5487	 1.4796	 1.7603	-1.1079	 0.6524	62.0072	99.9674	
  1112	 1.7302	-0.6655	 1.0647	 1.9828	-0.4552	 1.5277	 1.6397	-1.0879	 0.5518	61.9342	99.9686	
  1113	 1.6272	-0.6586	 0.9686	 1.8269	-0.4905	 1.3365	 1.4301	-1.1664	 0.2637	61.9051	99.9695	
  1114	 1.6282	-0.6439	 0.9842	 1.8218	-0.4693	 1.3526	 1.5789	-1.3603	 0.2187	63.0283	99.9715	
  1115	 1.7128	-0.5918	 1.1210	 1.8559	-0.4362	 1.4198	 1.4186	-1.1736	 0.2449	61.9273	99.9714	
  1116	 1.7070	-0.5673	 1.1397	 1.7999	-0.4099	 1.3901	 1.3362	-1.1615	 0.1747	61.7530	99.9714	
  1117	 1.7444	-0.4457	 1.2987	 1.8454	-0.2969	 1.5487	 1.3582	-1.0732	 0.2850	61.7517	99.9733	
  1118	 1.7809	-0.3389	 1.4420	 1.8627	-0.2255	 1.6373	 1.3117	-1.0172	 0.2945	61.6558	99.9747	
  1119	 1.7982	-0.3001	 1.4981	 1.8200	-0.1910	 1.6291	 1.1654	-1.0560	 0.1095	61.4985	99.9791	
  1120	 1.7442	-0.2207	 1.5235	 1.7656	-0.1395	 1.6262	 0.9598	-1.0681	-0.1083	61.3370	99.9850	
  1121	 1.7086	-0.2005	 1.5081	 1.7331	-0.1474	 1.5858	 0.9293	-1.0234	-0.0941	61.2165	99.9831	
  1122	 1.7183	-0.2789	 1.4394	 1.7416	-0.2150	 1.5268	 1.0001	-1.0428	-0.0426	61.2335	99.9798	
  1123	 1.7520	-0.3285	 1.4235	 1.7785	-0.2409	 1.5376	 1.0831	-1.0438	 0.0393	61.2488	99.9781	
  1124	 1.7049	-0.3716	 1.3333	 1.7451	-0.2614	 1.4838	 1.1055	-1.0404	 0.0650	61.2640	99.9763	
  1125	 1.6539	-0.3608	 1.2931	 1.6934	-0.2690	 1.4245	 1.0160	-1.0540	-0.0380	61.2110	99.9773	
  1126	 1.6250	-0.3504	 1.2746	 1.6633	-0.2390	 1.4244	 1.0289	-1.0247	 0.0042	61.2202	99.9763	
  1127	 1.6269	-0.3211	 1.3058	 1.6649	-0.2137	 1.4513	 1.0245	-1.0062	 0.0183	61.2186	99.9767	
  1128	 1.5922	-0.2862	 1.3060	 1.6147	-0.1960	 1.4188	 0.9249	-1.0049	-0.0800	61.1198	99.9781	
  1129	 1.5845	-0.2909	 1.2936	 1.6422	-0.1669	 1.4753	 0.9424	-0.8981	 0.0444	60.7716	99.9777	
  1130	 1.6864	-0.2000	 1.4864	 1.8385	 0.0026	 1.8413	 1.1997	-0.6725	 0.5272	60.6684	99.9785	
  1131	 1.8587	-0.1643	 1.6943	 2.0528	 0.0496	 2.1026	 1.4635	-0.6132	 0.8504	60.9006	99.9777	
  1132	 1.9848	-0.1571	 1.8277	 2.1014	 0.0066	 2.1081	 1.4429	-0.6793	 0.7636	60.8683	99.9773	
  1133	 1.9184	-0.1557	 1.7626	 1.9689	-0.0628	 1.9062	 1.2377	-0.7764	 0.4614	60.8240	99.9770	
  1134	 1.7298	-0.2156	 1.5142	 1.7229	-0.1050	 1.6180	 1.0907	-0.8261	 0.2646	60.8223	99.9723	
  1135	 1.6114	-0.2181	 1.3933	 1.6586	-0.1082	 1.5506	 1.0724	-0.7632	 0.3092	60.7644	99.9694	
  1136	 1.5806	-0.2370	 1.3436	 1.6728	-0.0873	 1.5855	 1.2207	-0.6912	 0.5295	60.8909	99.9642	
  1137	 1.4864	-0.3232	 1.1632	 1.5787	-0.1574	 1.4214	 1.1682	-0.7349	 0.4334	60.8573	99.9616	
  1138	 1.4046	-0.3313	 1.0732	 1.4761	-0.1599	 1.3163	 1.0890	-0.7634	 0.3256	60.8909	99.9613	
  1139	 1.4247	-0.2486	 1.1761	 1.4549	-0.0879	 1.3672	 1.0822	-0.6932	 0.3890	60.8074	99.9586	
  1140	 1.4709	-0.2202	 1.2507	 1.4600	-0.1090	 1.3511	 1.0219	-0.7736	 0.2484	60.9361	99.9611	
  1141	 1.4660	-0.1809	 1.2851	 1.4424	-0.0834	 1.3591	 0.9779	-0.7693	 0.2086	60.9248	99.9624	
  1142	 1.3842	-0.1891	 1.1951	 1.3390	-0.0986	 1.2405	 0.7913	-0.8334	-0.0421	60.8107	99.9675	
  1143	 1.3437	-0.1296	 1.2141	 1.3304	-0.0309	 1.2995	 0.7692	-0.7408	 0.0284	60.6561	99.9684	
  1144	 1.4476	-0.0094	 1.4382	 1.4558	 0.1314	 1.5873	 0.9286	-0.5767	 0.3519	60.6024	99.9691	
  1145	 1.4023	-0.0232	 1.3792	 1.4084	 0.0900	 1.4985	 0.8142	-0.6380	 0.1762	60.5782	99.9717	
  1146	 1.2917	-0.0210	 1.2707	 1.3332	 0.1166	 1.4499	 0.7813	-0.5416	 0.2396	60.3594	99.9691	
  1147	 1.2551	-0.0153	 1.2397	 1.3089	 0.1381	 1.4471	 0.7084	-0.5555	 0.1530	60.3062	99.9735	
  1148	 1.2570	 0.0140	 1.2710	 1.3246	 0.1842	 1.5089	 0.6701	-0.5476	 0.1226	60.2546	99.9779	
  1149	 1.1877	-0.0287	 1.1591	 1.2290	 0.0888	 1.3179	 0.4961	-0.6782	-0.1821	60.2937	99.9797	
  1150	 1.1868	-0.0433	 1.1435	 1.2149	 0.0680	 1.2830	 0.4481	-0.7403	-0.2923	60.3574	99.9816	
  1151	 1.1926	-0.0679	 1.1247	 1.1667	 0.0140	 1.1807	 0.2781	-0.8046	-0.5265	60.0625	99.9837	
  1152	 1.1021	-0.0954	 1.0067	 1.0828	-0.0984	 0.9844	 0.0899	-0.9867	-0.8969	60.3421	99.9871	
  1153	 0.7384	-0.2349	 0.5036	 0.7363	-0.3119	 0.4246	-0.1536	-1.0759	-1.2295	60.3515	99.9786	
  1154	 0.4604	-0.3076	 0.1528	 0.4075	-0.5509	-0.1433	-0.3584	-1.2578	-1.6162	60.8360	99.9627	
  1155	 0.3930	-0.3209	 0.0721	 0.3617	-0.5670	-0.2052	-0.3290	-1.2287	-1.5576	60.8999	99.9570	
  1156	 0.1987	-0.4687	-0.2699	 0.1136	-0.7441	-0.6304	-0.5189	-1.3480	-1.8670	60.8061	99.9462	
  1157	-0.0784	-0.5267	-0.6051	-0.1791	-0.8150	-0.9941	-0.7164	-1.4082	-2.1246	60.8898	99.9383	
  1158	-0.1794	-0.6029	-0.7823	-0.4005	-0.9758	-1.3762	-1.0383	-1.6957	-2.7340	61.1035	99.9425	
  1159	-0.4477	-0.8666	-1.3142	-0.7690	-1.3364	-2.1053	-1.5194	-2.0512	-3.5706	60.9382	99.9380	
  1160	-0.6718	-1.0186	-1.6904	-0.8881	-1.3976	-2.2856	-1.6068	-2.0316	-3.6385	60.6308	99.9410	
  1161	-0.6152	-0.8290	-1.4442	-0.6306	-1.0688	-1.6993	-1.1398	-1.4508	-2.5905	60.1203	99.9277	
  1162	-0.4171	-0.6226	-1.0397	-0.3891	-0.8958	-1.2849	-0.8195	-1.2814	-2.1008	60.5346	99.9230	
  1163	-0.6288	-0.6967	-1.3254	-0.6376	-0.9760	-1.6134	-0.9658	-1.3201	-2.2859	60.4987	99.9096	
  1164	-0.8923	-0.8871	-1.7793	-0.9566	-1.1603	-2.1168	-1.2688	-1.4786	-2.7474	60.2660	99.9030	
  1165	-1.1308	-1.0339	-2.1648	-1.2689	-1.3406	-2.6094	-1.6250	-1.6918	-3.3168	60.1670	99.9020	
  1166	-1.4945	-1.1734	-2.6679	-1.6639	-1.5110	-3.1748	-1.9887	-1.8458	-3.8346	60.0956	99.8933	
  1167	-1.4829	-1.2225	-2.7054	-1.5455	-1.4624	-3.0079	-1.7893	-1.7524	-3.5417	60.1203	99.8978	
  1168	-1.3511	-1.2398	-2.5909	-1.2262	-1.3750	-2.6011	-1.6676	-1.8463	-3.5139	60.4878	99.9442	
  1169	-1.2519	-1.3054	-2.5572	-1.1518	-1.4142	-2.5659	-1.7593	-1.9891	-3.7484	60.3943	99.9601	
  1170	-1.0210	-1.1633	-2.1843	-0.8387	-1.2214	-2.0599	-1.6161	-1.9097	-3.5258	60.4252	99.9780	
  1171	-0.5006	-0.8851	-1.3857	-0.3790	-0.9382	-1.3170	-1.3435	-1.7065	-3.0500	60.1427	99.9856	
  1172	-0.2466	-0.7288	-0.9754	-0.2359	-0.8014	-1.0372	-1.2853	-1.6593	-2.9446	60.0563	99.9876	
  1173	-0.1716	-0.7107	-0.8823	-0.2442	-0.8308	-1.0749	-1.3185	-1.6588	-2.9773	59.8604	99.9844	
  1174	-0.1976	-0.6564	-0.8540	-0.2186	-0.7300	-0.9486	-1.2217	-1.5235	-2.7452	59.8210	99.9835	
  1175	-0.0073	-0.4548	-0.4620	 0.0232	-0.4474	-0.4241	-0.8656	-1.1295	-1.9951	59.4967	99.9792	
  1176	 0.1870	-0.3070	-0.1200	 0.1879	-0.2731	-0.0851	-0.6533	-1.0067	-1.6600	59.6414	99.9793	
  1177	 0.3332	-0.2170	 0.1162	 0.3043	-0.1528	 0.1516	-0.4238	-0.8731	-1.2968	59.7247	99.9745	
  1178	 0.3006	-0.2653	 0.0353	 0.2577	-0.1815	 0.0763	-0.3930	-0.8218	-1.2148	59.5471	99.9679	
  1179	 0.3467	-0.2368	 0.1099	 0.3435	-0.1408	 0.2028	-0.2352	-0.7758	-1.0110	59.7880	99.9664	
  1180	 0.4593	-0.2097	 0.2496	 0.4743	-0.0966	 0.3779	-0.1163	-0.7331	-0.8494	59.8001	99.9682	
  1181	 0.5286	-0.1671	 0.3615	 0.5026	-0.0549	 0.4478	-0.1200	-0.7035	-0.8235	59.6628	99.9687	
  1182	 0.5699	-0.0995	 0.4704	 0.5575	 0.0032	 0.5608	-0.0943	-0.6448	-0.7391	59.6218	99.9700	
  1183	 0.6064	 0.0074	 0.6138	 0.6371	 0.1494	 0.7866	 0.0363	-0.4988	-0.4625	59.6589	99.9708	
  1184	 0.6573	 0.1091	 0.7664	 0.7151	 0.2704	 0.9856	 0.1158	-0.3743	-0.2585	59.5959	99.9721	
  1185	 0.6361	 0.1242	 0.7603	 0.6684	 0.2417	 0.9102	-0.0101	-0.4428	-0.4530	59.5953	99.9747	
  1186	 0.5533	 0.1014	 0.6547	 0.6050	 0.2512	 0.8563	 0.0335	-0.3622	-0.3287	59.5166	99.9690	
  1187	 0.5514	 0.0721	 0.6235	 0.6324	 0.2802	 0.9128	 0.1429	-0.2935	-0.1506	59.4794	99.9668	
  1188	 0.5139	 0.0631	 0.5770	 0.6175	 0.2468	 0.8644	 0.1646	-0.3011	-0.1366	59.6129	99.9638	
  1189	 0.5544	 0.0036	 0.5579	 0.6661	 0.2038	 0.8699	 0.2960	-0.3250	-0.0290	59.8018	99.9598	
  1190	 0.6670	 0.0307	 0.6976	 0.7437	 0.2151	 0.9589	 0.3682	-0.3222	 0.0459	59.8361	99.9585	
  1191	 0.7180	 0.0199	 0.7378	 0.7628	 0.2148	 0.9777	 0.3790	-0.3260	 0.0530	59.7498	99.9582	
  1192	 0.7035	 0.0250	 0.7286	 0.7628	 0.2148	 0.9777	 0.4007	-0.3337	 0.0670	59.8763	99.9579	
  1193	 0.6977	 0.0496	 0.7474	 0.7644	 0.2401	 1.0046	 0.4129	-0.3154	 0.0975	59.9203	99.9581	
  1194	 0.6977	 0.0496	 0.7474	 0.7578	 0.2360	 0.9938	 0.4027	-0.3005	 0.1022	59.8400	99.9568	
  1195	 0.7199	 0.0492	 0.7690	 0.7527	 0.2571	 1.0099	 0.4206	-0.2786	 0.1420	59.7637	99.9554	
  1196	 0.6833	 0.0548	 0.7381	 0.7402	 0.2616	 1.0018	 0.4200	-0.2897	 0.1303	59.8879	99.9566	
  1197	 0.6467	 0.0604	 0.7071	 0.7284	 0.2786	 1.0071	 0.4169	-0.2490	 0.1679	59.8195	99.9565	
  1198	 0.6766	 0.0647	 0.7413	 0.7809	 0.2988	 1.0798	 0.5280	-0.2431	 0.2849	60.0403	99.9559	
  1199	 0.7565	 0.0435	 0.8000	 0.9070	 0.2672	 1.1743	 0.6608	-0.2448	 0.4160	60.1783	99.9553	
  1200	 0.8210	 0.0129	 0.8339	 0.9646	 0.2662	 1.2309	 0.7482	-0.2644	 0.4838	60.2668	99.9558	
  1201	 0.7873	-0.0500	 0.7373	 0.9474	 0.1948	 1.1423	 0.7232	-0.3120	 0.4111	60.2668	99.9552	
  1202	 0.7085	-0.1267	 0.5818	 0.8976	 0.1155	 1.0132	 0.6853	-0.3891	 0.2962	60.3876	99.9556	
  1203	 0.6220	-0.2081	 0.4139	 0.8595	 0.0192	 0.8788	 0.6467	-0.4771	 0.1696	60.5481	99.9565	
  1204	 0.5643	-0.2999	 0.2644	 0.7647	-0.0635	 0.7012	 0.5973	-0.5614	 0.0359	60.5844	99.9531	
  1205	 0.4720	-0.3567	 0.1152	 0.6863	-0.0875	 0.5989	 0.4933	-0.5416	-0.0483	60.2686	99.9541	
  1206	 0.6239	-0.1788	 0.4451	 0.9117	 0.1364	 1.0481	 0.7740	-0.3865	 0.3875	60.6230	99.9600	
  1207	 0.6865	-0.2387	 0.4477	 0.8364	-0.0437	 0.7928	 0.5378	-0.6308	-0.0930	60.6168	99.9606	
  1208	 0.3912	-0.4627	-0.0715	 0.6392	-0.2259	 0.4134	 0.4135	-0.7621	-0.3485	60.7219	99.9601	
  1209	 0.3028	-0.5734	-0.2707	 0.5612	-0.3468	 0.2144	 0.3110	-0.9010	-0.5900	60.8270	99.9622	
  1210	 0.0681	-0.7742	-0.7060	 0.3734	-0.5840	-0.2105	 0.1208	-1.1163	-0.9955	61.0161	99.9615	
  1211	-0.0415	-0.8698	-0.9113	 0.2801	-0.6415	-0.3613	 0.0517	-1.1597	-1.1080	60.9422	99.9619	
  1212	 0.0181	-0.7487	-0.7307	 0.4675	-0.5139	-0.0464	 0.2244	-1.0512	-0.8268	61.2081	99.9684	
  1213	 0.1096	-0.8190	-0.7095	 0.3816	-0.5546	-0.1729	 0.1421	-1.0391	-0.8970	60.5887	99.9602	
  1214	 0.1566	-0.6635	-0.5069	 0.4762	-0.3749	 0.1013	 0.2734	-0.8821	-0.6087	60.6937	99.9624	
  1215	 0.1132	-0.6479	-0.5347	 0.4460	-0.3449	 0.1012	 0.2314	-0.8446	-0.6132	60.5760	99.9637	
  1216	-0.0013	-0.5918	-0.5932	 0.3172	-0.2542	 0.0631	 0.0982	-0.7580	-0.6598	60.2940	99.9650	
  1217	-0.0015	-0.4793	-0.4808	 0.3827	-0.1288	 0.2540	 0.1872	-0.6595	-0.4723	60.4739	99.9680	
  1218	 0.0188	-0.5091	-0.4903	 0.3920	-0.1838	 0.2084	 0.1723	-0.7220	-0.5497	60.5413	99.9681	
  1219	-0.1726	-0.6129	-0.7855	 0.2372	-0.3034	-0.0661	-0.0769	-0.8148	-0.8917	60.3178	99.9716	
  1220	-0.6913	-0.7492	-1.4405	-0.2490	-0.3964	-0.6453	-0.5139	-0.8978	-1.4116	60.1108	99.9719	
  1221	-1.0789	-1.0301	-2.1089	-0.6468	-0.7144	-1.3611	-0.8785	-1.1588	-2.0373	60.0866	99.9663	
  1222	-1.0875	-1.0494	-2.1370	-0.5195	-0.6238	-1.1431	-0.6662	-1.0361	-1.7022	60.1568	99.9700	
  1223	-0.7642	-0.9630	-1.7272	-0.2131	-0.6416	-0.8546	-0.3894	-1.1282	-1.5176	60.8163	99.9701	
  1224	-0.3657	-0.9709	-1.3367	 0.2750	-0.6203	-0.3452	 0.2901	-1.0631	-0.7730	61.5249	99.9639	
