OxySoft export of:	C:\Users\TO3 TechSupport\Documents\Train2Adapt\T2A_08
Export date:	2022/09/16 02:04:29
Start of measurement:	2022-09-16 01:04:17.862

Datafile sample rate:	10.00	Hz
Datafile duration:	3530.700	s
Datafile total number of samples:	35307

Description:	

Optode-template:	PortaMon TSI Fit Factor
Optode distance (mm):	 35.00
Optode gradients (mm):	 5.00
DPF:	6.39

Device id:	334
# Receivers:	1
# Light sources:	6
# ADC:	2

Light source wavelengths:
device	index	wavelength
1	1	849	nm
1	2	759	nm
1	3	846	nm
1	4	757	nm
1	5	848	nm
1	6	757	nm

Export sample rate:	10.00	Hz
Selected time span:	0	3530.700
Selected time span (sample numbers):	0	35307


Legend:
Column	Trace (Measurement)
1	(Sample number)
2	Rx1-Tx1 O2Hb (T2A_08)
3	Rx1-Tx1 HHb (T2A_08)
4	Rx1-Tx1 tHb (T2A_08)
5	Rx1-Tx2 O2Hb (T2A_08)
6	Rx1-Tx2 HHb (T2A_08)
7	Rx1-Tx2 tHb (T2A_08)
8	Rx1-Tx3 O2Hb (T2A_08)
9	Rx1-Tx3 HHb (T2A_08)
10	Rx1-Tx3 tHb (T2A_08)
11	Rx1-Tx1,Tx2,Tx3 TSI% (T2A_08)
12	Rx1-Tx1,Tx2,Tx3 TSI Fit Factor (T2A_08)
13	(Event)


1	2	3	4	5	6	7	8	9	10	11	12	13
     0	123.5343	58.2501	181.7844	100.2345	46.4397	146.6742	80.8359	40.6886	121.5245	11.5652	98.7634	
     1	 0.0319	 0.0196	 0.0514	 0.0085	 0.0304	 0.0389	-0.0652	 0.0581	-0.0071	52.2468	99.9457	
     2	 0.0020	 0.0303	 0.0323	-0.0053	 0.0219	 0.0166	-0.0659	 0.0467	-0.0192	52.3709	99.9450	
     3	 0.0010	 0.0151	 0.0161	-0.0053	 0.0219	 0.0166	-0.0778	 0.0392	-0.0386	52.3266	99.9467	
     4	-0.0069	 0.0102	 0.0033	-0.0130	 0.0046	-0.0084	-0.1002	 0.0471	-0.0531	52.2424	99.9457	
     5	-0.0149	 0.0053	-0.0096	-0.0260	 0.0092	-0.0168	-0.0897	 0.0317	-0.0580	52.3266	99.9457	
     6	 0.0090	 0.0200	 0.0290	 0.0206	 0.0128	 0.0334	 0.0087	 0.0496	 0.0583	52.5296	99.9426	
     7	 0.0398	 0.0245	 0.0643	 0.0474	 0.0167	 0.0640	 0.0543	 0.0451	 0.0994	52.6178	99.9419	
     8	 0.0319	 0.0196	 0.0514	 0.0215	 0.0258	 0.0473	 0.0133	 0.0304	 0.0437	52.5565	99.9438	
     9	 0.0239	 0.0147	 0.0386	 0.0206	 0.0128	 0.0334	-0.0091	 0.0383	 0.0292	52.4725	99.9438	
    10	 0.0309	 0.0044	 0.0353	 0.0077	 0.0173	 0.0250	-0.0210	 0.0308	 0.0098	52.4239	99.9441	
    11	 0.0229	-0.0005	 0.0224	 0.0008	 0.0131	 0.0139	-0.0329	 0.0234	-0.0096	52.4196	99.9446	
    12	 0.0080	 0.0049	 0.0129	-0.0000	 0.0000	-0.0000	-0.0449	 0.0159	-0.0290	52.4551	99.9448	
    13	-0.0149	 0.0053	-0.0096	-0.0199	 0.0004	-0.0195	-0.0673	 0.0238	-0.0435	52.4152	99.9446	
    14	-0.0378	 0.0058	-0.0320	-0.0329	 0.0049	-0.0279	-0.0799	 0.0049	-0.0750	52.4906	99.9465	
    15	-0.0378	 0.0058	-0.0320	-0.0466	-0.0036	-0.0502	-0.0911	 0.0088	-0.0823	52.4464	99.9447	
    16	-0.0607	 0.0062	-0.0545	-0.0466	-0.0036	-0.0502	-0.1030	 0.0014	-0.1017	52.4863	99.9467	
    17	-0.0687	 0.0013	-0.0673	-0.0535	-0.0078	-0.0613	-0.1142	 0.0053	-0.1089	52.4464	99.9466	
    18	-0.0448	 0.0160	-0.0287	-0.0389	 0.0138	-0.0252	-0.0105	 0.0154	 0.0049	52.6888	99.9423	
    19	-0.0069	 0.0102	 0.0033	 0.0129	-0.0046	 0.0084	 0.0238	 0.0150	 0.0388	52.6931	99.9424	
    20	 0.0000	-0.0000	-0.0000	-0.0000	 0.0000	-0.0000	 0.0000	 0.0000	 0.0000	52.6361	99.9438	
    21	-0.0298	 0.0107	-0.0192	-0.0199	 0.0004	-0.0195	-0.0449	 0.0159	-0.0290	52.5478	99.9443	
    22	-0.0298	 0.0107	-0.0192	-0.0260	 0.0092	-0.0168	-0.0343	 0.0005	-0.0339	52.6275	99.9448	
    23	-0.0229	 0.0004	-0.0224	-0.0199	 0.0004	-0.0195	-0.0350	-0.0110	-0.0460	52.6232	99.9453	
    24	-0.0527	 0.0111	-0.0416	-0.0207	-0.0127	-0.0334	-0.0582	-0.0145	-0.0726	52.6588	99.9463	
    25	-0.0607	 0.0062	-0.0545	-0.0406	-0.0124	-0.0530	-0.0701	-0.0220	-0.0920	52.6545	99.9460	
    26	-0.0687	 0.0013	-0.0673	-0.0665	-0.0032	-0.0697	-0.0820	-0.0295	-0.1114	52.6502	99.9459	
    27	-0.0916	 0.0018	-0.0898	-0.0673	-0.0163	-0.0836	-0.1044	-0.0215	-0.1259	52.6103	99.9463	
    28	-0.0846	-0.0085	-0.0930	-0.0803	-0.0117	-0.0920	-0.1044	-0.0215	-0.1259	52.5704	99.9456	
    29	-0.0995	-0.0031	-0.1026	-0.0933	-0.0071	-0.1004	-0.1037	-0.0101	-0.1138	52.5791	99.9446	
    30	-0.0756	 0.0116	-0.0640	-0.0466	-0.0036	-0.0502	-0.0119	-0.0075	-0.0194	52.8124	99.9428	
    31	-0.0527	 0.0111	-0.0416	-0.0207	-0.0127	-0.0334	-0.0119	-0.0075	-0.0194	52.7641	99.9434	
    32	-0.0607	 0.0062	-0.0545	-0.0466	-0.0036	-0.0502	-0.0357	-0.0224	-0.0581	52.7514	99.9444	
    33	-0.0607	 0.0062	-0.0545	-0.0406	-0.0124	-0.0530	-0.0469	-0.0185	-0.0654	52.7073	99.9445	
    34	-0.0687	 0.0013	-0.0673	-0.0535	-0.0078	-0.0613	-0.0469	-0.0185	-0.0654	52.7115	99.9443	
    35	-0.0836	 0.0067	-0.0769	-0.0665	-0.0032	-0.0697	-0.0483	-0.0414	-0.0897	52.8269	99.9451	
    36	-0.0916	 0.0018	-0.0898	-0.0673	-0.0163	-0.0836	-0.0820	-0.0295	-0.1114	52.6987	99.9456	
    37	-0.0995	-0.0031	-0.1026	-0.0803	-0.0117	-0.0920	-0.0827	-0.0409	-0.1236	52.7386	99.9459	
    38	-0.1075	-0.0080	-0.1155	-0.1001	-0.0114	-0.1115	-0.1051	-0.0330	-0.1381	52.6545	99.9454	
    39	-0.1224	-0.0027	-0.1251	-0.1001	-0.0114	-0.1115	-0.1110	-0.0367	-0.1478	52.6944	99.9463	
    40	-0.1523	 0.0081	-0.1442	-0.1139	-0.0199	-0.1338	-0.1223	-0.0328	-0.1550	52.7386	99.9454	
    41	-0.0995	-0.0031	-0.1026	-0.0673	-0.0163	-0.0836	-0.0357	-0.0224	-0.0581	52.8082	99.9433	
    42	-0.0677	 0.0165	-0.0512	-0.0337	-0.0081	-0.0418	 0.0330	-0.0233	 0.0097	52.9841	99.9414	
    43	-0.0677	 0.0165	-0.0512	-0.0337	-0.0081	-0.0418	-0.0021	-0.0343	-0.0364	52.9234	99.9439	
    44	-0.0756	 0.0116	-0.0640	-0.0466	-0.0036	-0.0502	-0.0357	-0.0224	-0.0581	52.7955	99.9448	
    45	-0.0756	 0.0116	-0.0640	-0.0406	-0.0124	-0.0530	-0.0357	-0.0224	-0.0581	52.7955	99.9446	
    46	-0.0906	 0.0169	-0.0736	-0.0535	-0.0078	-0.0613	-0.0476	-0.0299	-0.0775	52.8311	99.9452	
    47	-0.0985	 0.0120	-0.0865	-0.0795	 0.0014	-0.0781	-0.0483	-0.0414	-0.0897	52.8709	99.9447	
    48	-0.1065	 0.0071	-0.0994	-0.0673	-0.0163	-0.0836	-0.0820	-0.0295	-0.1114	52.7429	99.9460	
    49	-0.1214	 0.0125	-0.1089	-0.0803	-0.0117	-0.0920	-0.0827	-0.0409	-0.1236	52.8226	99.9462	
    50	-0.1075	-0.0080	-0.1155	-0.1062	-0.0026	-0.1088	-0.0939	-0.0369	-0.1308	52.6987	99.9452	
    51	-0.0816	 0.0370	-0.0446	-0.0693	 0.0579	-0.0114	-0.0561	 0.0198	-0.0362	52.6760	99.9465	
    52	-0.0538	 0.1123	 0.0585	-0.0134	 0.1049	 0.0916	-0.0137	 0.0575	 0.0438	52.7997	99.9477	
    53	 0.0079	 0.1212	 0.1291	 0.0462	 0.1039	 0.1501	 0.0438	 0.0606	 0.1043	52.8438	99.9471	
    54	 0.0278	 0.0753	 0.1031	 0.0215	 0.0258	 0.0473	-0.0154	-0.0647	-0.0801	52.9359	99.9480	
    55	-0.2208	-0.2233	-0.4441	-0.3346	-0.3695	-0.7040	-0.5172	-0.5011	-1.0183	52.7449	99.9490	
    56	-0.6009	-0.4282	-1.0291	-0.7180	-0.5680	-1.2860	-0.8657	-0.6761	-1.5418	52.6238	99.9461	
    57	-0.6884	-0.4821	-1.1706	-0.8275	-0.6228	-1.4503	-1.0058	-0.7201	-1.7260	52.4201	99.9462	
    58	-0.7760	-0.5360	-1.3120	-0.9369	-0.6777	-1.6146	-1.0952	-0.7763	-1.8714	52.4021	99.9441	
    59	-0.8218	-0.5351	-1.3569	-0.9750	-0.6509	-1.6259	-1.0805	-0.7230	-1.8035	52.3652	99.9413	
    60	-0.6935	-0.4415	-1.1350	-0.7995	-0.4925	-1.2919	-0.8375	-0.4932	-1.3307	52.2560	99.9387	
    61	-0.3661	-0.2255	-0.5916	-0.3661	-0.2381	-0.6042	-0.2879	-0.2139	-0.5018	52.7343	99.9375	
    62	-0.0546	-0.1356	-0.1901	 0.0262	-0.1095	-0.0832	 0.2131	-0.0753	 0.1378	53.2454	99.9364	
    63	 0.1296	-0.1241	 0.0055	 0.2548	-0.0566	 0.1982	 0.4748	-0.0099	 0.4649	53.4003	99.9378	
    64	 0.1595	-0.1348	 0.0247	 0.2808	-0.0658	 0.2150	 0.5190	-0.0372	 0.4818	53.5219	99.9377	
    65	 0.1197	-0.1593	-0.0396	 0.2256	-0.0998	 0.1259	 0.4938	-0.0751	 0.4187	53.5964	99.9350	
    66	 0.0709	-0.2038	-0.1329	 0.1559	-0.1553	 0.0006	 0.4150	-0.1466	 0.2684	53.6043	99.9349	
    67	-0.0972	-0.3219	-0.4191	-0.0776	-0.2866	-0.3642	 0.0917	-0.2837	-0.1920	53.2198	99.9366	
    68	-0.3878	-0.4426	-0.8304	-0.4197	-0.4596	-0.8793	-0.3434	-0.4690	-0.8124	52.9233	99.9377	
    69	-0.7500	-0.6074	-1.3574	-0.8465	-0.6094	-1.4560	-0.7645	-0.6125	-1.3770	52.5603	99.9347	
    70	-1.0218	-0.6728	-1.6946	-1.1165	-0.6877	-1.8042	-1.0283	-0.7122	-1.7405	52.5525	99.9350	
    71	-1.1660	-0.7761	-1.9422	-1.2957	-0.7981	-2.0938	-1.2135	-0.8396	-2.0532	52.4952	99.9343	
    72	-1.3312	-0.8487	-2.1800	-1.4854	-0.8647	-2.3501	-1.4237	-0.9057	-2.3294	52.2833	99.9346	
    73	-1.5244	-0.8803	-2.4046	-1.6414	-0.9231	-2.5645	-1.6168	-0.9719	-2.5887	52.2834	99.9378	
    74	-1.6140	-0.8481	-2.4621	-1.7002	-0.9091	-2.6092	-1.7012	-0.9479	-2.6491	52.2335	99.9394	
    75	-1.5175	-0.7742	-2.2917	-1.6304	-0.8535	-2.4840	-1.6641	-0.9026	-2.5667	52.1697	99.9397	
    76	-1.4299	-0.7203	-2.1502	-1.6126	-0.7797	-2.3922	-1.5871	-0.7661	-2.3532	51.8840	99.9300	
    77	-1.4110	-0.7814	-2.1923	-1.5600	-0.9987	-2.5587	-1.6198	-1.1170	-2.7368	52.7748	99.9368	
    78	-1.1880	-0.7605	-1.9485	-1.2026	-1.0047	-2.2073	-1.2998	-1.2242	-2.5240	53.6342	99.9493	
    79	-0.6105	-0.8125	-1.4230	-0.8728	-1.2415	-2.1143	-1.2271	-1.4427	-2.6699	53.2274	99.9427	
    80	-0.2879	-0.7886	-1.0765	-0.6459	-1.2148	-1.8606	-0.9194	-1.4696	-2.3891	53.5805	99.9365	
    81	-0.1755	-0.7049	-0.8804	-0.4010	-1.1142	-1.5152	-0.7374	-1.3001	-2.0375	53.4972	99.9433	
    82	-0.1529	-0.3562	-0.5091	-0.1584	-0.6254	-0.7838	-0.3398	-0.5989	-0.9387	53.0938	99.9393	
    83	 0.4269	 0.2191	 0.6460	 0.2695	 0.1787	 0.4482	 0.2142	 0.3218	 0.5360	51.8400	99.9291	
    84	 0.6756	 0.5177	 1.1932	 0.5081	 0.6021	 1.1102	 0.5672	 0.6647	 1.2319	51.9313	99.9330	
    85	 0.8409	 0.4739	 1.3148	 0.7103	 0.5507	 1.2610	 0.8002	 0.6350	 1.4352	52.2248	99.9313	
    86	 0.8640	 0.2407	 1.1047	 0.6278	 0.1857	 0.8135	 0.7185	 0.2313	 0.9498	52.6875	99.9212	
    87	 0.3847	-0.3164	 0.0683	 0.3442	-0.4289	-0.0847	 0.6374	-0.4473	 0.1901	54.2815	99.9197	
    88	 0.8050	-0.5524	 0.2526	 0.5965	-0.7385	-0.1420	 0.7542	-0.6932	 0.0611	53.9723	99.9103	
    89	 1.0747	-0.4010	 0.6737	 0.9508	-0.5831	 0.3677	 1.0842	-0.5409	 0.5434	54.2005	99.9172	
    90	 1.3603	-0.2397	 1.1206	 1.3100	-0.3493	 0.9607	 1.5168	-0.3021	 1.2147	54.4096	99.9203	
    91	 1.5971	-0.1230	 1.4741	 1.5892	-0.2275	 1.3618	 1.8044	-0.1874	 1.6170	54.6208	99.9228	
    92	 1.7255	-0.0295	 1.6960	 1.7538	-0.1387	 1.6152	 1.9684	-0.1284	 1.8399	54.8410	99.9264	
    93	 1.7485	-0.1463	 1.6022	 1.6406	-0.3592	 1.2814	 1.6868	-0.4264	 1.2604	54.7354	99.9290	
    94	 0.8747	-0.5386	 0.3361	 0.5990	-0.6993	-0.1003	 0.5783	-0.5725	 0.0057	52.9782	99.9141	
    95	 0.6713	-0.2563	 0.4150	 0.6750	-0.2251	 0.4499	 0.9840	-0.0203	 0.9637	53.3975	99.9142	
    96	 1.2890	 0.3132	 1.6022	 1.2195	 0.3240	 1.5435	 1.5355	 0.4804	 2.0159	53.4217	99.9120	
    97	 1.4104	 0.4170	 1.8274	 1.4624	 0.4987	 1.9611	 1.8389	 0.5720	 2.4109	53.9462	99.9241	
    98	 1.8879	 0.8274	 2.7153	 1.9110	 0.5740	 2.4851	 1.9382	 0.4142	 2.3523	54.7886	99.9404	
    99	 1.7499	 0.4659	 2.2157	 1.7139	 0.1761	 1.8899	 1.4854	 0.0305	 1.5159	54.2084	99.9490	
   100	 1.7279	 0.4815	 2.2094	 1.8452	 0.1564	 2.0016	 1.6312	-0.0210	 1.6102	54.8587	99.9548	
   101	 1.4992	 0.2533	 1.7525	 1.6120	-0.0752	 1.5368	 1.3272	-0.3111	 1.0162	54.8893	99.9605	
   102	 1.0923	-0.1281	 0.9642	 1.1490	-0.4861	 0.6629	 0.8016	-0.7625	 0.0391	54.8291	99.9621	
   103	 0.5769	-0.4163	 0.1606	 0.6572	-0.8268	-0.1695	 0.2664	-1.0878	-0.8214	54.7743	99.9625	
   104	 0.4614	-0.4292	 0.0322	 0.5547	-0.8774	-0.3227	 0.1515	-1.0940	-0.9425	54.6810	99.9602	
   105	 0.6465	-0.2862	 0.3603	 0.6942	-0.7663	-0.0722	 0.2523	-0.9425	-0.6902	54.4307	99.9569	
   106	 0.9379	-0.0340	 0.9040	 0.9261	-0.4475	 0.4787	 0.6069	-0.4774	 0.1295	53.8847	99.9428	
   107	 1.3428	 0.3172	 1.6600	 1.2846	-0.0130	 1.2716	 1.0758	-0.0177	 1.0581	53.7009	99.9370	
   108	 1.4645	 0.0719	 1.5364	 1.4061	-0.1895	 1.2166	 1.4789	-0.1718	 1.3071	54.4473	99.9220	
   109	 1.7833	-0.0812	 1.7020	 1.8584	-0.1622	 1.6961	 2.2125	 0.0250	 2.2375	54.7444	99.9097	
   110	 2.2828	 0.1972	 2.4800	 2.4538	 0.1418	 2.5956	 2.8472	 0.2917	 3.1389	55.2465	99.9166	
   111	 2.5684	 0.3585	 2.9268	 2.7659	 0.2586	 3.0246	 3.0693	 0.3652	 3.4345	55.4276	99.9241	
   112	 2.6988	 0.3660	 3.0647	 2.8790	 0.2654	 3.1444	 3.1552	 0.3641	 3.5193	55.4212	99.9253	
   113	 2.6869	 0.3004	 2.9873	 2.8835	 0.2305	 3.1139	 3.1478	 0.3375	 3.4853	55.3512	99.9279	
   114	 2.5904	 0.2265	 2.8168	 2.7724	 0.1495	 2.9218	 3.0505	 0.2433	 3.2938	55.4082	99.9268	
   115	 2.4600	 0.2190	 2.6789	 2.6929	 0.1508	 2.8437	 3.0589	 0.1935	 3.2525	55.8191	99.9277	
   116	 2.3586	 0.0692	 2.4278	 2.3290	 0.0523	 2.3812	 2.6107	 0.2642	 2.8749	54.2651	99.9106	
   117	 2.4637	 0.5123	 2.9760	 2.6202	 0.4704	 3.0906	 2.8799	 0.6426	 3.5225	54.6257	99.9236	
   118	 2.7005	 0.6290	 3.3295	 2.8875	 0.2958	 3.1834	 2.8154	 0.2387	 3.0540	55.5931	99.9434	
   119	 2.5932	 0.3883	 2.9815	 2.7998	-0.0473	 2.7525	 2.5146	-0.0935	 2.4212	55.5073	99.9501	
   120	 2.3185	 0.2774	 2.5960	 2.6166	-0.2230	 2.3935	 2.3007	-0.3160	 1.9847	55.9435	99.9551	
   121	 1.9683	 0.0618	 2.0301	 2.3004	-0.4053	 1.8951	 2.0236	-0.4461	 1.5775	55.7880	99.9533	
   122	 1.5972	-0.2394	 1.3578	 1.9241	-0.6999	 1.2243	 1.6044	-0.8416	 0.7629	55.9701	99.9607	
   123	 1.1008	-0.5887	 0.5121	 1.4015	-1.1098	 0.2918	 0.9891	-1.2613	-0.2722	55.8363	99.9622	
   124	 0.9286	-0.6510	 0.2776	 1.1636	-1.2061	-0.0425	 0.7663	-1.3462	-0.5800	55.7081	99.9570	
   125	 1.1564	-0.4380	 0.7183	 1.3736	-1.0264	 0.3472	 1.0219	-1.0975	-0.0756	55.6433	99.9485	
   126	 1.7584	-0.1111	 1.6473	 1.9274	-0.6476	 1.2798	 1.5997	-0.6353	 0.9644	55.2683	99.9424	
   127	 2.1753	 0.1892	 2.3645	 2.2660	-0.2127	 2.0533	 2.0581	-0.1601	 1.8980	54.8397	99.9364	
   128	 2.2600	 0.0813	 2.3413	 2.3223	-0.2660	 2.0563	 2.2256	-0.2310	 1.9946	55.0830	99.9325	
   129	 2.2861	-0.1064	 2.1796	 2.4941	-0.2733	 2.2208	 2.7438	-0.0926	 2.6512	55.4713	99.9190	
   130	 2.6313	 0.1498	 2.7810	 2.9020	 0.1036	 3.0057	 3.3168	 0.2895	 3.6063	55.6753	99.9186	
   131	 3.0352	 0.4857	 3.5209	 3.3999	 0.4355	 3.8353	 3.7437	 0.6238	 4.3675	55.7406	99.9275	
   132	 3.4830	 0.6741	 4.1571	 3.7967	 0.5291	 4.3257	 4.0482	 0.6390	 4.6872	56.0750	99.9303	
   133	 3.4960	 0.6384	 4.1344	 3.7821	 0.5075	 4.2896	 3.9841	 0.6207	 4.6048	55.8615	99.9323	
   134	 3.3100	 0.4802	 3.7902	 3.5408	 0.3589	 3.8998	 3.7280	 0.4598	 4.1879	55.6947	99.9317	
   135	 3.0642	 0.3435	 3.4077	 3.3021	 0.2496	 3.5516	 3.6121	 0.3430	 3.9551	55.9067	99.9267	
   136	 2.8474	 0.0645	 2.9119	 3.1143	-0.1049	 3.0093	 3.4540	 0.0013	 3.4553	56.3334	99.9214	
   137	 2.9131	 0.1340	 3.0471	 3.3673	 0.1263	 3.4936	 3.7138	 0.3187	 4.0325	56.0159	99.9334	
   138	 3.3727	 0.5043	 3.8769	 3.8009	 0.0667	 3.8675	 3.7459	-0.0024	 3.7435	57.1828	99.9486	
   139	 3.0335	 0.1063	 3.1398	 3.3638	-0.3534	 3.0103	 3.1308	-0.3229	 2.8079	56.3172	99.9468	
   140	 2.6871	 0.0677	 2.7548	 3.1501	-0.4850	 2.6651	 2.8530	-0.4644	 2.3887	56.6374	99.9520	
   141	 2.2493	-0.2018	 2.0475	 2.7038	-0.7348	 1.9690	 2.4369	-0.7148	 1.7221	56.5566	99.9512	
   142	 1.8175	-0.4968	 1.3207	 2.4329	-1.0400	 1.3930	 2.0654	-1.0804	 0.9850	56.9027	99.9650	
   143	 1.3878	-0.8778	 0.5100	 1.8731	-1.4100	 0.4631	 1.5149	-1.4704	 0.0444	56.6398	99.9613	
   144	 1.1927	-0.9396	 0.2531	 1.6303	-1.5847	 0.0455	 1.2007	-1.6458	-0.4452	56.6298	99.9581	
   145	 1.3121	-0.8661	 0.4460	 1.6692	-1.5985	 0.0707	 1.2497	-1.5930	-0.3433	56.5333	99.9459	
   146	 1.8555	-0.6190	 1.2365	 2.1645	-1.3059	 0.8587	 1.8101	-1.2299	 0.5802	56.3494	99.9378	
   147	 2.3858	-0.3361	 2.0497	 2.6604	-0.8999	 1.7605	 2.4250	-0.7223	 1.7027	55.9454	99.9291	
   148	 2.7928	-0.0710	 2.7218	 3.0431	-0.5007	 2.5425	 2.8565	-0.4071	 2.4493	55.9035	99.9384	
   149	 2.8078	-0.1928	 2.6151	 3.0666	-0.5491	 2.5176	 3.0944	-0.3568	 2.7376	56.0226	99.9234	
   150	 2.9073	-0.0733	 2.8340	 3.1803	-0.2151	 2.9652	 3.4620	 0.0394	 3.5015	55.7834	99.9166	
   151	 3.1299	 0.2966	 3.4266	 3.4577	 0.1946	 3.6523	 3.7855	 0.4629	 4.2484	55.7251	99.9182	
   152	 3.3776	 0.5801	 3.9576	 3.7650	 0.4467	 4.2117	 4.0779	 0.6577	 4.7356	56.0595	99.9244	
   153	 3.6751	 0.6905	 4.3656	 4.0402	 0.5032	 4.5434	 4.2027	 0.6370	 4.8397	56.1506	99.9342	
   154	 3.4393	 0.5890	 4.0282	 3.7642	 0.4337	 4.1978	 3.9119	 0.5644	 4.4763	55.8461	99.9350	
   155	 3.2362	 0.5222	 3.7584	 3.5761	 0.3932	 3.9693	 3.8022	 0.5505	 4.3528	55.8329	99.9309	
   156	 3.2811	 0.5061	 3.7872	 3.7066	 0.3605	 4.0671	 4.0009	 0.5212	 4.5222	56.3021	99.9300	
   157	 3.2676	 0.0612	 3.3287	 3.6240	-0.2182	 3.4058	 3.8885	-0.0119	 3.8766	56.6755	99.9174	
   158	 3.4089	 0.1190	 3.5279	 4.1120	-0.0433	 4.0687	 4.4248	 0.2370	 4.6618	57.0845	99.9335	
   159	 3.9612	 0.3863	 4.3475	 4.5553	-0.1598	 4.3955	 4.4345	-0.0762	 4.3583	57.7614	99.9447	
   160	 3.4249	 0.0125	 3.4374	 3.9359	-0.5288	 3.4071	 3.6498	-0.3601	 3.2897	56.7924	99.9447	
   161	 2.8524	 0.0239	 2.8763	 3.5010	-0.5957	 2.9054	 3.2276	-0.4272	 2.8004	57.0503	99.9462	
   162	 2.3976	-0.1542	 2.2434	 3.0345	-0.7448	 2.2897	 2.7582	-0.6121	 2.1461	56.8798	99.9497	
   163	 2.1479	-0.3516	 1.7963	 2.8557	-0.9555	 1.9002	 2.4875	-0.8262	 1.6612	56.8762	99.9566	
   164	 1.8007	-0.6381	 1.1626	 2.4105	-1.2926	 1.1180	 1.9376	-1.2048	 0.7328	56.6596	99.9579	
   165	 1.4614	-0.8033	 0.6580	 1.9237	-1.5548	 0.3689	 1.4224	-1.4845	-0.0622	56.4892	99.9497	
   166	 1.4205	-0.7266	 0.6939	 1.8122	-1.5355	 0.2768	 1.4041	-1.4079	-0.0038	56.4580	99.9341	
   167	 1.9428	-0.3323	 1.6105	 2.4718	-1.0537	 1.4181	 2.1956	-0.8225	 1.3731	56.5506	99.9308	
   168	 2.7220	 0.0164	 2.7384	 3.1938	-0.6341	 2.5597	 2.9840	-0.3821	 2.6020	56.5065	99.9268	
   169	 3.1947	 0.2346	 3.4293	 3.6155	-0.2486	 3.3669	 3.3990	-0.0552	 3.3438	56.1389	99.9386	
   170	 3.1978	 0.1637	 3.3615	 3.4279	-0.1757	 3.2522	 3.3201	 0.0603	 3.3804	55.3772	99.9283	
   171	 2.7954	 0.3236	 3.1189	 3.0950	 0.2225	 3.3175	 3.3386	 0.5565	 3.8951	54.9908	99.9175	
   172	 2.8826	 0.7266	 3.6092	 3.3773	 0.7106	 4.0880	 3.7672	 1.0130	 4.7802	55.4319	99.9259	
   173	 3.3242	 1.1731	 4.4973	 3.9396	 1.1199	 5.0595	 4.2154	 1.4158	 5.6312	55.5285	99.9367	
   174	 3.6099	 1.2180	 4.8279	 4.0519	 1.1136	 5.1655	 4.1783	 1.3704	 5.5487	55.1537	99.9367	
   175	 3.3968	 1.2324	 4.6292	 3.8618	 1.1474	 5.0092	 3.9842	 1.3806	 5.3648	55.0657	99.9404	
   176	 3.2844	 1.1486	 4.4330	 3.6713	 1.0677	 4.7390	 3.8347	 1.2756	 5.1102	55.0295	99.9363	
   177	 3.0664	 1.0872	 4.1536	 3.5428	 1.0263	 4.5691	 3.8168	 1.2643	 5.0811	55.2819	99.9335	
   178	 3.1035	 0.8335	 3.9370	 3.5897	 0.7158	 4.3054	 4.0133	 0.9143	 4.9276	56.1993	99.9247	
   179	 3.5279	 0.5417	 4.0696	 4.1387	 0.4884	 4.6271	 4.7204	 0.8632	 5.5837	56.6253	99.9127	
   180	 4.4485	 0.9483	 5.3967	 5.1940	 0.6232	 5.8173	 5.2884	 0.8788	 6.1673	57.2619	99.9406	
   181	 3.9150	 0.7363	 4.6513	 4.5592	 0.2196	 4.7788	 4.3791	 0.4285	 4.8076	56.9278	99.9438	
   182	 3.0370	 0.6324	 3.6694	 3.8381	 0.0268	 3.8649	 3.5375	 0.3401	 3.8776	56.4835	99.9457	
   183	 2.6149	 0.6054	 3.2203	 3.4617	 0.0462	 3.5079	 3.2245	 0.3747	 3.5992	56.3068	99.9460	
   184	 2.5026	 0.4053	 2.9079	 3.4149	-0.1711	 3.2438	 3.0067	 0.1828	 3.1895	56.0963	99.9546	
   185	 2.1325	 0.1192	 2.2518	 2.9447	-0.4859	 2.4587	 2.4891	-0.2306	 2.2585	56.1163	99.9575	
   186	 1.7264	-0.0143	 1.7121	 2.4327	-0.7259	 1.7068	 1.8663	-0.4898	 1.3764	55.8010	99.9547	
   187	 1.5064	 0.0103	 1.5167	 1.9788	-0.7793	 1.1995	 1.4203	-0.5719	 0.8484	55.3853	99.9423	
   188	 1.4405	 0.1735	 1.6141	 1.8237	-0.6109	 1.2127	 1.4618	-0.3586	 1.1032	55.3267	99.9235	
   189	 2.0245	 0.5768	 2.6013	 2.5903	-0.1135	 2.4767	 2.3953	 0.2059	 2.6012	55.7844	99.9236	
   190	 2.7172	 0.8867	 3.6039	 3.2896	 0.3675	 3.6571	 3.2513	 0.7218	 3.9731	55.7490	99.9226	
   191	 3.0426	 1.0725	 4.1150	 3.6497	 0.8282	 4.4779	 3.6819	 1.2126	 4.8945	55.1145	99.9342	
   192	 3.3044	 1.1027	 4.4070	 3.7050	 1.0759	 4.7808	 3.9053	 1.4961	 5.4014	54.3732	99.9241	
   193	 3.2046	 1.3323	 4.5369	 3.6172	 1.4743	 5.0915	 3.9817	 1.9075	 5.8892	54.0220	99.9236	
   194	 3.0429	 1.7859	 4.8287	 3.5198	 1.9296	 5.4494	 3.9057	 2.3552	 6.2609	53.8150	99.9264	
   195	 3.0862	 2.2201	 5.3063	 3.6663	 2.2586	 5.9249	 4.0061	 2.5945	 6.6006	54.2581	99.9343	
   196	 3.1270	 2.2598	 5.3868	 3.6249	 2.2331	 5.8580	 3.8151	 2.5626	 6.3777	53.8911	99.9359	
   197	 2.9229	 2.2942	 5.2171	 3.4592	 2.2316	 5.6907	 3.6368	 2.5496	 6.1864	53.9435	99.9373	
   198	 2.7827	 2.1351	 4.9178	 3.2962	 2.1689	 5.4651	 3.6459	 2.5113	 6.1572	53.9781	99.9300	
   199	 2.8605	 1.9210	 4.7816	 3.3921	 1.9012	 5.2933	 3.8067	 2.1389	 5.9455	54.8824	99.9308	
   200	 2.9935	 1.3770	 4.3705	 3.6005	 1.3132	 4.9137	 3.9839	 1.7547	 5.7387	54.9921	99.9202	
   201	 3.6462	 1.7789	 5.4251	 4.5798	 1.7154	 6.2952	 4.8769	 2.0296	 6.9065	56.0806	99.9479	
   202	 3.7557	 1.8171	 5.5728	 4.5614	 1.3144	 5.8758	 4.4658	 1.6722	 6.1380	56.0785	99.9380	
   203	 3.1156	 1.7287	 4.8443	 3.9481	 1.1503	 5.0984	 3.6242	 1.5837	 5.2079	55.2276	99.9422	
   204	 2.6166	 1.9310	 4.5476	 3.5211	 1.3145	 4.8356	 3.1646	 1.8455	 5.0101	54.6572	99.9385	
   205	 2.2741	 1.9530	 4.2271	 3.1057	 1.3477	 4.4534	 2.7392	 1.8204	 4.5596	54.3491	99.9407	
   206	 2.0881	 1.7948	 3.8829	 2.9974	 1.2056	 4.2030	 2.4738	 1.5986	 4.0723	54.3432	99.9575	
   207	 1.6831	 1.5600	 3.2431	 2.4632	 0.9267	 3.3899	 1.8331	 1.3281	 3.1612	53.7440	99.9550	
   208	 1.3018	 1.5727	 2.8745	 1.9213	 0.8443	 2.7656	 1.2872	 1.2053	 2.4925	53.4665	99.9465	
   209	 1.1014	 1.7842	 2.8856	 1.5753	 1.0333	 2.6087	 1.0520	 1.3878	 2.4397	53.1583	99.9332	
   210	 1.2654	 2.0743	 3.3398	 1.7745	 1.3571	 3.1316	 1.4551	 1.7071	 3.1622	53.5963	99.9255	
   211	 1.7480	 2.3278	 4.0758	 2.4069	 1.7215	 4.1284	 2.2666	 2.1511	 4.4177	53.9883	99.9232	
   212	 2.2347	 2.5255	 4.7602	 3.0312	 2.1690	 5.2002	 3.1451	 2.6590	 5.8041	54.1958	99.9259	
   213	 2.8707	 2.6696	 5.5404	 3.5064	 2.5623	 6.0686	 3.6855	 2.9766	 6.6622	53.7278	99.9337	
   214	 2.8738	 2.5987	 5.4725	 3.3419	 2.6872	 6.0291	 3.5890	 3.1802	 6.7693	52.6977	99.9272	
   215	 2.5889	 2.8017	 5.3906	 3.0600	 3.0540	 6.1140	 3.4640	 3.5751	 7.0391	52.1979	99.9254	
   216	 2.3635	 3.2161	 5.5795	 2.9370	 3.4181	 6.3551	 3.3586	 3.9163	 7.2749	52.2744	99.9285	
   217	 2.5004	 3.6788	 6.1792	 3.2018	 3.7320	 6.9339	 3.5435	 4.1316	 7.6750	52.8854	99.9375	
   218	 2.6328	 3.7166	 6.3494	 3.2269	 3.7098	 6.9367	 3.4370	 4.0757	 7.5127	52.6195	99.9388	
   219	 2.4824	 3.7551	 6.2375	 3.1017	 3.7206	 6.8224	 3.3003	 4.0889	 7.3892	52.6037	99.9391	
   220	 2.3859	 3.6811	 6.0670	 2.9655	 3.6619	 6.6274	 3.1469	 4.0145	 7.1614	52.4500	99.9399	
   221	 2.1661	 3.4730	 5.6391	 2.7503	 3.5041	 6.2544	 3.0909	 3.8472	 6.9382	52.7539	99.9345	
   222	 2.0102	 3.0713	 5.0815	 2.6406	 3.0218	 5.6624	 2.9316	 3.2956	 6.2272	53.3926	99.9394	
   223	 1.8295	 2.5235	 4.3530	 2.4057	 2.5503	 4.9560	 2.6647	 3.0509	 5.7156	52.5369	99.9282	
   224	 2.4272	 3.1389	 5.5661	 3.3672	 3.0924	 6.4596	 3.6655	 3.5916	 7.2571	53.7180	99.9391	
   225	 2.7386	 3.4615	 6.2001	 3.5888	 2.9273	 6.5161	 3.4469	 3.3883	 6.8352	53.9482	99.9349	
   226	 2.1014	 3.4186	 5.5200	 3.0307	 2.7971	 5.8278	 2.6557	 3.3755	 6.0313	53.0706	99.9379	
   227	 1.6960	 3.6493	 5.3453	 2.6803	 3.0211	 5.7014	 2.2655	 3.6478	 5.9134	52.5378	99.9389	
   228	 1.4500	 3.7453	 5.1953	 2.3804	 3.1003	 5.4808	 1.9112	 3.7555	 5.6667	51.9785	99.9365	
   229	 1.0848	 3.5351	 4.6198	 2.0562	 3.0011	 5.0573	 1.4533	 3.6659	 5.1192	51.2670	99.9506	
   230	 0.7792	 3.4197	 4.1990	 1.7328	 2.9150	 4.6478	 1.0514	 3.5566	 4.6080	50.8627	99.9565	
   231	 0.4726	 3.4056	 3.8782	 1.2119	 2.7450	 3.9569	 0.3522	 3.3594	 3.7115	50.1404	99.9505	
   232	 0.0384	 3.5459	 3.5842	 0.6377	 2.7808	 3.4185	-0.1149	 3.3081	 3.1932	50.2296	99.9396	
   233	-0.1421	 3.8277	 3.6856	 0.4080	 3.0290	 3.4370	-0.1161	 3.5716	 3.4555	50.4462	99.9211	
   234	 0.1115	 4.0857	 4.1973	 0.7644	 3.3239	 4.0884	 0.3805	 3.8287	 4.2092	51.1070	99.9234	
   235	 0.6011	 4.3289	 4.9301	 1.3579	 3.7021	 5.0600	 1.1610	 4.2310	 5.3920	51.5581	99.9244	
   236	 0.9554	 4.4888	 5.4442	 1.7942	 4.1091	 5.9033	 1.7367	 4.6589	 6.3956	51.4517	99.9337	
   237	 1.3706	 4.5261	 5.8966	 2.0869	 4.3397	 6.4266	 2.2233	 4.8435	 7.0668	51.4474	99.9311	
   238	 1.5420	 4.3405	 5.8825	 2.0797	 4.4358	 6.5154	 2.4100	 4.9938	 7.4038	50.7407	99.9232	
   239	 1.4642	 4.4382	 5.9024	 1.9943	 4.6597	 6.6540	 2.3558	 5.2351	 7.5909	50.2616	99.9269	
   240	 1.3674	 4.7133	 6.0807	 1.9105	 4.9097	 6.8202	 2.2905	 5.4803	 7.7708	50.1718	99.9256	
   241	 1.3710	 5.1231	 6.4940	 1.9585	 5.2535	 7.2120	 2.2984	 5.7055	 8.0038	50.4330	99.9342	
   242	 1.4077	 5.2185	 6.6262	 1.9285	 5.1973	 7.1258	 2.0293	 5.6135	 7.6428	50.1375	99.9388	
   243	 1.1170	 5.2142	 6.3311	 1.6461	 5.2370	 6.8830	 1.8418	 5.6388	 7.4806	50.1292	99.9372	
   244	 1.1120	 5.2547	 6.3667	 1.6639	 5.3108	 6.9748	 1.8579	 5.7150	 7.5729	50.0478	99.9398	
   245	 1.0761	 5.2909	 6.3670	 1.6258	 5.3377	 6.9635	 1.8242	 5.7269	 7.5511	50.0749	99.9399	
   246	 0.9309	 5.1723	 6.1032	 1.4345	 5.2449	 6.6794	 1.6621	 5.6029	 7.2650	50.0323	99.9394	
   247	 0.7081	 4.9188	 5.6268	 1.2532	 4.9950	 6.2482	 1.4983	 5.3569	 6.8551	50.1967	99.9402	
   248	 0.3351	 4.5872	 4.9223	 0.8401	 4.6399	 5.4800	 1.1176	 5.0296	 6.1472	50.1484	99.9337	
   249	 0.0185	 4.5379	 4.5564	 0.6975	 4.6903	 5.3878	 1.0347	 5.3628	 6.3975	49.4646	99.9259	
   250	 0.4456	 5.5868	 6.0324	 1.4212	 5.3498	 6.7710	 1.5067	 5.7806	 7.2873	50.9746	99.9479	
   251	 0.0106	 5.4791	 5.4897	 0.8386	 4.8275	 5.6661	 0.4761	 5.4082	 5.8843	49.9600	99.9327	
   252	-0.5888	 5.5467	 4.9579	 0.4265	 4.9130	 5.3395	-0.0984	 5.6638	 5.5654	48.9913	99.9387	
   253	-0.8628	 5.8001	 4.9373	 0.1384	 5.0749	 5.2133	-0.4559	 5.8135	 5.3576	48.6923	99.9373	
   254	-1.3048	 5.7027	 4.3979	-0.3313	 5.0872	 4.7559	-0.9866	 5.9425	 4.9560	47.5186	99.9376	
   255	-1.5965	 5.6832	 4.0868	-0.6900	 4.9668	 4.2768	-1.5730	 5.7172	 4.1442	47.0933	99.9477	
   256	-1.9191	 5.7757	 3.8566	-1.1815	 5.0536	 3.8721	-1.9486	 5.7564	 3.8077	46.7921	99.9382	
   257	-1.9732	 6.1208	 4.1476	-1.3110	 5.3131	 4.0021	-2.0094	 5.9824	 3.9730	46.8394	99.9285	
   258	-1.8679	 6.3312	 4.4633	-1.2185	 5.5209	 4.3024	-1.7852	 6.0903	 4.3050	47.4206	99.9280	
   259	-1.5136	 6.4911	 4.9775	-0.8310	 5.7848	 4.9538	-1.1407	 6.3302	 5.1895	48.1500	99.9232	
   260	-1.1305	 6.6251	 5.4946	-0.3376	 6.1516	 5.8140	-0.4226	 6.6493	 6.2267	48.7047	99.9333	
   261	-0.6823	 6.4644	 5.7821	-0.0539	 6.2384	 6.1845	-0.0624	 6.7325	 6.6701	48.1736	99.9353	
   262	-0.4460	 6.1004	 5.6545	 0.0284	 6.1760	 6.2043	 0.2737	 6.7014	 6.9751	47.8997	99.9278	
   263	-0.3096	 6.0825	 5.7730	 0.2335	 6.2772	 6.5107	 0.5388	 6.8240	 7.3628	47.9513	99.9325	
   264	-0.2101	 6.2020	 5.9918	 0.2753	 6.4160	 6.6913	 0.6197	 6.9299	 7.5496	47.9258	99.9306	
   265	-0.1616	 6.4793	 6.3177	 0.3617	 6.6327	 6.9944	 0.5253	 7.1678	 7.6931	47.4924	99.9381	
   266	-0.1239	 6.5898	 6.4659	 0.3350	 6.6288	 6.9638	 0.3617	 7.0210	 7.3827	47.6328	99.9453	
   267	-0.4036	 6.5195	 6.1159	 0.0711	 6.5416	 6.6127	 0.0808	 6.9215	 7.0023	47.5664	99.9469	
   268	-0.5081	 6.5570	 6.0489	-0.0111	 6.6041	 6.5930	 0.0664	 6.9675	 7.0339	47.6900	99.9464	
   269	-0.4932	 6.5517	 6.0585	 0.0225	 6.6122	 6.6348	 0.0916	 7.0054	 7.0970	47.6070	99.9466	
   270	-0.5330	 6.5272	 5.9942	-0.0553	 6.6397	 6.5845	 0.1014	 6.9785	 7.0799	47.7393	99.9459	
   271	-0.6326	 6.5241	 5.8915	-0.1286	 6.6322	 6.5036	 0.0261	 6.9642	 6.9903	47.7706	99.9473	
   272	-0.7052	 6.4648	 5.7596	-0.2097	 6.6074	 6.3978	-0.0538	 6.9691	 6.9153	47.5555	99.9468	
   273	-0.8047	 6.4618	 5.6570	-0.3219	 6.6137	 6.2918	-0.1800	 6.9669	 6.7869	47.4119	99.9479	
   274	-0.8814	 6.4582	 5.5768	-0.3997	 6.6412	 6.2415	-0.2234	 7.0056	 6.7822	47.3295	99.9469	
   275	-0.8655	 6.4680	 5.6025	-0.3600	 6.6405	 6.2805	-0.1435	 7.0008	 6.8572	47.5519	99.9456	
   276	-0.8346	 6.4725	 5.6379	-0.3211	 6.6268	 6.3057	-0.1001	 6.9620	 6.8620	47.7299	99.9462	
   277	-0.9311	 6.3985	 5.4674	-0.4375	 6.5677	 6.1302	-0.2455	 6.9257	 6.6803	47.4709	99.9463	
   278	-1.0804	 6.3357	 5.2553	-0.5789	 6.5308	 5.9519	-0.3684	 6.8815	 6.5131	47.4286	99.9473	
   279	-1.2048	 6.3028	 5.0980	-0.6859	 6.5152	 5.8293	-0.4451	 6.8443	 6.3992	47.5077	99.9483	
   280	-1.2675	 6.2787	 5.0112	-0.7410	 6.4812	 5.7402	-0.5303	 6.8569	 6.3266	47.3127	99.9473	
   281	-1.2984	 6.2743	 4.9759	-0.7281	 6.4766	 5.7485	-0.4900	 6.8602	 6.3702	47.4675	99.9474	
   282	-1.2138	 6.2827	 5.0690	-0.6211	 6.4923	 5.8712	-0.3639	 6.8623	 6.4985	47.6528	99.9483	
   283	-1.1918	 6.2671	 5.0753	-0.6332	 6.5099	 5.8767	-0.3796	 6.8855	 6.5058	47.4641	99.9482	
   284	-1.2695	 6.2484	 4.9789	-0.6944	 6.4848	 5.7903	-0.4662	 6.8751	 6.4089	47.3741	99.9491	
   285	-1.4009	 6.2258	 4.8249	-0.8456	 6.5048	 5.6592	-0.5461	 6.8800	 6.3339	47.3598	99.9474	
   286	-1.5035	 6.2936	 4.7901	-0.8925	 6.6015	 5.7090	-0.5133	 7.0437	 6.5305	47.3359	99.9435	
   287	-1.2817	 6.5320	 5.2503	-0.5783	 6.8579	 6.2796	-0.2052	 7.4025	 7.1973	47.2178	99.9430	
   288	-1.0111	 6.6986	 5.6875	-0.2362	 7.0310	 6.7948	 0.2068	 7.5843	 7.7911	47.6267	99.9422	
   289	-0.7862	 6.8661	 6.0799	-0.0347	 7.1802	 7.1455	 0.3735	 7.6890	 8.0626	47.6875	99.9446	
   290	-0.8171	 6.8617	 6.0446	-0.1097	 7.1466	 7.0369	 0.2572	 7.6600	 7.9172	47.5101	99.9433	
   291	-1.0490	 6.8208	 5.7718	-0.3833	 7.1163	 6.7331	-0.0810	 7.6567	 7.5758	46.9850	99.9439	
   292	-1.2530	 6.7389	 5.4858	-0.5693	 7.0017	 6.4324	-0.3301	 7.6103	 7.2802	46.6760	99.9426	
   293	-1.1087	 6.7259	 5.6172	-0.3890	 7.0248	 6.6359	-0.1510	 7.6347	 7.4837	46.7745	99.9457	
   294	-0.9435	 6.7984	 5.8550	-0.2252	 7.1006	 6.8754	-0.0260	 7.7133	 7.6873	46.7138	99.9475	
   295	-0.6787	 6.8741	 6.1954	 0.0560	 7.1482	 7.2042	 0.2403	 7.7595	 7.9998	46.9330	99.9477	
   296	-0.3850	 6.9239	 6.5388	 0.3369	 7.0824	 7.4192	 0.4408	 7.6653	 8.1061	47.2568	99.9474	
   297	-0.3671	 6.8476	 6.4806	 0.3461	 6.9121	 7.2582	 0.3453	 7.5061	 7.8514	47.2491	99.9472	
   298	-0.6278	 6.7163	 6.0885	 0.0530	 6.7818	 6.8348	 0.0402	 7.2924	 7.3326	47.2723	99.9513	
   299	-0.8805	 6.5898	 5.7092	-0.2012	 6.6378	 6.4367	-0.1776	 7.1005	 6.9229	47.4675	99.9513	
   300	-0.9999	 6.5162	 5.5163	-0.3374	 6.5791	 6.2417	-0.3020	 7.0334	 6.7314	47.4030	99.9512	
   301	-1.0467	 6.5020	 5.4553	-0.3285	 6.5091	 6.1806	-0.3338	 6.9803	 6.6465	47.5334	99.9520	
   302	-0.9979	 6.4302	 5.4323	-0.2677	 6.4209	 6.1531	-0.2885	 6.8766	 6.5881	47.7010	99.9533	
   303	-1.0396	 6.3754	 5.3358	-0.3573	 6.3657	 6.0083	-0.3778	 6.8205	 6.4427	47.5830	99.9514	
   304	-1.1252	 6.3518	 5.2266	-0.4558	 6.3804	 5.9246	-0.4742	 6.8370	 6.3628	47.3928	99.9524	
   305	-1.2029	 6.3331	 5.1302	-0.5454	 6.3252	 5.7798	-0.5860	 6.7888	 6.2029	47.3423	99.9510	
   306	-1.3352	 6.2953	 4.9600	-0.7362	 6.3459	 5.6097	-0.7398	 6.8023	 6.0625	47.0660	99.9499	
   307	-1.4338	 6.3074	 4.8735	-0.8003	 6.3819	 5.5816	-0.7892	 6.8373	 6.0480	47.0576	99.9518	
   308	-1.3990	 6.3724	 4.9734	-0.7366	 6.4462	 5.7096	-0.6999	 6.8934	 6.1935	47.2139	99.9521	
   309	-1.2696	 6.3648	 5.0952	-0.6211	 6.4923	 5.8712	-0.5657	 6.9337	 6.3679	47.1854	99.9532	
   310	-1.3014	 6.3452	 5.0438	-0.6729	 6.5106	 5.8376	-0.5882	 6.9416	 6.3534	47.1231	99.9532	
   311	-1.3632	 6.3363	 4.9732	-0.7248	 6.5289	 5.8041	-0.6124	 7.0145	 6.4021	46.9539	99.9506	
   312	-1.6450	 6.4684	 4.8234	-0.9845	 6.7209	 5.7364	-0.7174	 7.2678	 6.5505	46.8042	99.9432	
   313	-1.7977	 6.8256	 5.0279	-1.0775	 7.1412	 6.0637	-0.8460	 7.7926	 6.9466	46.0446	99.9448	
   314	-1.7394	 7.2545	 5.5151	-0.9390	 7.5532	 6.6142	-0.6542	 8.1223	 7.4681	46.4376	99.9493	
   315	-1.4159	 7.2936	 5.8777	-0.5568	 7.6253	 7.0684	-0.1897	 8.2270	 8.0374	46.8335	99.9472	
   316	-0.6074	 7.2673	 6.6599	 0.3152	 7.5844	 7.8996	 0.7281	 8.1541	 8.8823	47.8228	99.9483	
   317	-0.6749	 7.0511	 6.3762	 0.0501	 7.3707	 7.4208	 0.3457	 7.8918	 8.2374	47.2148	99.9487	
   318	-1.0999	 6.9787	 5.8787	-0.1841	 7.4401	 7.2560	 0.3561	 8.0635	 8.4195	47.4523	99.9453	
   319	-0.7218	 7.1532	 6.4315	 0.1616	 7.5651	 7.7268	 0.6146	 8.1709	 8.7854	47.4609	99.9470	
   320	-0.5616	 7.2664	 6.7048	 0.3538	 7.6709	 8.0247	 0.7932	 8.2831	 9.0763	47.5440	99.9483	
   321	-0.5238	 7.2606	 6.7368	 0.3408	 7.6755	 8.0163	 0.7932	 8.2831	 9.0763	47.4576	99.9463	
   322	-0.4143	 7.2989	 6.8846	 0.5038	 7.7382	 8.2420	 1.0087	 8.3414	 9.3501	47.7283	99.9471	
   323	-0.2381	 7.3055	 7.0674	 0.6825	 7.7352	 8.4177	 1.1408	 8.3474	 9.4881	47.7283	99.9485	
   324	-0.1704	 7.2889	 7.1186	 0.7161	 7.7433	 8.4594	 1.1856	 8.3315	 9.5171	47.7231	99.9489	
   325	-0.1395	 7.2934	 7.1539	 0.7809	 7.7204	 8.5014	 1.2417	 8.3117	 9.5534	47.8736	99.9493	
   326	-0.0887	 7.2519	 7.1632	 0.8121	 7.6894	 8.5015	 1.2456	 8.2811	 9.5267	47.7827	99.9502	
   327	-0.1056	 7.2269	 7.1214	 0.7837	 7.6593	 8.4431	 1.2579	 8.2008	 9.4587	48.0180	99.9502	
   328	-0.1145	 7.2069	 7.0924	 0.7578	 7.6685	 8.4263	 1.2593	 8.2237	 9.4829	47.9334	99.9487	
   329	 0.0239	 7.2193	 7.2431	 0.9754	 7.6517	 8.6271	 1.4786	 8.2514	 9.7300	48.1852	99.9482	
   330	 0.1832	 7.2009	 7.3841	 1.0946	 7.6497	 8.7443	 1.5981	 8.2384	 9.8365	48.1852	99.9478	
   331	 0.2429	 7.1795	 7.4224	 1.1412	 7.6533	 8.7945	 1.6430	 8.2225	 9.8655	48.1852	99.9494	
   332	 0.3106	 7.1630	 7.4736	 1.2190	 7.6258	 8.8448	 1.7254	 8.1642	 9.8896	48.3947	99.9506	
   333	 0.3326	 7.1474	 7.4799	 1.2319	 7.6212	 8.8531	 1.7254	 8.1642	 9.8896	48.3198	99.9510	
   334	 0.3624	 7.1366	 7.4991	 1.2838	 7.6029	 8.8867	 1.7927	 8.1404	 9.9331	48.4796	99.9511	
   335	 0.3953	 7.1714	 7.5667	 1.3381	 7.6238	 8.9619	 1.8648	 8.1968	10.0616	48.5194	99.9488	
   336	 0.5854	 7.1575	 7.7429	 1.5505	 7.6289	 9.1794	 2.0880	 8.1939	10.2819	48.7079	99.9503	
   337	 0.7269	 7.0990	 7.8259	 1.6595	 7.5704	 9.2298	 2.1578	 8.1166	10.2744	48.7083	99.9517	
   338	 0.7538	 7.0428	 7.7966	 1.7012	 7.4955	 9.1967	 2.2052	 8.0473	10.2525	48.8524	99.9510	
   339	 0.8196	 6.9960	 7.8155	 1.7401	 7.4818	 9.2218	 2.2164	 8.0433	10.2597	48.6686	99.9520	
   340	 0.8494	 6.9852	 7.8347	 1.7919	 7.4634	 9.2554	 2.2613	 8.0275	10.2887	48.7480	99.9527	
   341	 0.8733	 6.9999	 7.8733	 1.8438	 7.4451	 9.2889	 2.3061	 8.0116	10.3177	48.8921	99.9527	
   342	 0.9350	 7.0088	 7.9439	 1.8746	 7.5144	 9.3890	 2.4007	 8.0600	10.4607	48.9009	99.9519	
   343	 1.1182	 7.0052	 8.1234	 2.0922	 7.4976	 9.5898	 2.6562	 8.0224	10.6786	49.3001	99.9519	
   344	 1.2726	 6.9110	 8.1837	 2.2065	 7.4172	 9.6236	 2.7260	 7.9451	10.6711	49.2024	99.9527	
   345	 1.3006	 6.8700	 8.1705	 2.2559	 7.3596	 9.6155	 2.7509	 7.8837	10.6346	49.2970	99.9542	
   346	 1.3514	 6.8285	 8.1799	 2.2871	 7.3286	 9.6156	 2.7996	 7.8373	10.6369	49.3665	99.9537	
   347	 1.4489	 6.9176	 8.3665	 2.4111	 7.4050	 9.8161	 2.9029	 7.9352	10.8381	49.3600	99.9542	
   348	 1.4261	 6.8017	 8.2278	 2.0726	 7.1839	 9.2565	 2.2423	 7.6192	 9.8614	48.3374	99.9574	
   349	 0.8399	 6.6009	 7.4408	 1.5672	 7.0485	 8.6157	 1.9627	 7.5426	 9.5053	48.5351	99.9500	
   350	 1.3078	 6.6270	 7.9348	 2.2233	 7.0505	 9.2738	 2.7235	 7.5251	10.2486	49.7002	99.9522	
   351	 1.7529	 6.5371	 8.2900	 2.6123	 6.9131	 9.5253	 2.9927	 7.4300	10.4227	49.6188	99.9515	
   352	 1.8246	 6.4649	 8.2895	 2.7318	 6.8107	 9.5425	 3.0572	 7.3605	10.4176	49.6888	99.9529	
   353	 1.9023	 6.4836	 8.3858	 2.8428	 6.8917	 9.7346	 3.3241	 7.4181	10.7423	50.0958	99.9506	
   354	 2.1103	 6.5098	 8.6201	 2.9984	 6.8368	 9.8352	 3.3488	 7.2574	10.6062	50.2754	99.9564	
   355	 2.0465	 6.5869	 8.6335	 3.0082	 6.9936	10.0018	 3.4201	 7.4894	10.9095	50.0868	99.9560	
   356	 2.2018	 6.6243	 8.8261	 3.0678	 6.9926	10.0604	 3.4489	 7.3974	10.8463	50.2062	99.9565	
   357	 2.3184	 6.5360	 8.8544	 3.2132	 6.8811	10.0943	 3.6070	 7.2656	10.8726	50.5693	99.9570	
   358	 2.3992	 6.3674	 8.7666	 3.2374	 6.6321	 9.8695	 3.5105	 6.9957	10.5062	50.5778	99.9582	
   359	 2.1088	 6.0140	 8.1228	 2.8417	 6.2375	 9.0791	 3.0401	 6.7001	 9.7403	50.0080	99.9513	
   360	 1.8988	 5.9574	 7.8563	 2.7926	 6.1947	 8.9873	 3.0583	 6.8106	 9.8689	50.0181	99.9470	
   361	 2.1357	 6.0741	 8.2098	 3.2210	 6.1569	 9.3779	 3.4402	 6.8744	10.3146	50.6086	99.9440	
   362	 1.9256	 6.0176	 7.9433	 3.0876	 6.0370	 9.1246	 3.1825	 7.0648	10.2473	49.6956	99.9305	
   363	 2.1105	 6.3934	 8.5038	 3.5590	 6.2646	 9.8236	 3.5486	 7.6252	11.1738	49.5063	99.9160	
   364	 2.4151	 6.3772	 8.7923	 3.6495	 6.5466	10.1961	 3.6631	 7.7192	11.3823	48.9320	99.9365	
   365	 2.4289	 6.5894	 9.0183	 3.5962	 6.9662	10.5625	 3.6465	 7.9180	11.5645	48.7599	99.9554	
   366	 2.5642	 6.6727	 9.2369	 3.5784	 6.8924	10.4708	 3.5785	 7.4568	11.0354	49.7873	99.9649	
   367	 2.6272	 6.3477	 8.9749	 3.4784	 6.3532	 9.8316	 3.2322	 6.6557	 9.8879	50.3653	99.9730	
   368	 2.2374	 5.8748	 8.1122	 3.0190	 5.8942	 8.9132	 2.7862	 6.1001	 8.8863	50.5364	99.9746	
   369	 1.5259	 5.5095	 7.0355	 2.3502	 5.5828	 7.9329	 2.2212	 5.7561	 7.9773	50.6415	99.9750	
   370	 1.0353	 5.2512	 6.2865	 1.6453	 5.4376	 7.0830	 1.5485	 5.6197	 7.1682	49.6495	99.9707	
   371	 0.4091	 5.2587	 5.6677	 1.0813	 5.5301	 6.6113	 1.0901	 5.8050	 6.8951	49.1403	99.9679	
   372	 0.5822	 5.3361	 5.9184	 1.1920	 5.7114	 6.9034	 1.4026	 5.8583	 7.2609	49.6464	99.9657	
   373	 0.7673	 5.4792	 6.2465	 1.3882	 5.8825	 7.2708	 1.5994	 6.0810	 7.6804	49.4695	99.9650	
   374	 0.9144	 5.7444	 6.6588	 1.5331	 6.1854	 7.7185	 1.8651	 6.4022	 8.2673	49.5329	99.9604	
   375	 1.1701	 5.9164	 7.0864	 1.7864	 6.3164	 8.1028	 2.0675	 6.5294	 8.5969	49.5737	99.9613	
   376	 1.3045	 5.8681	 7.1727	 1.8436	 6.2761	 8.1197	 2.0693	 6.4644	 8.5338	49.3978	99.9621	
   377	 1.1693	 5.6685	 6.8378	 1.6518	 6.0700	 7.7218	 1.9108	 6.2107	 8.1214	49.5420	99.9604	
   378	 1.1058	 5.5129	 6.6186	 1.6003	 5.9880	 7.5883	 1.9304	 6.1570	 8.0874	49.5326	99.9590	
   379	 1.2472	 5.4544	 6.7016	 1.7773	 5.9588	 7.7362	 2.1575	 6.1235	 8.2810	49.8209	99.9591	
   380	 1.4603	 5.4400	 6.9003	 1.9836	 5.9728	 7.9564	 2.3657	 6.1552	 8.5208	49.8274	99.9589	
   381	 1.6643	 5.5220	 7.1862	 2.2422	 6.0818	 8.3241	 2.5597	 6.3321	 8.8918	49.6072	99.9617	
   382	 1.7190	 5.5411	 7.2601	 2.2260	 6.0341	 8.2601	 2.4451	 6.2381	 8.6833	49.5136	99.9630	
   383	 1.5767	 5.4681	 7.0448	 2.0574	 6.0937	 8.1511	 2.3690	 6.3995	 8.7685	48.9701	99.9586	
   384	 1.7041	 5.5465	 7.2505	 2.1624	 6.1835	 8.3460	 2.3562	 6.5677	 8.9239	48.3775	99.9601	
   385	 1.5787	 5.4984	 7.0771	 1.9675	 6.1388	 8.1063	 2.1886	 6.3522	 8.5407	48.6910	99.9630	
   386	 1.4214	 5.4307	 6.8521	 1.8909	 6.0791	 7.9699	 2.1764	 6.2454	 8.4218	49.1272	99.9648	
   387	 1.5220	 5.4489	 6.9709	 2.0712	 6.1022	 8.1734	 2.3680	 6.2888	 8.6568	49.3492	99.9663	
   388	 1.6753	 5.4560	 7.1313	 2.1912	 6.1132	 8.3044	 2.4802	 6.2491	 8.7293	49.4733	99.9671	
   389	 1.6555	 5.3855	 7.0410	 2.1275	 6.0489	 8.1764	 2.4119	 6.1622	 8.5741	49.4298	99.9668	
   390	 1.5310	 5.3526	 6.8836	 2.0310	 5.9894	 8.0205	 2.2889	 6.1180	 8.4069	49.4055	99.9675	
   391	 1.4454	 5.3290	 6.7745	 1.9362	 5.9562	 7.8923	 2.2108	 6.0579	 8.2687	49.4894	99.9672	
   392	 1.3439	 5.2956	 6.6395	 1.8292	 5.9405	 7.7697	 2.0781	 6.0405	 8.1186	49.3157	99.9685	
   393	 1.2513	 5.2823	 6.5336	 1.7092	 5.9295	 7.6387	 1.9551	 5.9963	 7.9514	49.2715	99.9687	
   394	 1.1836	 5.2988	 6.4825	 1.6703	 5.9432	 7.6135	 1.9901	 6.0073	 7.9974	49.5013	99.9669	
   395	 1.3439	 5.2956	 6.6395	 1.8681	 5.9268	 7.7949	 2.2126	 5.9929	 8.2056	49.8067	99.9668	
   396	 1.4953	 5.2724	 6.7676	 1.9986	 5.8940	 7.8926	 2.3262	 5.9762	 8.3024	49.8067	99.9660	
   397	 1.5480	 5.2612	 6.8092	 2.0115	 5.8895	 7.9010	 2.3136	 5.9573	 8.2709	49.7012	99.9663	
   398	 1.5311	 5.2362	 6.7674	 1.9900	 5.8636	 7.8537	 2.2930	 5.9003	 8.1932	49.7905	99.9670	
   399	 1.4913	 5.2117	 6.7031	 1.9426	 5.8470	 7.7896	 2.2288	 5.8820	 8.1109	49.6990	99.9676	
   400	 1.4595	 5.1921	 6.6516	 1.8875	 5.8130	 7.7005	 2.1476	 5.8640	 8.0115	49.5566	99.9671	
   401	 1.3978	 5.1832	 6.5810	 1.8401	 5.7964	 7.6365	 2.0498	 5.8576	 7.9074	49.4185	99.9689	
   402	 1.3450	 5.1944	 6.5394	 1.7882	 5.8147	 7.6029	 2.0624	 5.8765	 7.9389	49.5252	99.9668	
   403	 1.5352	 5.1805	 6.7157	 2.0074	 5.8241	 7.8315	 2.3715	 5.8725	 8.2440	49.9461	99.9651	
   404	 1.6726	 5.1778	 6.8503	 2.1578	 5.7910	 7.9488	 2.4836	 5.8329	 8.3165	50.0811	99.9664	
   405	 1.6856	 5.1421	 6.8276	 2.1553	 5.7518	 7.9071	 2.4644	 5.7988	 8.2632	50.0263	99.9663	
   406	 1.6896	 5.0863	 6.7759	 2.1391	 5.7041	 7.8432	 2.4213	 5.7497	 8.1710	49.9257	99.9669	
   407	 1.6727	 5.0614	 6.7341	 2.1176	 5.6783	 7.7959	 2.4073	 5.7079	 8.1152	49.9887	99.9669	
   408	 1.6329	 5.0369	 6.6698	 2.0754	 5.6397	 7.7152	 2.3254	 5.6784	 8.0038	49.8831	99.9677	
   409	 1.5553	 5.0182	 6.5735	 2.0013	 5.6192	 7.6204	 2.2585	 5.6143	 7.8728	50.0047	99.9687	
   410	 1.5234	 4.9986	 6.5220	 1.9676	 5.6110	 7.5787	 2.2360	 5.6223	 7.8583	49.9415	99.9681	
   411	 1.6538	 5.0061	 6.6599	 2.1403	 5.6168	 7.7571	 2.5016	 5.6570	 8.1587	50.2977	99.9651	
   412	 1.8669	 4.9917	 6.8586	 2.3457	 5.6177	 7.9635	 2.7340	 5.6159	 8.3498	50.5775	99.9653	
   413	 1.9336	 4.9600	 6.8937	 2.4332	 5.5334	 7.9666	 2.7582	 5.5430	 8.3012	50.6543	99.9667	
   414	 1.9227	 4.9097	 6.8324	 2.3988	 5.5122	 7.9109	 2.7390	 5.5089	 8.2478	50.6137	99.9664	
   415	 1.9278	 4.8691	 6.7968	 2.4214	 5.4507	 7.8721	 2.7309	 5.4708	 8.2017	50.6046	99.9670	
   416	 1.9328	 4.8285	 6.7613	 2.3740	 5.4341	 7.8080	 2.6767	 5.4257	 8.1023	50.4959	99.9670	
   417	 1.9019	 4.8241	 6.7260	 2.3525	 5.4082	 7.7607	 2.6364	 5.4224	 8.0587	50.4505	99.9669	
   418	 1.8551	 4.8098	 6.6650	 2.3103	 5.3697	 7.6800	 2.5754	 5.3621	 7.9375	50.5275	99.9677	
   419	 1.8153	 4.7853	 6.6007	 2.2844	 5.3789	 7.6633	 2.5947	 5.3962	 7.9909	50.5005	99.9666	
   420	 1.9846	 4.8022	 6.7868	 2.5045	 5.4013	 7.9058	 2.9283	 5.4186	 8.3469	51.0093	99.9640	
   421	 2.1827	 4.7932	 6.9759	 2.7022	 5.3849	 8.0871	 3.0880	 5.4089	 8.4970	51.0497	99.9650	
   422	 2.2733	 4.7762	 7.0495	 2.7618	 5.3839	 8.1457	 3.1091	 5.3781	 8.4872	50.9830	99.9666	
   423	 2.2385	 4.7111	 6.9496	 2.7423	 5.2839	 8.0262	 3.0836	 5.2410	 8.3246	51.2414	99.9675	
   424	 2.2177	 4.6255	 6.8432	 2.6786	 5.2195	 7.8982	 3.0129	 5.2075	 8.2204	51.0070	99.9661	
   425	 2.2098	 4.6206	 6.8304	 2.7090	 5.1754	 7.8844	 2.9989	 5.1657	 8.1646	51.0980	99.9679	
   426	 2.1779	 4.6010	 6.7789	 2.6434	 5.1852	 7.8286	 2.9295	 5.1551	 8.0846	50.9673	99.9682	
   427	 2.1461	 4.5814	 6.7275	 2.6097	 5.1771	 7.7868	 2.8945	 5.1441	 8.0386	50.9266	99.9685	
   428	 2.2307	 4.5898	 6.8205	 2.7479	 5.1617	 7.9096	 3.1348	 5.1410	 8.2759	51.4116	99.9656	
   429	 2.4288	 4.5808	 7.0096	 2.9663	 5.1580	 8.1243	 3.3798	 5.1188	 8.4986	51.7061	99.9658	
   430	 2.5264	 4.5536	 7.0800	 3.0312	 5.1351	 8.1662	 3.4134	 5.1069	 8.5204	51.5813	99.9657	
   431	 2.5384	 4.5027	 7.0411	 3.0417	 5.0913	 8.1329	 3.4166	 5.0649	 8.4815	51.5771	99.9660	
   432	 2.5365	 4.4724	 7.0089	 3.0461	 5.0563	 8.1024	 3.3914	 5.0270	 8.4184	51.5602	99.9673	
   433	 2.5205	 4.4626	 6.9831	 3.0246	 5.0305	 8.0551	 3.3655	 4.9777	 8.3432	51.6475	99.9675	
   434	 2.5017	 4.4073	 6.9090	 3.0076	 4.9697	 7.9773	 3.3172	 4.9363	 8.2535	51.5583	99.9681	
   435	 2.4619	 4.3828	 6.8447	 2.9593	 4.9400	 7.8993	 3.2854	 4.8833	 8.1686	51.6543	99.9677	
   436	 2.4918	 4.3721	 6.8639	 3.0379	 4.9256	 7.9635	 3.4616	 4.8619	 8.3236	52.0860	99.9657	
   437	 2.6978	 4.3680	 7.0658	 3.2831	 4.9258	 8.2089	 3.7549	 4.8811	 8.6360	52.3739	99.9647	
   438	 2.8552	 4.3193	 7.1745	 3.4128	 4.8800	 8.2928	 3.8492	 4.8302	 8.6794	52.3581	99.9653	
   439	 2.8812	 4.2480	 7.1291	 3.4399	 4.7836	 8.2234	 3.8444	 4.7501	 8.5944	52.3742	99.9655	
   440	 2.9021	 4.2172	 7.1193	 3.4573	 4.7440	 8.2013	 3.8349	 4.6891	 8.5241	52.4225	99.9667	
   441	 2.9051	 4.1463	 7.0514	 3.4455	 4.6613	 8.1068	 3.8056	 4.5826	 8.3882	52.4992	99.9673	
   442	 2.8395	 4.0768	 6.9163	 3.3879	 4.5882	 7.9761	 3.7380	 4.5071	 8.2451	52.5196	99.9678	
   443	 2.7917	 4.0474	 6.8391	 3.3275	 4.5761	 7.9036	 3.6851	 4.4849	 8.1700	52.4755	99.9678	
   444	 2.8007	 4.0674	 6.8681	 3.3931	 4.5663	 7.9594	 3.7783	 4.5104	 8.2887	52.6633	99.9670	
   445	 2.9988	 4.0584	 7.0572	 3.6124	 4.5757	 8.1880	 4.1052	 4.5176	 8.6229	53.0710	99.9640	
   446	 3.1801	 4.0244	 7.2045	 3.7903	 4.5596	 8.3499	 4.2801	 4.4734	 8.7535	53.2257	99.9651	
   447	 3.2637	 4.0177	 7.2814	 3.8559	 4.5497	 8.4057	 4.3362	 4.4536	 8.7898	53.2541	99.9651	
   448	 3.2737	 3.9366	 7.2103	 3.8510	 4.4713	 8.3223	 4.3068	 4.3470	 8.6539	53.2965	99.9663	
   449	 3.2449	 3.8461	 7.0910	 3.8376	 4.3625	 8.2001	 4.2281	 4.2755	 8.5035	53.1626	99.9678	
   450	 3.2519	 3.8358	 7.0877	 3.8514	 4.3710	 8.2224	 4.2729	 4.2596	 8.5326	53.2855	99.9678	
   451	 3.2370	 3.8412	 7.0781	 3.8376	 4.3625	 8.2001	 4.2505	 4.2676	 8.5181	53.2458	99.9675	
   452	 3.2589	 3.8255	 7.0844	 3.8765	 4.3487	 8.2252	 4.3132	 4.2629	 8.5762	53.3398	99.9670	
   453	 3.4621	 3.7760	 7.2380	 4.1063	 4.3143	 8.4206	 4.6321	 4.2321	 8.8642	53.7345	99.9647	
   454	 3.6553	 3.6911	 7.3464	 4.3173	 4.1930	 8.5103	 4.7909	 4.1117	 8.9026	53.9386	99.9662	
   455	 3.6733	 3.6149	 7.2882	 4.3306	 4.0881	 8.4187	 4.8033	 4.0313	 8.8346	54.0033	99.9648	
   456	 3.7201	 3.6291	 7.3492	 4.4048	 4.1086	 8.5134	 4.8898	 4.0417	 8.9315	54.1313	99.9656	
   457	 3.8107	 3.6121	 7.4228	 4.4696	 4.0857	 8.5554	 4.9333	 4.0029	 8.9362	54.1500	99.9659	
   458	 3.8127	 3.5261	 7.3388	 4.4510	 3.9988	 8.4498	 4.8941	 3.9233	 8.8174	54.0936	99.9657	
   459	 3.7780	 3.4610	 7.2390	 4.4254	 3.9076	 8.3330	 4.8469	 3.8055	 8.6524	54.2459	99.9669	
   460	 3.7521	 3.4160	 7.1681	 4.4152	 3.8511	 8.2663	 4.8613	 3.7595	 8.6208	54.3639	99.9660	
   461	 3.9642	 3.3865	 7.3507	 4.6717	 3.8206	 8.4923	 5.1868	 3.7438	 8.9307	54.7524	99.9642	
   462	 4.1514	 3.3271	 7.4785	 4.8524	 3.7434	 8.5958	 5.3582	 3.6424	 9.0006	54.9996	99.9646	
   463	 4.1675	 3.2205	 7.3880	 4.8641	 3.6123	 8.4764	 5.3222	 3.5206	 8.8429	55.0070	99.9654	
   464	 4.1387	 3.1300	 7.2687	 4.8073	 3.5522	 8.3596	 5.2764	 3.4258	 8.7022	55.0271	99.9658	
   465	 4.1418	 3.0591	 7.2009	 4.8162	 3.4823	 8.2985	 5.2887	 3.3454	 8.6342	55.1317	99.9661	
   466	 4.1309	 3.0087	 7.1396	 4.7846	 3.4000	 8.1845	 5.2219	 3.2814	 8.5032	55.0674	99.9656	
   467	 4.0503	 2.9446	 6.9948	 4.7088	 3.3533	 8.0620	 5.1444	 3.2327	 8.3772	55.0251	99.9662	
   468	 4.0194	 2.9401	 6.9595	 4.6950	 3.3448	 8.0397	 5.1781	 3.2209	 8.3990	55.1880	99.9650	
   469	 4.2106	 2.9414	 7.1519	 4.9272	 3.3496	 8.2768	 5.4998	 3.2358	 8.7356	55.5782	99.9626	
   470	 4.4396	 2.9368	 7.3764	 5.1922	 3.3494	 8.5417	 5.7699	 3.2514	 9.0213	55.7594	99.9631	
   471	 4.5272	 2.8743	 7.4016	 5.2720	 3.2478	 8.5198	 5.7511	 3.1295	 8.8806	55.7841	99.9662	
   472	 4.4408	 2.7192	 7.1600	 5.1309	 3.1106	 8.2415	 5.6661	 2.9549	 8.6210	55.9072	99.9639	
   473	 4.4079	 2.6845	 7.0924	 5.1216	 3.0671	 8.1887	 5.6145	 2.9556	 8.5701	55.7607	99.9647	
   474	 4.4289	 2.6537	 7.0826	 5.1070	 3.0456	 8.1525	 5.6104	 2.8869	 8.4973	55.8509	99.9648	
   475	 4.3553	 2.5793	 6.9345	 5.0279	 2.9466	 7.9745	 5.4563	 2.8011	 8.2574	55.7015	99.9665	
   476	 4.2697	 2.5557	 6.8254	 4.9659	 2.9084	 7.8742	 5.4139	 2.7634	 8.1773	55.8128	99.9661	
   477	 4.3921	 2.5583	 6.9504	 5.1316	 2.9099	 8.0415	 5.6266	 2.7760	 8.4026	56.0725	99.9654	
   478	 4.5744	 2.5395	 7.1138	 5.3043	 2.9157	 8.2200	 5.8169	 2.7964	 8.6133	56.0981	99.9645	
   479	 4.6471	 2.4824	 7.1294	 5.3520	 2.8320	 8.1841	 5.8106	 2.6934	 8.5040	56.1359	99.9656	
   480	 4.5884	 2.4026	 6.9910	 5.3021	 2.7762	 8.0783	 5.7886	 2.6135	 8.4021	56.2467	99.9661	
   481	 4.5715	 2.3776	 6.9491	 5.2531	 2.7334	 7.9865	 5.7217	 2.5495	 8.2712	56.2547	99.9660	
   482	 4.5645	 2.3879	 6.9524	 5.2790	 2.7242	 8.0033	 5.7396	 2.5607	 8.3003	56.2992	99.9663	
   483	 4.5317	 2.3531	 6.8848	 5.2170	 2.6860	 7.9030	 5.6793	 2.5118	 8.1912	56.2824	99.9655	
   484	 4.5238	 2.3482	 6.8720	 5.1902	 2.6821	 7.8724	 5.6727	 2.4966	 8.1694	56.3157	99.9645	
   485	 4.5765	 2.3370	 6.9136	 5.2895	 2.6804	 7.9700	 5.8451	 2.5059	 8.3510	56.5788	99.9631	
   486	 4.7120	 2.3040	 7.0160	 5.4597	 2.6470	 8.1067	 6.0287	 2.5112	 8.5399	56.6828	99.9625	
   487	 4.7768	 2.2420	 7.0187	 5.4747	 2.5683	 8.0429	 5.9643	 2.3936	 8.3579	56.6320	99.9647	
   488	 4.6405	 2.1435	 6.7840	 5.3109	 2.4925	 7.8034	 5.8095	 2.2963	 8.1058	56.5742	99.9646	
   489	 4.6504	 2.1787	 6.8291	 5.3454	 2.5137	 7.8591	 5.8505	 2.3111	 8.1616	56.6907	99.9650	
   490	 4.6345	 2.1689	 6.8034	 5.3222	 2.4618	 7.7840	 5.7559	 2.2627	 8.0186	56.6195	99.9664	
   491	 4.5459	 2.0999	 6.6458	 5.1946	 2.4334	 7.6280	 5.6554	 2.2105	 7.8659	56.5361	99.9657	
   492	 4.4832	 2.0758	 6.5590	 5.1463	 2.4037	 7.5500	 5.6211	 2.2109	 7.8320	56.5080	99.9647	
   493	 4.6007	 2.1190	 6.7197	 5.3137	 2.4314	 7.7451	 5.8477	 2.2653	 8.1130	56.7735	99.9629	
   494	 4.7848	 2.1305	 6.9153	 5.4880	 2.4633	 7.9513	 6.0096	 2.2899	 8.2995	56.7841	99.9637	
   495	 4.9271	 2.2036	 7.1307	 5.6449	 2.5348	 8.1797	 6.1326	 2.3342	 8.4667	56.8588	99.9661	
   496	 4.8933	 2.1536	 7.0470	 5.5691	 2.4881	 8.0572	 5.9872	 2.2979	 8.2850	56.5688	99.9672	
   497	 4.7062	 2.0967	 6.8029	 5.3656	 2.4131	 7.7787	 5.8390	 2.2158	 8.0548	56.6665	99.9645	
   498	 4.8756	 1.9971	 6.8727	 5.4834	 2.2846	 7.7680	 5.9687	 2.0881	 8.0568	56.8370	99.9616	
   499	 4.6687	 1.7534	 6.4221	 5.2106	 2.0537	 7.2642	 5.5778	 1.8755	 7.4533	56.3546	99.9639	
   500	 4.2854	 1.7357	 6.0211	 4.9042	 2.0283	 6.9325	 5.3592	 1.8592	 7.2184	56.5230	99.9625	
   501	 4.4040	 1.6777	 6.0817	 5.0598	 1.9733	 7.0331	 5.6378	 1.8251	 7.4629	56.9484	99.9581	
   502	 4.7657	 1.3619	 6.1275	 5.4555	 1.6264	 7.0819	 5.9712	 1.5611	 7.5324	57.1786	99.9579	
   503	 4.5417	 1.3259	 5.8675	 5.2222	 1.7089	 6.9310	 5.6936	 1.7060	 7.3996	56.3853	99.9608	
   504	 4.6081	 1.6433	 6.2514	 5.2738	 2.0046	 7.2784	 5.7754	 1.9226	 7.6980	56.5354	99.9611	
   505	 4.5811	 1.6995	 6.2806	 5.1555	 2.0197	 7.1751	 5.5330	 1.8913	 7.4243	56.2283	99.9635	
   506	 4.3741	 1.6884	 6.0625	 4.9726	 1.9574	 6.9300	 5.4217	 1.7553	 7.1770	56.7257	99.9625	
   507	 4.1732	 1.4192	 5.5924	 4.7533	 1.7342	 6.4875	 5.2536	 1.6277	 6.8812	56.4444	99.9579	
   508	 4.4210	 1.5863	 6.0073	 5.0723	 1.8553	 6.9276	 5.5320	 1.7806	 7.3126	56.5896	99.9596	
   509	 4.8140	 1.8719	 6.6858	 5.4408	 2.1326	 7.5735	 5.9085	 2.0392	 7.9478	56.6611	99.9588	
   510	 4.8937	 1.8045	 6.6982	 5.5048	 2.0967	 7.6015	 6.0543	 1.9877	 8.0420	56.8686	99.9562	
   511	 4.8190	 1.8313	 6.6503	 5.4408	 2.1326	 7.5735	 5.9692	 2.0003	 7.9694	56.8220	99.9586	
   512	 4.6309	 1.7592	 6.3901	 5.2876	 2.0131	 7.3007	 5.7846	 1.8843	 7.6689	56.9043	99.9597	
   513	 4.4846	 1.6255	 6.1101	 5.1153	 1.9070	 7.0222	 5.5909	 1.8066	 7.3975	56.6287	99.9595	
   514	 4.3513	 1.5725	 5.9238	 4.9799	 1.8613	 6.8412	 5.4777	 1.7355	 7.2132	56.6906	99.9596	
   515	 4.2856	 1.5030	 5.7886	 4.8704	 1.8064	 6.6769	 5.3488	 1.6875	 7.0363	56.4837	99.9591	
   516	 4.2140	 1.4589	 5.6729	 4.8583	 1.8241	 6.6824	 5.4487	 1.7282	 7.1769	56.6222	99.9574	
   517	 4.5356	 1.4676	 6.0032	 5.2554	 1.8174	 7.0728	 5.8358	 1.7843	 7.6202	56.8228	99.9577	
   518	 4.7178	 1.4488	 6.1666	 5.4256	 1.7839	 7.2096	 5.9592	 1.7408	 7.6999	56.8844	99.9591	
   519	 4.7288	 1.3828	 6.1116	 5.4361	 1.7402	 7.1763	 5.9200	 1.6611	 7.5811	56.8634	99.9629	
   520	 4.6463	 1.2883	 5.9346	 5.3251	 1.6592	 6.9842	 5.8002	 1.5748	 7.3750	56.7698	99.9628	
   521	 4.5776	 1.2897	 5.8673	 5.2448	 1.6474	 6.8922	 5.7123	 1.5416	 7.2539	56.7874	99.9631	
   522	 4.4462	 1.2670	 5.7132	 5.0653	 1.6374	 6.7027	 5.5431	 1.4903	 7.0334	56.7216	99.9628	
   523	 4.3387	 1.2591	 5.5977	 4.9575	 1.6087	 6.5661	 5.3760	 1.4734	 6.8493	56.5457	99.9642	
   524	 4.1814	 1.1914	 5.3728	 4.7548	 1.5467	 6.3015	 5.1269	 1.4269	 6.5538	56.2106	99.9643	
   525	 3.6907	 1.0494	 4.7401	 4.2372	 1.4289	 5.6661	 4.6518	 1.3376	 5.9893	55.8845	99.9616	
   526	 3.2496	 1.0835	 4.3331	 3.8376	 1.3964	 5.2340	 4.2502	 1.3275	 5.5777	55.8147	99.9607	
   527	 3.1680	 1.1206	 4.2885	 3.6691	 1.4560	 5.1250	 4.0291	 1.3647	 5.3938	55.3892	99.9613	
   528	 2.9747	 1.2054	 4.1801	 3.4470	 1.5077	 4.9547	 3.7820	 1.3526	 5.1346	55.3694	99.9626	
   529	 2.4919	 1.1847	 3.6765	 2.8646	 1.4128	 4.2775	 3.1087	 1.2047	 4.3134	54.9908	99.9629	
   530	 1.8697	 1.1364	 3.0061	 2.2141	 1.2886	 3.5028	 2.4650	 1.0756	 3.5406	54.8200	99.9599	
   531	 1.5739	 1.1727	 2.7466	 1.9957	 1.2923	 3.2880	 2.2544	 1.0974	 3.3518	54.8616	99.9608	
   532	 1.6685	 1.2163	 2.8848	 2.0569	 1.3174	 3.3744	 2.3442	 1.0657	 3.4098	55.1187	99.9599	
   533	 1.6238	 1.1160	 2.7398	 1.9114	 1.2152	 3.1266	 2.1736	 0.9915	 3.1651	54.7580	99.9563	
   534	 1.5570	 1.1477	 2.7047	 1.9337	 1.2541	 3.1878	 2.3091	 1.0547	 3.3638	55.1105	99.9538	
   535	 1.8936	 1.1511	 3.0446	 2.2956	 1.2131	 3.5086	 2.6582	 0.9547	 3.6129	55.6916	99.9561	
   536	 2.1766	 0.8014	 2.9780	 2.6281	 0.9152	 3.5433	 2.9878	 0.7214	 3.7091	55.8933	99.9570	
   537	 2.4116	 0.7714	 3.1830	 2.8567	 0.9681	 3.8248	 3.1822	 0.8105	 3.9927	55.5869	99.9594	
   538	 2.1329	 0.7163	 2.8492	 2.5150	 0.9084	 3.4234	 2.8882	 0.7799	 3.6681	55.3314	99.9538	
   539	 2.0889	 0.9802	 3.0691	 2.5399	 1.2002	 3.7401	 2.9259	 1.0238	 3.9497	55.3701	99.9585	
   540	 2.1207	 0.9998	 3.1205	 2.5744	 1.2215	 3.7958	 3.0429	 1.0643	 4.1072	55.5244	99.9543	
   541	 2.3327	 1.0867	 3.4193	 2.7527	 1.3188	 4.0715	 3.1904	 1.1350	 4.3253	55.4836	99.9557	
   542	 2.2490	 1.0934	 3.3424	 2.6595	 1.3116	 3.9711	 3.0807	 1.1211	 4.2018	55.4238	99.9559	
   543	 2.2390	 1.1745	 3.4135	 2.6462	 1.4165	 4.0627	 3.0862	 1.2127	 4.2989	55.3613	99.9562	
   544	 2.2828	 1.1433	 3.4262	 2.6575	 1.3858	 4.0433	 3.0214	 1.1830	 4.2044	55.1340	99.9582	
   545	 2.1843	 1.1554	 3.3397	 2.5149	 1.4362	 3.9511	 2.8882	 1.2534	 4.1416	54.7876	99.9567	
   546	 2.2529	 1.2704	 3.5232	 2.5628	 1.5662	 4.1290	 2.9487	 1.4015	 4.3503	54.6196	99.9552	
   547	 2.2687	 1.3966	 3.6652	 2.5519	 1.7104	 4.2623	 2.9525	 1.5580	 4.5105	54.4076	99.9537	
   548	 2.3621	 1.5414	 3.9035	 2.6679	 1.8698	 4.5377	 3.1426	 1.7656	 4.9082	54.4095	99.9498	
   549	 2.5998	 1.7896	 4.3895	 2.9915	 2.1697	 5.1611	 3.5331	 2.0660	 5.5991	54.6005	99.9517	
   550	 2.9988	 2.0498	 5.0486	 3.4248	 2.4241	 5.8489	 3.9569	 2.2553	 6.2122	54.9422	99.9554	
   551	 3.2247	 2.1161	 5.3409	 3.5947	 2.4910	 6.0856	 4.1272	 2.2302	 6.3574	55.1809	99.9564	
   552	 3.1711	 1.9958	 5.1669	 3.5383	 2.3305	 5.8688	 4.0086	 2.0675	 6.0761	55.2069	99.9579	
   553	 3.2179	 2.0100	 5.2279	 3.5374	 2.3175	 5.8549	 3.9385	 2.0455	 5.9840	55.0468	99.9587	
   554	 3.1392	 1.9762	 5.1154	 3.4556	 2.2796	 5.7351	 3.7798	 1.9788	 5.7587	54.9226	99.9624	
   555	 3.0507	 1.9071	 4.9578	 3.3651	 2.2113	 5.5765	 3.6912	 1.9342	 5.6254	54.8411	99.9616	
   556	 3.0567	 1.8817	 4.9384	 3.4032	 2.1845	 5.5877	 3.7585	 1.9104	 5.6689	55.0140	99.9614	
   557	 3.0716	 1.8763	 4.9480	 3.4024	 2.1714	 5.5739	 3.7406	 1.8992	 5.6398	54.9634	99.9613	
   558	 2.9731	 1.8884	 4.8615	 3.3003	 2.2342	 5.5346	 3.6425	 1.9806	 5.6231	54.6744	99.9617	
   559	 2.9420	 2.1167	 5.0587	 3.4075	 2.6773	 6.0849	 3.9427	 2.5877	 6.5303	54.1499	99.9591	
   560	 3.2998	 2.6864	 5.9862	 3.7616	 3.1468	 6.9084	 4.2798	 2.9537	 7.2335	54.5252	99.9603	
   561	 3.2691	 2.5655	 5.8346	 3.7915	 2.9893	 6.7807	 4.3784	 2.7844	 7.1629	55.0618	99.9590	
   562	 3.4069	 2.0973	 5.5043	 3.9513	 2.4719	 6.4231	 4.6003	 2.2852	 6.8854	55.7966	99.9551	
   563	 3.5564	 1.9274	 5.4838	 4.1567	 2.4728	 6.6295	 4.7826	 2.5539	 7.3366	54.7627	99.9536	
   564	 3.9005	 2.4011	 6.3016	 4.4775	 2.8337	 7.3112	 5.0670	 2.7106	 7.7777	55.4426	99.9582	
   565	 3.8647	 2.3209	 6.1856	 4.3989	 2.8481	 7.2470	 5.0758	 2.7602	 7.8359	55.1943	99.9545	
   566	 3.8905	 2.3659	 6.2565	 4.4929	 2.8684	 7.3613	 5.1294	 2.7938	 7.9232	55.2786	99.9574	
   567	 3.9503	 2.3445	 6.2948	 4.5026	 2.8115	 7.3141	 5.0895	 2.7027	 7.7922	55.3012	99.9579	
   568	 3.8856	 2.2901	 6.1758	 4.3794	 2.7482	 7.1275	 4.9420	 2.6321	 7.5741	55.1489	99.9569	
   569	 3.8010	 2.2817	 6.0827	 4.2862	 2.7410	 7.0272	 4.9056	 2.5982	 7.5038	55.2971	99.9551	
   570	 3.8837	 2.2598	 6.1435	 4.3502	 2.7050	 7.0552	 4.9305	 2.5368	 7.4673	55.3448	99.9565	
   571	 3.8858	 2.1738	 6.0595	 4.3513	 2.6178	 6.9691	 4.8966	 2.4494	 7.3460	55.3262	99.9579	
   572	 3.7654	 2.0851	 5.8505	 4.2358	 2.5717	 6.8076	 4.7551	 2.3825	 7.1375	55.1980	99.9607	
   573	 3.6241	 2.0272	 5.6513	 4.1203	 2.5257	 6.6460	 4.6275	 2.3574	 6.9849	55.0855	99.9617	
   574	 3.4429	 1.9448	 5.3878	 3.9367	 2.4503	 6.3870	 4.4180	 2.3028	 6.7208	54.8771	99.9623	
   575	 3.2090	 1.8736	 5.0826	 3.6866	 2.3717	 6.0582	 4.1675	 2.2335	 6.4010	54.7344	99.9614	
   576	 2.9214	 1.7984	 4.7198	 3.4167	 2.2933	 5.7100	 3.9111	 2.1604	 6.0715	54.6778	99.9613	
   577	 2.6755	 1.7780	 4.4535	 3.2606	 2.2349	 5.4955	 3.7804	 2.1774	 5.9578	54.7077	99.9601	
   578	 2.6882	 1.9751	 4.6633	 3.3511	 2.5169	 5.8680	 4.0395	 2.4833	 6.5228	54.8454	99.9573	
   579	 3.0384	 2.3071	 5.3454	 3.5514	 2.7534	 6.3049	 4.1588	 2.6574	 6.8162	54.7340	99.9549	
   580	 3.2265	 2.3792	 5.6057	 3.8084	 2.8363	 6.6447	 4.4594	 2.7032	 7.1626	55.1552	99.9570	
   581	 3.5511	 2.3171	 5.8681	 4.0280	 2.7454	 6.7734	 4.6077	 2.5982	 7.2059	55.1046	99.9559	
   582	 3.5572	 2.1753	 5.7325	 4.0008	 2.6281	 6.6289	 4.5802	 2.4267	 7.0069	55.2219	99.9571	
   583	 3.4319	 2.0108	 5.4427	 3.8054	 2.4700	 6.2754	 4.3640	 2.3570	 6.7210	54.7510	99.9528	
   584	 3.2706	 1.9989	 5.2695	 3.7535	 2.4883	 6.2418	 4.3668	 2.4027	 6.7695	54.8862	99.9543	
   585	 3.2846	 1.9783	 5.2629	 3.8074	 2.3958	 6.2032	 4.3395	 2.3305	 6.6701	54.9664	99.9565	
   586	 3.2269	 1.9137	 5.1406	 3.7133	 2.3756	 6.0889	 4.2449	 2.2821	 6.5271	54.8373	99.9574	
   587	 3.1056	 1.8099	 4.9155	 3.5386	 2.2302	 5.7688	 4.0720	 2.0743	 6.1463	55.0289	99.9564	
   588	 2.9951	 1.7564	 4.7515	 3.4300	 2.1884	 5.6184	 3.9458	 2.0722	 6.0180	54.8016	99.9562	
   589	 2.8497	 1.7543	 4.6040	 3.2687	 2.1519	 5.4206	 3.7714	 2.0286	 5.8000	54.7651	99.9555	
   590	 2.6457	 1.6724	 4.3181	 3.0437	 2.0510	 5.0947	 3.5511	 1.8901	 5.4412	54.8295	99.9554	
   591	 2.4347	 1.6007	 4.0354	 2.8791	 1.9622	 4.8413	 3.4372	 1.8076	 5.2449	55.0247	99.9541	
   592	 2.3332	 1.5673	 3.9005	 2.7903	 1.9201	 4.7104	 3.3770	 1.7587	 5.1358	55.1359	99.9534	
   593	 2.2287	 1.4884	 3.7172	 2.6172	 1.8009	 4.4181	 3.1361	 1.5633	 4.6994	55.1504	99.9553	
   594	 1.9302	 1.3629	 3.2930	 2.3079	 1.6229	 3.9308	 2.7610	 1.3276	 4.0885	55.2062	99.9582	
   595	 1.8009	 1.2541	 3.0550	 2.1150	 1.5040	 3.6190	 2.4972	 1.2279	 3.7251	54.8332	99.9581	
   596	 1.5002	 1.2146	 2.7148	 1.8381	 1.4215	 3.2596	 2.1766	 1.1366	 3.3132	54.7784	99.9600	
   597	 1.2823	 1.1532	 2.4354	 1.6104	 1.3817	 2.9921	 1.9909	 1.0970	 3.0879	54.6951	99.9585	
   598	 1.2563	 1.2245	 2.4808	 1.6031	 1.4778	 3.0809	 2.0343	 1.2453	 3.2796	54.5569	99.9560	
   599	 1.4095	 1.3480	 2.7575	 1.7916	 1.6316	 3.4233	 2.3450	 1.3635	 3.7085	54.9830	99.9540	
   600	 1.5538	 1.4513	 3.0051	 1.9181	 1.7473	 3.6654	 2.4728	 1.4878	 3.9606	54.8900	99.9533	
   601	 1.6433	 1.5355	 3.1788	 2.0041	 1.8505	 3.8546	 2.5193	 1.5942	 4.1135	54.7052	99.9553	
   602	 1.6810	 1.6461	 3.3271	 2.0313	 1.9678	 3.9991	 2.5224	 1.7392	 4.2616	54.4487	99.9553	
   603	 1.6929	 1.7116	 3.4045	 2.0216	 2.0247	 4.0463	 2.5119	 1.7546	 4.2665	54.5066	99.9557	
   604	 1.6451	 1.6822	 3.3274	 1.9527	 1.9822	 3.9349	 2.4218	 1.6871	 4.1089	54.5095	99.9563	
   605	 1.5526	 1.6689	 3.2215	 1.8603	 1.9881	 3.8485	 2.3433	 1.7148	 4.0581	54.3655	99.9555	
   606	 1.5704	 1.7090	 3.2795	 1.9017	 2.0136	 3.9153	 2.4141	 1.7482	 4.1623	54.5031	99.9545	
   607	 1.5914	 1.6782	 3.2696	 1.9122	 1.9698	 3.8820	 2.4061	 1.7102	 4.1162	54.4892	99.9543	
   608	 1.5297	 1.6694	 3.1990	 1.8388	 1.9623	 3.8012	 2.3360	 1.6882	 4.0242	54.4752	99.9543	
   609	 1.4470	 1.6912	 3.1382	 1.7602	 1.9767	 3.7370	 2.2344	 1.7124	 3.9467	54.3478	99.9549	
   610	 1.3853	 1.6824	 3.0676	 1.6670	 1.9696	 3.6366	 2.1366	 1.7060	 3.8426	54.2129	99.9540	
   611	 1.3116	 1.7243	 3.0359	 1.5657	 2.0455	 3.6112	 2.0595	 1.7566	 3.8161	54.0957	99.9538	
   612	 1.2697	 1.7859	 3.0555	 1.5224	 2.0942	 3.6166	 1.9547	 1.8229	 3.7775	53.8425	99.9555	
   613	 1.2696	 1.9022	 3.1718	 1.5764	 2.2154	 3.7917	 2.0397	 1.9974	 4.0371	53.7920	99.9545	
   614	 1.4587	 1.9895	 3.4482	 1.7142	 2.3003	 4.0145	 2.1718	 2.0034	 4.1751	53.9588	99.9554	
   615	 1.4139	 1.8892	 3.3032	 1.6075	 2.1843	 3.7919	 2.0366	 1.8524	 3.8890	53.9306	99.9551	
   616	 1.3353	 1.8554	 3.1907	 1.4965	 2.1033	 3.5998	 1.8601	 1.7745	 3.6346	53.7872	99.9554	
   617	 1.2757	 1.7604	 3.0361	 1.3837	 1.9962	 3.3799	 1.7179	 1.6961	 3.4140	53.5500	99.9535	
   618	 1.1792	 1.6865	 2.8657	 1.2925	 1.9148	 3.2074	 1.6160	 1.6211	 3.2370	53.5308	99.9537	
   619	 1.1454	 1.6366	 2.7819	 1.2192	 1.9074	 3.1265	 1.6040	 1.6136	 3.2176	53.4694	99.9506	
   620	 1.1922	 1.6508	 2.8430	 1.3079	 1.9495	 3.2574	 1.7476	 1.7148	 3.4625	53.4701	99.9484	
   621	 1.4957	 1.7358	 3.2315	 1.6675	 2.0830	 3.7505	 2.1827	 1.9001	 4.0829	53.6373	99.9465	
   622	 1.8640	 1.8752	 3.7392	 2.0501	 2.2684	 4.3186	 2.5729	 2.1013	 4.6742	53.6407	99.9476	
   623	 2.1247	 2.0066	 4.1313	 2.3148	 2.3687	 4.6835	 2.7733	 2.1942	 4.9675	53.6782	99.9500	
   624	 2.2402	 2.0194	 4.2596	 2.4234	 2.4104	 4.8339	 2.9141	 2.2496	 5.1637	53.6779	99.9486	
   625	 2.3258	 2.0430	 4.3688	 2.5183	 2.4437	 4.9620	 3.0020	 2.2829	 5.2849	53.6927	99.9496	
   626	 2.3795	 2.0470	 4.4265	 2.5726	 2.4646	 5.0372	 3.0609	 2.3088	 5.3697	53.6702	99.9497	
   627	 2.4114	 2.0666	 4.4780	 2.6261	 2.4724	 5.0985	 3.1058	 2.2930	 5.3987	53.8194	99.9514	
   628	 2.4403	 2.0407	 4.4810	 2.6804	 2.4933	 5.1738	 3.2869	 2.3517	 5.6386	53.9841	99.9466	
   629	 2.6532	 2.1427	 4.7960	 2.9305	 2.5720	 5.5025	 3.4971	 2.4178	 5.9148	54.1499	99.9496	
   630	 2.6433	 2.1075	 4.7508	 2.9021	 2.5419	 5.4440	 3.4600	 2.3724	 5.8324	54.1322	99.9500	
   631	 2.6224	 2.1383	 4.7607	 2.9321	 2.5981	 5.5303	 3.4609	 2.4831	 5.9441	53.9055	99.9521	
   632	 2.6263	 2.1989	 4.8252	 2.9338	 2.6243	 5.5580	 3.4206	 2.4798	 5.9005	53.9471	99.9539	
   633	 2.5766	 2.1392	 4.7158	 2.8381	 2.5779	 5.4160	 3.2963	 2.4127	 5.7090	53.7924	99.9545	
   634	 2.5368	 2.1147	 4.6515	 2.7700	 2.5485	 5.3185	 3.2354	 2.3524	 5.5878	53.8413	99.9541	
   635	 2.4900	 2.1005	 4.5905	 2.7469	 2.4966	 5.2435	 3.2617	 2.3139	 5.5756	54.0826	99.9513	
   636	 2.6522	 2.1276	 4.7798	 2.9289	 2.5458	 5.4747	 3.4607	 2.3839	 5.8445	54.1287	99.9511	
   637	 2.8732	 2.2345	 5.1076	 3.1295	 2.6820	 5.8116	 3.7265	 2.5179	 6.2444	54.2219	99.9483	
   638	 3.0502	 2.3726	 5.4228	 3.3136	 2.8708	 6.1845	 3.9503	 2.7136	 6.6639	54.1744	99.9480	
   639	 3.2761	 2.5553	 5.8314	 3.6246	 3.0750	 6.6995	 4.2977	 2.9649	 7.2626	54.2780	99.9486	
   640	 3.4830	 2.6827	 6.1657	 3.8633	 3.1843	 7.0476	 4.5324	 3.0574	 7.5898	54.4899	99.9500	
   641	 3.4075	 2.5780	 5.9854	 3.8317	 3.1020	 6.9337	 4.5818	 3.0224	 7.6042	54.6154	99.9469	
   642	 3.1865	 2.4711	 5.6576	 3.7384	 3.0948	 6.8333	 4.6039	 3.1023	 7.7061	54.5868	99.9464	
   643	 3.2779	 2.7020	 5.9799	 3.9445	 3.4229	 7.3674	 4.8447	 3.4848	 8.3295	54.3887	99.9502	
   644	 3.5913	 2.9386	 6.5299	 4.2651	 3.5701	 7.8352	 5.1004	 3.5464	 8.6468	54.7903	99.9537	
   645	 3.5307	 2.8285	 6.3591	 4.2327	 3.4747	 7.7074	 5.1047	 3.4280	 8.5327	55.0120	99.9542	
   646	 3.5237	 2.8387	 6.3624	 4.2095	 3.4228	 7.6323	 5.0603	 3.3560	 8.4163	55.1551	99.9535	
   647	 3.4571	 2.7540	 6.2111	 4.1167	 3.3153	 7.4319	 4.9160	 3.2433	 8.1593	55.0730	99.9543	
   648	 3.3984	 2.6743	 6.0727	 4.0437	 3.2075	 7.2511	 4.8365	 3.1603	 7.9968	55.0542	99.9525	
   649	 3.4174	 2.6132	 6.0306	 4.0327	 3.1379	 7.1705	 4.8548	 3.0837	 7.9385	55.1551	99.9500	
   650	 3.4174	 2.6132	 6.0306	 4.2057	 3.0433	 7.2490	 4.8685	 3.0263	 7.8948	55.3605	99.9590	
   651	 3.4375	 2.4509	 5.8883	 4.0496	 2.9849	 7.0345	 4.8689	 2.9385	 7.8074	55.2205	99.9500	
   652	 3.4732	 2.5311	 6.0043	 4.1883	 3.0829	 7.2712	 5.0990	 3.0501	 8.1491	55.5546	99.9498	
   653	 3.6185	 2.6496	 6.2681	 4.3967	 3.2364	 7.6330	 5.3070	 3.2688	 8.5758	55.4079	99.9508	
   654	 3.8125	 2.8127	 6.6252	 4.5446	 3.3778	 7.9225	 5.4055	 3.2867	 8.6921	55.6137	99.9549	
   655	 3.6802	 2.6585	 6.3387	 4.3788	 3.1625	 7.5413	 5.2087	 3.0639	 8.2726	55.6969	99.9536	
   656	 3.6126	 2.5587	 6.1713	 4.3808	 3.0884	 7.4691	 5.2669	 3.0784	 8.3453	55.6845	99.9513	
   657	 3.8266	 2.5595	 6.3861	 4.4966	 3.0341	 7.5307	 5.2968	 2.9100	 8.2068	55.8847	99.9538	
   658	 3.7751	 2.3531	 6.1281	 4.4005	 2.8743	 7.2748	 5.1742	 2.7780	 7.9522	55.6110	99.9537	
   659	 3.6666	 2.3299	 5.9965	 4.3515	 2.8315	 7.1830	 5.1497	 2.7516	 7.9013	55.7717	99.9537	
   660	 3.7760	 2.3682	 6.1443	 4.4755	 2.9079	 7.3834	 5.3823	 2.8097	 8.1920	56.0430	99.9512	
   661	 3.9292	 2.4916	 6.4209	 4.6384	 2.9706	 7.6090	 5.4808	 2.8275	 8.3083	56.2341	99.9541	
   662	 3.9422	 2.4560	 6.3982	 4.6153	 2.9186	 7.5340	 5.3960	 2.7522	 8.1483	56.1565	99.9558	
   663	 3.8686	 2.3815	 6.2502	 4.5431	 2.8239	 7.3670	 5.3296	 2.6003	 7.9299	56.4182	99.9568	
   664	 3.8010	 2.2817	 6.0827	 4.4839	 2.7246	 7.2085	 5.2494	 2.5059	 7.7553	56.4045	99.9578	
   665	 3.7752	 2.2367	 6.0119	 4.4426	 2.6991	 7.1417	 5.2038	 2.5103	 7.7142	56.2248	99.9570	
   666	 3.8509	 2.2251	 6.0759	 4.5325	 2.6540	 7.1865	 5.2943	 2.4901	 7.7843	56.3409	99.9558	
   667	 3.8609	 2.1439	 6.0048	 4.4835	 2.6112	 7.0946	 5.2578	 2.4562	 7.7140	56.1529	99.9539	
   668	 3.9137	 2.1327	 6.0464	 4.5750	 2.5922	 7.1672	 5.3952	 2.4544	 7.8496	56.3657	99.9526	
   669	 4.0291	 2.1456	 6.1748	 4.6630	 2.6212	 7.2842	 5.5049	 2.4683	 7.9731	56.4098	99.9516	
   670	 4.0291	 2.1456	 6.1748	 4.6646	 2.6474	 7.3120	 5.5049	 2.4683	 7.9731	56.4098	99.9533	
   671	 3.9754	 2.1416	 6.1170	 4.6622	 2.6082	 7.2703	 5.4737	 2.4267	 7.9004	56.5475	99.9554	
   672	 3.9505	 2.1118	 6.0623	 4.6407	 2.5823	 7.2230	 5.4215	 2.4159	 7.8374	56.4319	99.9564	
   673	 3.9426	 2.1069	 6.0494	 4.6010	 2.5830	 7.1840	 5.3970	 2.3895	 7.7865	56.4568	99.9557	
   674	 3.9575	 2.1015	 6.0590	 4.5742	 2.5791	 7.1533	 5.3521	 2.4053	 7.7575	56.2635	99.9544	
   675	 3.9495	 2.0966	 6.0461	 4.5596	 2.5575	 7.1172	 5.3119	 2.4020	 7.7139	56.1804	99.9543	
   676	 3.9953	 2.0957	 6.0910	 4.6139	 2.5784	 7.1924	 5.4215	 2.4159	 7.8374	56.3161	99.9530	
   677	 4.0421	 2.1099	 6.1521	 4.6873	 2.5859	 7.2732	 5.4842	 2.4113	 7.8955	56.4292	99.9546	
   678	 4.0402	 2.0796	 6.1198	 4.6666	 2.5732	 7.2398	 5.4149	 2.4007	 7.8156	56.2304	99.9563	
   679	 3.9635	 2.0761	 6.0396	 4.5993	 2.5569	 7.1562	 5.3613	 2.3670	 7.7283	56.3326	99.9563	
   680	 3.9157	 2.0467	 5.9624	 4.5373	 2.5187	 7.0560	 5.2958	 2.3259	 7.6217	56.3187	99.9558	
   681	 3.8988	 2.0217	 5.9206	 4.4951	 2.4801	 6.9753	 5.2310	 2.2962	 7.5271	56.2271	99.9553	
   682	 3.8451	 2.0177	 5.8628	 4.4469	 2.4504	 6.8973	 5.1998	 2.2546	 7.4544	56.3658	99.9545	
   683	 3.8441	 2.0026	 5.8467	 4.4339	 2.4550	 6.8889	 5.1774	 2.2625	 7.4399	56.2547	99.9549	
   684	 3.9297	 2.0262	 5.9559	 4.4960	 2.4932	 6.9891	 5.2779	 2.3146	 7.5926	56.2383	99.9523	
   685	 4.0064	 2.0297	 6.0361	 4.5632	 2.5095	 7.0727	 5.3077	 2.3333	 7.6410	56.1246	99.9538	
   686	 4.0083	 2.0600	 6.0683	 4.5770	 2.5180	 7.0950	 5.3143	 2.3485	 7.6629	56.1606	99.9538	
   687	 4.0093	 2.0752	 6.0845	 4.5466	 2.5621	 7.1088	 5.3052	 2.3868	 7.6920	56.0553	99.9527	
   688	 4.0481	 2.0845	 6.1326	 4.6131	 2.5654	 7.1785	 5.3364	 2.4284	 7.7648	55.9559	99.9538	
   689	 4.0809	 2.1193	 6.2002	 4.6111	 2.6396	 7.2507	 5.3497	 2.4588	 7.8085	55.9170	99.9544	
   690	 4.0680	 2.1549	 6.2229	 4.6119	 2.6526	 7.2646	 5.3346	 2.4934	 7.8279	55.8811	99.9543	
   691	 4.0550	 2.1906	 6.2456	 4.5998	 2.6703	 7.2701	 5.3636	 2.5006	 7.8643	56.0337	99.9524	
   692	 4.1187	 2.2298	 6.3485	 4.6626	 2.7216	 7.3842	 5.4642	 2.5528	 8.0170	56.0924	99.9510	
   693	 4.1734	 2.2490	 6.4224	 4.7101	 2.7382	 7.4483	 5.4775	 2.5832	 8.0606	55.9790	99.9517	
   694	 4.1435	 2.2597	 6.4032	 4.6841	 2.7474	 7.4315	 5.4484	 2.5759	 8.0243	56.0092	99.9525	
   695	 4.0977	 2.2606	 6.3583	 4.6505	 2.7392	 7.3897	 5.4014	 2.5574	 7.9589	56.0365	99.9536	
   696	 4.0679	 2.2713	 6.3392	 4.5857	 2.7621	 7.3478	 5.3566	 2.5733	 7.9298	55.9588	99.9521	
   697	 4.0459	 2.2869	 6.3329	 4.5934	 2.7794	 7.3728	 5.3408	 2.5964	 7.9372	55.9257	99.9540	
   698	 4.0310	 2.2923	 6.3233	 4.5942	 2.7925	 7.3867	 5.3474	 2.6116	 7.9590	55.9344	99.9545	
   699	 4.0151	 2.2825	 6.2976	 4.6080	 2.8010	 7.4090	 5.3989	 2.6109	 8.0099	56.0651	99.9547	
   700	 4.0211	 2.2571	 6.2781	 4.6375	 2.7438	 7.3813	 5.3857	 2.5805	 7.9662	56.0565	99.9556	
   701	 3.9465	 2.1675	 6.1140	 4.5204	 2.6716	 7.1920	 5.2421	 2.4793	 7.7213	55.9473	99.9566	
   702	 3.8261	 2.0788	 5.9049	 4.3679	 2.5651	 6.9331	 5.0760	 2.3860	 7.4620	55.8430	99.9552	
   703	 3.7137	 1.9951	 5.7088	 4.2370	 2.4845	 6.7215	 4.9437	 2.2808	 7.2244	55.8528	99.9554	
   704	 3.6063	 1.8707	 5.4770	 4.0890	 2.3430	 6.4320	 4.8033	 2.1375	 6.9407	55.8567	99.9533	
   705	 3.5606	 1.7553	 5.3159	 4.0480	 2.2172	 6.2652	 4.7469	 2.0580	 6.8049	55.7781	99.9523	
   706	 3.5229	 1.6447	 5.1676	 3.9896	 2.1310	 6.1206	 4.6404	 2.0021	 6.6425	55.5021	99.9533	
   707	 3.5737	 1.6032	 5.1769	 4.0423	 2.1257	 6.1680	 4.7599	 1.9891	 6.7490	55.6446	99.9517	
   708	 3.6503	 1.6068	 5.2571	 4.1079	 2.1159	 6.2238	 4.8524	 2.0032	 6.8556	55.6959	99.9488	
   709	 3.6026	 1.5773	 5.1799	 4.0601	 2.1996	 6.2597	 4.8463	 2.1866	 7.0329	55.1427	99.9467	
   710	 3.5328	 1.6799	 5.2127	 4.0744	 2.3215	 6.3959	 4.8764	 2.3045	 7.1809	55.2191	99.9500	
   711	 3.3486	 1.6684	 5.0171	 3.9475	 2.3062	 6.2537	 4.7191	 2.2607	 6.9798	55.2755	99.9543	
   712	 3.2769	 1.7407	 5.0176	 3.8430	 2.3298	 6.1728	 4.6311	 2.2275	 6.8586	55.4578	99.9530	
   713	 3.2053	 1.5802	 4.7856	 3.7072	 2.1707	 5.8778	 4.4816	 2.1225	 6.6041	55.1741	99.9494	
   714	 3.1268	 1.4300	 4.5568	 3.5498	 1.9858	 5.5356	 4.2796	 1.9075	 6.1870	55.1315	99.9484	
   715	 2.8932	 1.1261	 4.0192	 3.2238	 1.6467	 4.8705	 3.8824	 1.5919	 5.4743	54.8417	99.9461	
   716	 2.6125	 1.0406	 3.6531	 2.9745	 1.5811	 4.5556	 3.6578	 1.5719	 5.2297	54.6644	99.9451	
   717	 2.6314	 1.0959	 3.7272	 2.9900	 1.6157	 4.6057	 3.6137	 1.5992	 5.2128	54.5639	99.9474	
   718	 2.6751	 1.1810	 3.8561	 3.0208	 1.6850	 4.7058	 3.5873	 1.6377	 5.2250	54.4964	99.9503	
   719	 2.5984	 1.1775	 3.7759	 2.9243	 1.6256	 4.5499	 3.4602	 1.5248	 4.9850	54.6609	99.9512	
   720	 2.5257	 1.2346	 3.7603	 2.8903	 1.7177	 4.6081	 3.4156	 1.6399	 5.0555	54.4621	99.9534	
   721	 2.6828	 1.4186	 4.1015	 3.0306	 1.8419	 4.8725	 3.5414	 1.7299	 5.2713	54.6373	99.9529	
   722	 2.7315	 1.4632	 4.1948	 3.0460	 1.8765	 4.9225	 3.5414	 1.7299	 5.2713	54.6507	99.9532	
   723	 2.7296	 1.4329	 4.1625	 3.0954	 1.8190	 4.9144	 3.5750	 1.7180	 5.2930	54.7048	99.9534	
   724	 2.7863	 1.4824	 4.2686	 3.1693	 1.9398	 5.1091	 3.6699	 1.8657	 5.5356	54.4964	99.9543	
   725	 2.8330	 1.6130	 4.4459	 3.2370	 2.0696	 5.3066	 3.7059	 1.9874	 5.6933	54.4294	99.9567	
   726	 2.7802	 1.6241	 4.4043	 3.1584	 2.0840	 5.2424	 3.6582	 1.9575	 5.6157	54.5265	99.9560	
   727	 2.7264	 1.6202	 4.3466	 3.0790	 2.0853	 5.1643	 3.5770	 1.9395	 5.5164	54.4690	99.9560	
   728	 2.6627	 1.5809	 4.2437	 3.0032	 2.0386	 5.0418	 3.5213	 1.8714	 5.3927	54.5665	99.9552	
   729	 2.6299	 1.5462	 4.1761	 2.9828	 1.9255	 4.9084	 3.4741	 1.7537	 5.2278	54.7928	99.9548	
   730	 2.6528	 1.5457	 4.1985	 2.9691	 1.9171	 4.8861	 3.4338	 1.7504	 5.1842	54.6575	99.9542	
   731	 2.6806	 1.6211	 4.3017	 3.0258	 1.9772	 5.0030	 3.5297	 1.8217	 5.3514	54.8028	99.9527	
   732	 2.8219	 1.6790	 4.5009	 3.1620	 2.0359	 5.1979	 3.6818	 1.8732	 5.5550	54.8971	99.9521	
   733	 2.8468	 1.7088	 4.5556	 3.1888	 2.0398	 5.2286	 3.6594	 1.8811	 5.5405	54.8400	99.9534	
   734	 2.8239	 1.7093	 4.5332	 3.1568	 2.0578	 5.2146	 3.6257	 1.8930	 5.5187	54.7623	99.9539	
   735	 2.7741	 1.7659	 4.5400	 3.1203	 2.1108	 5.2311	 3.5994	 1.9315	 5.5309	54.8028	99.9544	
   736	 2.7840	 1.8011	 4.5851	 3.1090	 2.1415	 5.2505	 3.5790	 1.9738	 5.5528	54.6846	99.9535	
   737	 2.7929	 1.8212	 4.6141	 3.1106	 2.1677	 5.2783	 3.5573	 1.9932	 5.5505	54.6000	99.9546	
   738	 2.7561	 1.8422	 4.5982	 3.0588	 2.1860	 5.2447	 3.5237	 2.0050	 5.5287	54.5965	99.9535	
   739	 2.7112	 1.8582	 4.5695	 3.0207	 2.2128	 5.2335	 3.4854	 2.0361	 5.5215	54.5255	99.9539	
   740	 2.7282	 1.8832	 4.6114	 3.0353	 2.2344	 5.2696	 3.5152	 2.0548	 5.5700	54.5696	99.9531	
   741	 2.7212	 1.8935	 4.6146	 3.0223	 2.2389	 5.2612	 3.4816	 2.0667	 5.5482	54.4848	99.9534	
   742	 2.6296	 1.8953	 4.5249	 2.9291	 2.2318	 5.1609	 3.3666	 2.0605	 5.4272	54.3896	99.9541	
   743	 2.6007	 1.9212	 4.5218	 2.9056	 2.2802	 5.1858	 3.3403	 2.0990	 5.4394	54.3185	99.9554	
   744	 2.6195	 1.9764	 4.5960	 2.9210	 2.3148	 5.2358	 3.3358	 2.1182	 5.4539	54.3418	99.9561	
   745	 2.5469	 1.9172	 4.4641	 2.8505	 2.2462	 5.0967	 3.2517	 2.0544	 5.3061	54.3243	99.9563	
   746	 2.4215	 1.8691	 4.2906	 2.7038	 2.2312	 4.9350	 3.0958	 2.0335	 5.1293	54.1159	99.9571	
   747	 2.3299	 1.8709	 4.2008	 2.6183	 2.2414	 4.8597	 3.0127	 2.0804	 5.0931	53.9360	99.9562	
   748	 2.3816	 1.9610	 4.3426	 2.6828	 2.3188	 5.0016	 3.0968	 2.1442	 5.2409	54.0662	99.9560	
   749	 2.3965	 1.9556	 4.3522	 2.6811	 2.2927	 4.9738	 3.1013	 2.1250	 5.2264	54.0964	99.9542	
   750	 2.3587	 1.9614	 4.3201	 2.6414	 2.2934	 4.9348	 3.0379	 2.1182	 5.1561	54.0411	99.9553	
   751	 2.2661	 1.9481	 4.2142	 2.5612	 2.2816	 4.8428	 2.9521	 2.1193	 5.0714	53.9626	99.9557	
   752	 2.2193	 1.9338	 4.1532	 2.4834	 2.3091	 4.7925	 2.8960	 2.1391	 5.0351	53.8128	99.9550	
   753	 2.2074	 1.9847	 4.1920	 2.5126	 2.3522	 4.8648	 2.8949	 2.2155	 5.1104	53.7153	99.9565	
   754	 2.1864	 2.0155	 4.2019	 2.4494	 2.4013	 4.8507	 2.8500	 2.2314	 5.0814	53.6631	99.9559	
   755	 2.1107	 2.0271	 4.1378	 2.3845	 2.4242	 4.8087	 2.7827	 2.2551	 5.0378	53.5882	99.9567	
   756	 2.0809	 2.0378	 4.1187	 2.3708	 2.4157	 4.7865	 2.7603	 2.2631	 5.0233	53.5882	99.9565	
   757	 2.0162	 1.9834	 3.9996	 2.2751	 2.3693	 4.6444	 2.6723	 2.2298	 4.9022	53.4608	99.9549	
   758	 1.9415	 2.0102	 3.9517	 2.1860	 2.4275	 4.6135	 2.6050	 2.2536	 4.8587	53.4196	99.9555	
   759	 1.9037	 2.0160	 3.9197	 2.1203	 2.4374	 4.5577	 2.5258	 2.2699	 4.7958	53.2504	99.9550	
   760	 1.8618	 2.0776	 3.9394	 2.0993	 2.5250	 4.6243	 2.5135	 2.3503	 4.8638	53.1947	99.9563	
   761	 1.8279	 2.1440	 3.9719	 2.0758	 2.5733	 4.6492	 2.4609	 2.4273	 4.8882	53.0410	99.9565	
   762	 1.8248	 2.2149	 4.0398	 2.0426	 2.6786	 4.7212	 2.4367	 2.5002	 4.9368	52.9246	99.9570	
   763	 1.7989	 2.2863	 4.0852	 2.0330	 2.7355	 4.7684	 2.4111	 2.5501	 4.9612	52.9207	99.9581	
   764	 1.7779	 2.3171	 4.0950	 1.9811	 2.7538	 4.7349	 2.3879	 2.5466	 4.9345	52.9839	99.9562	
   765	 1.7084	 2.1869	 3.8953	 1.9048	 2.5937	 4.4985	 2.3526	 2.4363	 4.7889	53.0628	99.9517	
   766	 1.9483	 2.2327	 4.1810	 2.1610	 2.6635	 4.8245	 2.7047	 2.4814	 5.1862	53.4800	99.9495	
   767	 2.1852	 2.2330	 4.4182	 2.3802	 2.6729	 5.0531	 2.9346	 2.4937	 5.4283	53.5807	99.9484	
   768	 2.2578	 2.2923	 4.5501	 2.5302	 2.7401	 5.2703	 3.1160	 2.6518	 5.7678	53.5586	99.9468	
   769	 2.3015	 2.3774	 4.6790	 2.6368	 2.8561	 5.4930	 3.2431	 2.7647	 6.0078	53.6506	99.9494	
   770	 2.2806	 2.4082	 4.6888	 2.6531	 2.9038	 5.5569	 3.2816	 2.8329	 6.1145	53.6504	99.9496	
   771	 2.3791	 2.5125	 4.8916	 2.7597	 3.0198	 5.7795	 3.4298	 2.9150	 6.3448	53.8294	99.9496	
   772	 2.5462	 2.6154	 5.1616	 2.8741	 3.1531	 6.0271	 3.5285	 3.0321	 6.5606	53.6465	99.9498	
   773	 2.6736	 2.6938	 5.3674	 3.0188	 3.2422	 6.2610	 3.6675	 3.1525	 6.8200	53.5734	99.9499	
   774	 2.8169	 2.7820	 5.5989	 3.1834	 3.3310	 6.5144	 3.8283	 3.2535	 7.0818	53.6062	99.9505	
   775	 2.9064	 2.8662	 5.7726	 3.2807	 3.4036	 6.6842	 3.9197	 3.3440	 7.2637	53.5880	99.9500	
   776	 2.9373	 2.8707	 5.8079	 3.3030	 3.4424	 6.7454	 3.9488	 3.3512	 7.3000	53.5916	99.9515	
   777	 2.8755	 2.8618	 5.7373	 3.2547	 3.4127	 6.6675	 3.8615	 3.3295	 7.1910	53.5335	99.9529	
   778	 2.7730	 2.8132	 5.5863	 3.1315	 3.3494	 6.4809	 3.7498	 3.2813	 7.0310	53.4788	99.9507	
   779	 2.6187	 2.7910	 5.4098	 3.0116	 3.3383	 6.3499	 3.7095	 3.2780	 6.9874	53.6243	99.9484	
   780	 2.5551	 2.7518	 5.3069	 3.0160	 3.3033	 6.3193	 3.7095	 3.2780	 6.9874	53.6531	99.9501	
   781	 2.5859	 2.7563	 5.3422	 3.1039	 3.3324	 6.4363	 3.7988	 3.3341	 7.1329	53.6601	99.9519	
   782	 2.7362	 2.8342	 5.5704	 3.2556	 3.4258	 6.6813	 3.9438	 3.4582	 7.4020	53.5483	99.9516	
   783	 2.8068	 2.8632	 5.6700	 3.2641	 3.4562	 6.7203	 3.8811	 3.4628	 7.3439	53.3133	99.9534	
   784	 2.7680	 2.8538	 5.6218	 3.2122	 3.4745	 6.6867	 3.8250	 3.4827	 7.3076	53.1651	99.9539	
   785	 2.5630	 2.7567	 5.3198	 3.0521	 3.3507	 6.4028	 3.7739	 3.3955	 7.1694	53.4582	99.9485	
   786	 2.3292	 2.5691	 4.8984	 2.8862	 3.1354	 6.0216	 3.5558	 3.1043	 6.6601	53.7945	99.9553	
   787	 2.1981	 2.3137	 4.5118	 2.6887	 2.8378	 5.5265	 3.2518	 2.8142	 6.0660	53.5697	99.9560	
   788	 1.8439	 2.0375	 3.8814	 2.2849	 2.5262	 4.8111	 2.8130	 2.4724	 5.2854	53.5290	99.9558	
   789	 1.5624	 1.8205	 3.3829	 1.9723	 2.2959	 4.2683	 2.4480	 2.3091	 4.7571	53.1279	99.9542	
   790	 1.4738	 1.7514	 3.2252	 1.9293	 2.2443	 4.1737	 2.4677	 2.2554	 4.7231	53.3513	99.9537	
   791	 1.5833	 1.7897	 3.3730	 2.1036	 2.2763	 4.3799	 2.6257	 2.3106	 4.9363	53.4664	99.9558	
   792	 1.8172	 1.8609	 3.6781	 2.3286	 2.3771	 4.7057	 2.8485	 2.3956	 5.2441	53.4961	99.9569	
   793	 1.9754	 1.9438	 3.9192	 2.4802	 2.4705	 4.9508	 3.0383	 2.5039	 5.5422	53.5404	99.9548	
   794	 2.0809	 2.0378	 4.1187	 2.6266	 2.5858	 5.2124	 3.2124	 2.6353	 5.8476	53.5990	99.9551	
   795	 2.2311	 2.1158	 4.3469	 2.8017	 2.6309	 5.4325	 3.3749	 2.6713	 6.0463	53.7957	99.9559	
   796	 2.2690	 2.1099	 4.3789	 2.8276	 2.6217	 5.4493	 3.3907	 2.6482	 6.0390	53.8215	99.9563	
   797	 2.2680	 2.0948	 4.3628	 2.8276	 2.6217	 5.4493	 3.3974	 2.6634	 6.0608	53.7593	99.9559	
   798	 2.3794	 2.1634	 4.5428	 2.9897	 2.6713	 5.6610	 3.5950	 2.7105	 6.3055	54.0600	99.9557	
   799	 2.4939	 2.1611	 4.6550	 3.0906	 2.6958	 5.7864	 3.6987	 2.7206	 6.4193	54.0705	99.9564	
   800	 2.4920	 2.1308	 4.6227	 3.0890	 2.6696	 5.7586	 3.6966	 2.6863	 6.3829	54.1033	99.9568	
   801	 2.5547	 2.1548	 4.7095	 3.1587	 2.7252	 5.8839	 3.7820	 2.7730	 6.5551	53.9931	99.9562	
   802	 2.5954	 2.1945	 4.7899	 3.1827	 2.7902	 5.9729	 3.8377	 2.8410	 6.6787	53.9418	99.9548	
   803	 2.5934	 2.2805	 4.8739	 3.2273	 2.8679	 6.0952	 3.9074	 2.9509	 6.8582	53.9837	99.9541	
   804	 2.6749	 2.3599	 5.0348	 3.3307	 2.9316	 6.2623	 3.9729	 2.9920	 6.9649	54.0522	99.9568	
   805	 2.7974	 2.3625	 5.1598	 3.4749	 2.9074	 6.3823	 4.0672	 2.9412	 7.0083	54.2187	99.9598	
   806	 2.8620	 2.4168	 5.2789	 3.4972	 2.9463	 6.4435	 4.0983	 2.9828	 7.0811	54.1757	99.9574	
   807	 2.8850	 2.3000	 5.1851	 3.4717	 2.8551	 6.3268	 4.0756	 2.8914	 6.9670	54.0863	99.9563	
   808	 2.8791	 2.3254	 5.2045	 3.5260	 2.8760	 6.4020	 4.1860	 2.9167	 7.1027	54.3505	99.9557	
   809	 2.8920	 2.2897	 5.1818	 3.4741	 2.8943	 6.3684	 4.1523	 2.9286	 7.0809	54.1277	99.9544	
   810	 2.9517	 2.3847	 5.3364	 3.6533	 3.0047	 6.6580	 4.3239	 3.1135	 7.4374	54.1024	99.9568	
   811	 3.4102	 2.8562	 6.2664	 4.1764	 3.5280	 7.7043	 4.8603	 3.6488	 8.5091	54.0507	99.9595	
   812	 3.5824	 2.9185	 6.5009	 4.2023	 3.5188	 7.7211	 4.7570	 3.5508	 8.3078	53.9167	99.9608	
   813	 3.1834	 2.6583	 5.8417	 3.9436	 3.1961	 7.1396	 4.4464	 3.2456	 7.6920	54.2047	99.9652	
   814	 3.1992	 2.7845	 5.9837	 3.8788	 3.4327	 7.3115	 4.5434	 3.4276	 7.9709	54.1551	99.9608	
   815	 3.3854	 2.7099	 6.0954	 4.1641	 3.3319	 7.4960	 4.7743	 3.3635	 8.1378	54.4026	99.9642	
   816	 3.4283	 2.6636	 6.0918	 4.1677	 3.2839	 7.4516	 4.7835	 3.3252	 8.1087	54.3570	99.9624	
   817	 3.3428	 2.5236	 5.8664	 4.0578	 3.1156	 7.1734	 4.6504	 3.2086	 7.8590	54.2197	99.9602	
   818	 3.2721	 2.4947	 5.7668	 4.0650	 3.0195	 7.0846	 4.6574	 3.1359	 7.7934	54.5154	99.9602	
   819	 3.2454	 2.3181	 5.5635	 4.0131	 2.8241	 6.8372	 4.5445	 2.8777	 7.4222	54.6614	99.9633	
   820	 3.4606	 2.2177	 5.6783	 4.0253	 3.0202	 7.0455	 5.0076	 2.9596	 7.9672	54.9224	99.9490	
   821	 3.3241	 2.3519	 5.6760	 4.0728	 3.0369	 7.1096	 4.8182	 3.2369	 8.0552	54.1921	99.9538	
   822	 3.2245	 2.3489	 5.5734	 4.0736	 3.0499	 7.1235	 4.8340	 3.2138	 8.0478	54.4692	99.9585	
   823	 3.2534	 2.3230	 5.5764	 4.0670	 2.9454	 7.0124	 4.7513	 3.1729	 7.9242	54.2816	99.9559	
   824	 3.2067	 2.1924	 5.3991	 3.9376	 2.6771	 6.6147	 4.5515	 2.8051	 7.3566	54.6810	99.9554	
   825	 3.1172	 2.1082	 5.2254	 3.8091	 2.6357	 6.4448	 4.4727	 2.7336	 7.2063	54.6744	99.9543	
   826	 3.1042	 2.1438	 5.2481	 3.7569	 2.7543	 6.5112	 4.5133	 2.8361	 7.3494	54.5704	99.9519	
   827	 3.2296	 2.1919	 5.4216	 3.8477	 2.7222	 6.5699	 4.3380	 2.9682	 7.3062	53.6275	99.9535	
   828	 3.0273	 2.3731	 5.4004	 3.6294	 2.9397	 6.5690	 4.3534	 3.0329	 7.3863	54.2507	99.9498	
   829	 3.2234	 2.4501	 5.6735	 3.9114	 3.0003	 6.9118	 4.4851	 3.1267	 7.6117	54.1108	99.9578	
   830	 3.3051	 2.4130	 5.7181	 3.9605	 3.0431	 7.0036	 4.5253	 3.1300	 7.6553	53.9675	99.9605	
   831	 3.2394	 2.3435	 5.5830	 3.9090	 2.9611	 6.8701	 4.5258	 3.0422	 7.5679	54.1926	99.9588	
   832	 3.4097	 2.3755	 5.7852	 4.1039	 3.0058	 7.1097	 4.7804	 3.1802	 7.9606	54.1670	99.9541	
   833	 3.5391	 2.3679	 5.9070	 4.3604	 2.9753	 7.3357	 5.4172	 3.0078	 8.4250	55.9469	99.9464	
   834	 3.5452	 2.2261	 5.7713	 4.2692	 2.8940	 7.1632	 4.8959	 2.9114	 7.8073	54.6647	99.9632	
   835	 2.7979	 1.7806	 4.5786	 3.4516	 2.4280	 5.8795	 4.1025	 2.5780	 6.6804	54.0730	99.9552	
   836	 2.6656	 1.7428	 4.4084	 3.4030	 2.4986	 5.9016	 4.2124	 2.6911	 6.9035	54.1602	99.9531	
   837	 2.9552	 1.8483	 4.8035	 3.6911	 2.5504	 6.2416	 4.2758	 2.6979	 6.9737	54.0067	99.9623	
   838	 2.8049	 1.7704	 4.5753	 3.4532	 2.4541	 5.9073	 4.0555	 2.5595	 6.6150	53.9768	99.9596	
   839	 2.4198	 1.6060	 4.0258	 2.9842	 2.2657	 5.2500	 3.5419	 2.4019	 5.9438	53.5117	99.9570	
   840	 2.0904	 1.4760	 3.5664	 2.6150	 2.1891	 4.8041	 3.2571	 2.3330	 5.5901	53.3228	99.9532	
   841	 2.0225	 1.6089	 3.6315	 2.6463	 2.3718	 5.0181	 3.5052	 2.7422	 6.2475	53.1491	99.9392	
   842	 2.4134	 1.9806	 4.3940	 3.0785	 2.7134	 5.7919	 3.7235	 2.8463	 6.5698	53.4945	99.9590	
   843	 2.7010	 2.1721	 4.8731	 3.3007	 2.8754	 6.1761	 3.9550	 2.9808	 6.9358	53.5700	99.9565	
   844	 2.8662	 2.2447	 5.1109	 3.4336	 2.8819	 6.3155	 4.0356	 2.9874	 7.0230	53.6095	99.9556	
   845	 3.0463	 2.3120	 5.3583	 3.6241	 2.9616	 6.5857	 4.2101	 3.0310	 7.2410	53.7318	99.9582	
   846	 3.2305	 2.3235	 5.5540	 3.8563	 2.9664	 6.8227	 4.4385	 3.0204	 7.4589	54.0149	99.9602	
   847	 2.8424	 2.1137	 4.9561	 3.3289	 2.6918	 6.0207	 3.8427	 2.7340	 6.5767	53.6353	99.9570	
   848	 2.2653	 1.8166	 4.0818	 2.7274	 2.3966	 5.1240	 3.2852	 2.2296	 5.5148	54.1622	99.9608	
   849	 2.0763	 1.6129	 3.6892	 2.5380	 2.2297	 4.7677	 2.7889	 2.8316	 5.6206	50.9781	99.9457	
   850	 2.1389	 1.7533	 3.8922	 2.7671	 2.3959	 5.1630	 3.3376	 2.5267	 5.8643	53.4827	99.9585	
   851	 2.0614	 1.6183	 3.6796	 2.6025	 2.3071	 4.9096	 3.2802	 2.3366	 5.6168	53.7480	99.9555	
   852	 2.1351	 1.5763	 3.7114	 2.7865	 2.2822	 5.0687	 3.3039	 2.5386	 5.8425	52.9692	99.9589	
   853	 2.5357	 2.2159	 4.7516	 3.0823	 3.0928	 6.1752	 4.0522	 3.2621	 7.3143	53.3788	99.9433	
   854	 3.0484	 2.2259	 5.2743	 3.8315	 2.8883	 6.7198	 4.4502	 2.9286	 7.3787	54.4274	99.9647	
   855	 3.1740	 2.0413	 5.2153	 3.8736	 2.7131	 6.5867	 4.5064	 2.7217	 7.2281	54.5375	99.9626	
   856	 3.2159	 1.9797	 5.1956	 3.8877	 2.6212	 6.5090	 4.3582	 2.6396	 6.9978	54.2050	99.9668	
   857	 3.1353	 1.9155	 5.0509	 3.7661	 2.5840	 6.3502	 4.3246	 2.6515	 6.9760	54.0883	99.9615	
   858	 2.7801	 1.7405	 4.5206	 3.3997	 2.4463	 5.8460	 3.9266	 2.5115	 6.4381	53.7796	99.9634	
   859	 2.0088	 1.3967	 3.4055	 2.5156	 1.9771	 4.4927	 3.0116	 2.1567	 5.1683	53.2067	99.9536	
   860	 1.5957	 1.2734	 2.8692	 2.2898	 1.8631	 4.1529	 2.8785	 2.0401	 4.9186	53.7156	99.9568	
   861	 1.8674	 1.4552	 3.3225	 2.5428	 2.0944	 4.6372	 3.1927	 2.2155	 5.4082	53.8820	99.9570	
   862	 1.8088	 1.2590	 3.0679	 2.3701	 1.8748	 4.2449	 2.9381	 2.0775	 5.0156	53.3213	99.9527	
   863	 1.6664	 1.3023	 2.9688	 2.3559	 1.9667	 4.3226	 3.0592	 2.1867	 5.2459	53.6603	99.9523	
   864	 2.0006	 1.6245	 3.6252	 2.8879	 2.4200	 5.3079	 3.7183	 2.6669	 6.3853	53.9675	99.9569	
   865	 2.9291	 2.0360	 4.9651	 3.6686	 2.8256	 6.4942	 4.4934	 2.7906	 7.2839	54.7294	99.9604	
   866	 3.0358	 1.9125	 4.9482	 3.7289	 2.6239	 6.3528	 4.2307	 2.6145	 6.8452	54.1431	99.9684	
   867	 2.5710	 1.6991	 4.2702	 3.1075	 2.3291	 5.4366	 3.5944	 2.5120	 6.1064	53.2427	99.9564	
   868	 2.0266	 1.5532	 3.5798	 2.6155	 2.3025	 4.9180	 3.3112	 2.5653	 5.8765	53.0582	99.9499	
   869	 2.6385	 1.9154	 4.5539	 3.4578	 2.6329	 6.0906	 4.1721	 2.6878	 6.8599	54.5088	99.9631	
   870	 3.0100	 1.7511	 4.7611	 3.6566	 2.3155	 5.9720	 4.1619	 2.3290	 6.4909	54.5128	99.9631	
   871	 2.8895	 1.7788	 4.6683	 3.5740	 2.4782	 6.0522	 4.0958	 2.5628	 6.6586	53.9303	99.9649	
   872	 2.5541	 1.6742	 4.2283	 3.1820	 2.2493	 5.4313	 3.6419	 2.2555	 5.8974	54.1099	99.9648	
   873	 1.3580	 1.0252	 2.3832	 1.8261	 1.6528	 3.4789	 2.4070	 1.8209	 4.2279	53.0646	99.9503	
   874	 1.0494	 0.9808	 2.0302	 1.6623	 1.5771	 3.2394	 2.3317	 1.8066	 4.1383	53.3975	99.9483	
   875	 1.1609	 1.0494	 2.2102	 1.8010	 1.6751	 3.4761	 2.4746	 1.8964	 4.3710	53.4346	99.9505	
   876	 1.2027	 1.1042	 2.3068	 1.8533	 1.7702	 3.6235	 2.6042	 1.9558	 4.5600	53.6280	99.9501	
   877	 1.3241	 1.0916	 2.4158	 1.9570	 1.7335	 3.6905	 2.6484	 1.9285	 4.5769	53.5661	99.9510	
   878	 1.3460	 1.0760	 2.4221	 2.0211	 1.6975	 3.7186	 2.6866	 1.8975	 4.5841	53.6792	99.9529	
   879	 1.4087	 1.1001	 2.5088	 2.0717	 1.7665	 3.8382	 2.7535	 1.9615	 4.7150	53.5916	99.9533	
   880	 1.4326	 1.1148	 2.5474	 2.0960	 1.7312	 3.8272	 2.7640	 1.9461	 4.7101	53.6536	99.9515	
   881	 1.4326	 1.1148	 2.5474	 2.1090	 1.7266	 3.8356	 2.7752	 1.9421	 4.7174	53.6936	99.9519	
   882	 1.4645	 1.1344	 2.5988	 2.1589	 1.7824	 3.9413	 2.8572	 1.9716	 4.8288	53.7951	99.9534	
   883	 1.5361	 1.1785	 2.7146	 2.2399	 1.8072	 4.0472	 2.9234	 2.0242	 4.9476	53.7695	99.9527	
   884	 1.6068	 1.2074	 2.8142	 2.3295	 1.8624	 4.1920	 3.0351	 2.0724	 5.1076	53.8378	99.9535	
   885	 1.7042	 1.2965	 3.0008	 2.4646	 2.0085	 4.4730	 3.2225	 2.2342	 5.4567	53.8398	99.9538	
   886	 2.0505	 1.5679	 3.6183	 2.8692	 2.3331	 5.2023	 3.6144	 2.5575	 6.1719	53.8200	99.9580	
   887	 2.3997	 1.7683	 4.1681	 3.1777	 2.4980	 5.6757	 3.8557	 2.6652	 6.5209	53.9063	99.9602	
   888	 2.5451	 1.7705	 4.3156	 3.2409	 2.4490	 5.6898	 3.8845	 2.5731	 6.4576	53.9907	99.9588	
   889	 2.4008	 1.6671	 4.0679	 3.0564	 2.3605	 5.4169	 3.7114	 2.5525	 6.2639	53.6563	99.9550	
   890	 2.4655	 1.7215	 4.1870	 3.2157	 2.4712	 5.6870	 3.9661	 2.6905	 6.6565	53.8766	99.9550	
   891	 2.7719	 1.9683	 4.7402	 3.6394	 2.7825	 6.4219	 4.4722	 3.0085	 7.4807	54.1652	99.9572	
   892	 3.2167	 2.2276	 5.4443	 4.1133	 3.0493	 7.1625	 4.9201	 3.3120	 8.2321	54.1334	99.9582	
   893	 3.4197	 2.2944	 5.7141	 4.2677	 3.0815	 7.3492	 5.0435	 3.2684	 8.3119	54.3424	99.9593	
   894	 3.2486	 2.1308	 5.3795	 4.0747	 2.9627	 7.0374	 4.8141	 3.1683	 7.9823	54.0277	99.9606	
   895	 3.4215	 2.4411	 5.8626	 4.3861	 3.2802	 7.6663	 5.2238	 3.5028	 8.7266	54.4086	99.9609	
   896	 3.6336	 2.4115	 6.0452	 4.3954	 3.1099	 7.5053	 5.1021	 3.1951	 8.2972	54.5779	99.9601	
   897	 3.3919	 2.2190	 5.6109	 4.1525	 2.9352	 7.0877	 4.9150	 3.1326	 8.0476	54.3148	99.9545	
   898	 3.2018	 2.1166	 5.3184	 4.0054	 2.8068	 6.8122	 4.7056	 2.8909	 7.5966	54.6357	99.9616	
   899	 2.7383	 1.6857	 4.4240	 3.3802	 2.3463	 5.7265	 4.0864	 2.5018	 6.5882	54.1551	99.9525	
   900	 2.5631	 1.6942	 4.2573	 3.3851	 2.4247	 5.8098	 4.2639	 2.6904	 6.9544	54.3623	99.9495	
   901	 3.2366	 2.1817	 5.4183	 4.2150	 3.0868	 7.3018	 5.1699	 3.3699	 8.5398	54.4224	99.9565	
   902	 3.7819	 2.4592	 6.2411	 4.6791	 3.1967	 7.8758	 5.5028	 3.3809	 8.8837	54.8300	99.9577	
   903	 3.8636	 2.4221	 6.2857	 4.6300	 3.1539	 7.7840	 5.3906	 3.4205	 8.8111	54.2219	99.9526	
   904	 3.8635	 2.5385	 6.4020	 4.7124	 3.3052	 8.0176	 5.5423	 3.5598	 9.1021	54.4337	99.9541	
   905	 4.2604	 2.8847	 7.1451	 5.2455	 3.6713	 8.9168	 6.0333	 3.9124	 9.9457	54.6336	99.9615	
   906	 4.3809	 2.8570	 7.2379	 5.2078	 3.5978	 8.8056	 5.9801	 3.7909	 9.7710	54.5890	99.9572	
   907	 4.1450	 2.7555	 6.9005	 4.9621	 3.4842	 8.4463	 5.7307	 3.6452	 9.3759	54.6141	99.9578	
   908	 3.8078	 2.5042	 6.3120	 4.6151	 3.2327	 7.8478	 5.3998	 3.3822	 8.7820	54.6362	99.9572	
   909	 3.5909	 2.3416	 5.9324	 4.4188	 3.0615	 7.4804	 5.1827	 3.2017	 8.3844	54.6712	99.9588	
   910	 3.3760	 2.2092	 5.5852	 4.2336	 2.9600	 7.1936	 5.1485	 3.0151	 8.1635	55.2238	99.9572	
   911	 3.2656	 2.0394	 5.3051	 4.0434	 2.7800	 6.8234	 4.7638	 2.9055	 7.6693	54.4455	99.9599	
   912	 2.9711	 1.8581	 4.8292	 3.7143	 2.6024	 6.3166	 4.4972	 2.7600	 7.2572	54.3547	99.9553	
   913	 2.9164	 1.8390	 4.7553	 3.6798	 2.5811	 6.2610	 4.5652	 2.7476	 7.3129	54.6101	99.9512	
   914	 2.9980	 1.8019	 4.8000	 3.7799	 2.5925	 6.3725	 4.6994	 2.7879	 7.4873	54.5847	99.9507	
   915	 3.2796	 2.0189	 5.2985	 4.1590	 2.8260	 6.9850	 5.0251	 3.0586	 8.0837	54.5502	99.9557	
   916	 3.5403	 2.1503	 5.6906	 4.3892	 2.9050	 7.2942	 5.1613	 3.1333	 8.2946	54.4861	99.9572	
   917	 3.5532	 2.2310	 5.7842	 4.4622	 3.0128	 7.4750	 5.2779	 3.2616	 8.5395	54.5442	99.9575	
   918	 3.7193	 2.3188	 6.0381	 4.5761	 3.0327	 7.6088	 5.2923	 3.2156	 8.5079	54.6137	99.9601	
   919	 3.4040	 2.0518	 5.4558	 4.1987	 2.8254	 7.0240	 4.9624	 3.0633	 8.0256	54.2389	99.9559	
   920	 3.4427	 2.1776	 5.6203	 4.3199	 2.9629	 7.2828	 5.1021	 3.1951	 8.2972	54.3971	99.9585	
   921	 3.2667	 1.9382	 5.2049	 4.0175	 2.7892	 6.8067	 4.9412	 2.8077	 7.7489	54.9310	99.9567	
   922	 3.0148	 1.9433	 4.9581	 3.8457	 2.7964	 6.6421	 4.7139	 3.0283	 7.7422	54.1986	99.9553	
   923	 3.3761	 2.0929	 5.4690	 4.2097	 2.8950	 7.1046	 5.0159	 3.0969	 8.1129	54.4093	99.9575	
   924	 3.4846	 2.1160	 5.6006	 4.2980	 2.8237	 7.1216	 4.9877	 2.9140	 7.9017	54.7389	99.9625	
   925	 2.7803	 1.5078	 4.2881	 3.3562	 2.0675	 5.4237	 3.9038	 2.1338	 6.0375	54.3302	99.9572	
   926	 2.0736	 1.3347	 3.4083	 2.8832	 2.0276	 4.9108	 3.7404	 2.2734	 6.0137	54.4050	99.9496	
   927	 2.7779	 1.9429	 4.7208	 3.7083	 2.8249	 6.5332	 4.6915	 3.0362	 7.7277	54.5410	99.9555	
   928	 3.3163	 2.1143	 5.4306	 4.1683	 2.8695	 7.0378	 5.0454	 3.0164	 8.0618	54.8693	99.9557	
   929	 3.3273	 2.0483	 5.3757	 4.1204	 2.7394	 6.8599	 4.9162	 2.8691	 7.7854	54.8288	99.9559	
   930	 3.1621	 1.9757	 5.1379	 3.9384	 2.6902	 6.6286	 4.7239	 2.8143	 7.5382	54.6615	99.9566	
   931	 3.0994	 1.9517	 5.0511	 3.8886	 2.6343	 6.5229	 4.6840	 2.7232	 7.4072	54.8940	99.9569	
   932	 3.1254	 1.8803	 5.0057	 3.8569	 2.5520	 6.4089	 4.6501	 2.6358	 7.2859	54.8655	99.9548	
   933	 3.0877	 1.7698	 4.8575	 3.7409	 2.3925	 6.1335	 4.4996	 2.4201	 6.9197	54.9648	99.9540	
   934	 2.9096	 1.6165	 4.5261	 3.5483	 2.1733	 5.7216	 4.1693	 2.1686	 6.3379	54.8919	99.9586	
   935	 2.6479	 1.4699	 4.1178	 3.2864	 2.0120	 5.2984	 3.8096	 1.9975	 5.8071	54.6678	99.9625	
   936	 2.3802	 1.3488	 3.7290	 2.9431	 1.9262	 4.8693	 3.4316	 1.9031	 5.3347	54.2303	99.9626	
   937	 2.1692	 1.2771	 3.4463	 2.7328	 1.8469	 4.5796	 3.2168	 1.8563	 5.0731	54.0623	99.9617	
   938	 2.1941	 1.3070	 3.5011	 2.8102	 1.9197	 4.7299	 3.4098	 1.9225	 5.3323	54.3656	99.9601	
   939	 2.5771	 1.5574	 4.1345	 3.2954	 2.1558	 5.4512	 3.9665	 2.1292	 6.0956	54.9837	99.9610	
   940	 2.9363	 1.7930	 4.7294	 3.5707	 2.4260	 5.9967	 4.3289	 2.5331	 6.8619	54.5375	99.9509	
   941	 3.0078	 1.9535	 4.9614	 3.7057	 2.5720	 6.2777	 4.3880	 2.6583	 7.0463	54.5408	99.9568	
   942	 3.0208	 1.9178	 4.9387	 3.8886	 2.6343	 6.5229	 4.6392	 2.7391	 7.3782	54.8034	99.9617	
   943	 3.3891	 2.0572	 5.4463	 4.1350	 2.7610	 6.8960	 4.7954	 2.8592	 7.6546	54.4771	99.9611	
   944	 3.5402	 2.2667	 5.8069	 4.3726	 2.9576	 7.3302	 5.0542	 3.0659	 8.1201	54.6873	99.9625	
   945	 3.7471	 2.3941	 6.1412	 4.5501	 3.0419	 7.5920	 5.2669	 3.0784	 8.3453	55.0766	99.9612	
   946	 3.8467	 2.3972	 6.2439	 4.6012	 3.0105	 7.6117	 5.2336	 3.0025	 8.2361	55.0530	99.9633	
   947	 3.8766	 2.3864	 6.2630	 4.6271	 3.0013	 7.6284	 5.2315	 2.9682	 8.1997	55.0730	99.9649	
   948	 3.8965	 2.3405	 6.2371	 4.6125	 2.9798	 7.5923	 5.2249	 2.9530	 8.1779	54.9629	99.9640	
   949	 3.8667	 2.3512	 6.2179	 4.6299	 2.9402	 7.5701	 5.2698	 2.9371	 8.2069	55.1954	99.9626	
   950	 3.9185	 2.3249	 6.2434	 4.6559	 2.9310	 7.5869	 5.3125	 2.8869	 8.1995	55.2961	99.9627	
   951	 3.9105	 2.3200	 6.2305	 4.6413	 2.9095	 7.5507	 5.2590	 2.8533	 8.1122	55.2716	99.9639	
   952	 3.8548	 2.2857	 6.1405	 4.5800	 2.8843	 7.4644	 5.2120	 2.8348	 8.0468	55.2359	99.9632	
   953	 3.8618	 2.2754	 6.1372	 4.5792	 2.8713	 7.4505	 5.1896	 2.8427	 8.0323	55.1225	99.9632	
   954	 3.8627	 2.2906	 6.1533	 4.5938	 2.8928	 7.4867	 5.2278	 2.8117	 8.0395	55.3400	99.9642	
   955	 3.8299	 2.2558	 6.0858	 4.5577	 2.8455	 7.4032	 5.1518	 2.7859	 7.9377	55.2143	99.9648	
   956	 3.7583	 2.2117	 5.9700	 4.4681	 2.7903	 7.2584	 5.0737	 2.7258	 7.7995	55.2346	99.9637	
   957	 3.6727	 2.1881	 5.8608	 4.3879	 2.7785	 7.1664	 5.0288	 2.7417	 7.7705	55.1785	99.9621	
   958	 3.6647	 2.1832	 5.8480	 4.4017	 2.7870	 7.1887	 5.0982	 2.7522	 7.8504	55.3165	99.9609	
   959	 3.7662	 2.2166	 5.9829	 4.4905	 2.8292	 7.3196	 5.1584	 2.8011	 7.9595	55.2094	99.9615	
   960	 3.7891	 2.2162	 6.0053	 4.5026	 2.8115	 7.3141	 5.1431	 2.7364	 7.8794	55.3247	99.9631	
   961	 3.7792	 2.1810	 5.9602	 4.4949	 2.7942	 7.2891	 5.1140	 2.7291	 7.8431	55.2143	99.9641	
   962	 3.7484	 2.1765	 5.9249	 4.4414	 2.7864	 7.2278	 5.0513	 2.7338	 7.7850	55.0944	99.9634	
   963	 3.7165	 2.1569	 5.8734	 4.4191	 2.7475	 7.1666	 5.0201	 2.6922	 7.7122	55.1567	99.9637	
   964	 3.6926	 2.1422	 5.8348	 4.3672	 2.7658	 7.1330	 4.9798	 2.6889	 7.6687	55.0787	99.9637	
   965	 3.6628	 2.1529	 5.8157	 4.3656	 2.7397	 7.1053	 4.9507	 2.6816	 7.6323	55.1083	99.9643	
   966	 3.6379	 2.1231	 5.7610	 4.2999	 2.7495	 7.0494	 4.9665	 2.6585	 7.6250	55.1926	99.9617	
   967	 3.6538	 2.1329	 5.7867	 4.3267	 2.7534	 7.0801	 5.0201	 2.6922	 7.7122	55.2143	99.9601	
   968	 3.6309	 2.1333	 5.7642	 4.3129	 2.7449	 7.0578	 4.9910	 2.6849	 7.6759	55.2081	99.9607	
   969	 3.6090	 2.1489	 5.7579	 4.2991	 2.7364	 7.0356	 4.9104	 2.6783	 7.5887	55.1083	99.9629	
   970	 3.5941	 2.1543	 5.7484	 4.2602	 2.7502	 7.0104	 4.8814	 2.6710	 7.5524	55.0989	99.9626	
   971	 3.5642	 2.1650	 5.7292	 4.2343	 2.7593	 6.9936	 4.8477	 2.6829	 7.5306	55.0599	99.9629	
   972	 3.5403	 2.1503	 5.6906	 4.1946	 2.7600	 6.9546	 4.8120	 2.6605	 7.4724	55.0504	99.9632	
   973	 3.5025	 2.1561	 5.6586	 4.1609	 2.7518	 6.9128	 4.7440	 2.6728	 7.4168	54.9297	99.9638	
   974	 3.4865	 2.1463	 5.6329	 4.1472	 2.7434	 6.8905	 4.7037	 2.6695	 7.3732	54.8480	99.9647	
   975	 3.5015	 2.1410	 5.6424	 4.2084	 2.7685	 6.9769	 4.8186	 2.6757	 7.4943	55.0693	99.9652	
   976	 3.5552	 2.1450	 5.7002	 4.2335	 2.7463	 6.9797	 4.7664	 2.6649	 7.4313	54.8873	99.9663	
   977	 3.4627	 2.1316	 5.5943	 4.1472	 2.7434	 6.8905	 4.7037	 2.6695	 7.3732	54.8577	99.9657	
   978	 3.4099	 2.1428	 5.5527	 4.0685	 2.7578	 6.8263	 4.6476	 2.6893	 7.3369	54.7825	99.9641	
   979	 3.3521	 2.1945	 5.5466	 4.0305	 2.7846	 6.8151	 4.6616	 2.7311	 7.3927	54.9129	99.9618	
   980	 3.2983	 2.1906	 5.4889	 3.9381	 2.7905	 6.7286	 4.5831	 2.7589	 7.3420	54.7267	99.9596	
   981	 3.1759	 2.1879	 5.3638	 3.8457	 2.7964	 6.6421	 4.5270	 2.7787	 7.3057	54.7462	99.9590	
   982	 3.1380	 2.1938	 5.3318	 3.8206	 2.8187	 6.6392	 4.5021	 2.8401	 7.3422	54.5832	99.9587	
   983	 3.1520	 2.1732	 5.3252	 3.8112	 2.7752	 6.5864	 4.4503	 2.7415	 7.1918	54.6810	99.9607	
   984	 2.8555	 1.9616	 4.8171	 3.4950	 2.5930	 6.0880	 4.1270	 2.6044	 6.7314	54.3595	99.9597	
   985	 2.6614	 1.9149	 4.5763	 3.3787	 2.5339	 5.9126	 4.0324	 2.5560	 6.5884	54.5205	99.9608	
   986	 2.5968	 1.8605	 4.4573	 3.3746	 2.4685	 5.8431	 4.0731	 2.4714	 6.5445	54.8674	99.9613	
   987	 2.6199	 1.6273	 4.2472	 3.2946	 2.1427	 5.4373	 3.9504	 2.0530	 6.0034	55.2596	99.9600	
   988	 2.1385	 1.1563	 3.2948	 2.7180	 1.6116	 4.3296	 3.1207	 1.4986	 4.6193	54.6981	99.9661	
   989	 1.3274	 0.7880	 2.1154	 1.7140	 1.1313	 2.8453	 2.0527	 0.9816	 3.0343	54.2565	99.9609	
   990	 0.6213	 0.0331	 0.6543	 0.9248	 0.1676	 1.0924	 0.9995	-0.1427	 0.8568	54.6491	99.9683	
   991	-0.2990	-0.6063	-0.9053	-0.0413	-0.5532	-0.5945	-0.0803	-0.8542	-0.9345	54.3346	99.9692	
   992	-0.4056	-0.5991	-1.0047	-0.1450	-0.5166	-0.6616	-0.1242	-0.7277	-0.8519	54.0277	99.9650	
   993	-0.1390	-0.3767	-0.5157	 0.1794	-0.2037	-0.0243	 0.3604	-0.2910	 0.0695	53.9217	99.9583	
   994	 0.3315	 0.0439	 0.3755	 0.6964	 0.3285	 1.0248	 1.0297	 0.2617	 1.2913	54.0158	99.9559	
   995	 0.7335	 0.3496	 1.0830	 1.0345	 0.6499	 1.6844	 1.3084	 0.5139	 1.8223	53.8965	99.9591	
   996	 0.7752	 0.4044	 1.1796	 1.1164	 0.6878	 1.8042	 1.4563	 0.4967	 1.9530	54.3912	99.9591	
   997	 0.9266	 0.3811	 1.3077	 1.3191	 0.7498	 2.0688	 1.8066	 0.6068	 2.4134	54.6018	99.9552	
   998	 1.7672	 1.0878	 2.8550	 2.3326	 1.4873	 3.8198	 2.7798	 1.4495	 4.2293	54.5255	99.9603	
   999	 2.5871	 1.5926	 4.1796	 3.0810	 2.0111	 5.0921	 3.5140	 1.8448	 5.3588	54.7991	99.9628	
  1000	 2.5711	 1.5828	 4.1539	 3.1110	 2.0673	 5.1783	 3.7748	 2.0858	 5.8607	54.7142	99.9503	
  1001	 2.7792	 1.6090	 4.3882	 3.3278	 2.0375	 5.3653	 3.9582	 1.9918	 5.9500	55.1330	99.9528	
  1002	 2.7663	 1.5283	 4.2946	 3.3926	 2.0146	 5.4072	 4.0282	 2.0138	 6.0421	55.0746	99.9555	
  1003	 2.8788	 1.6120	 4.4908	 3.4372	 2.0923	 5.5296	 4.0832	 2.0704	 6.1536	55.0254	99.9531	
  1004	 2.6667	 1.6416	 4.3082	 3.2784	 2.0950	 5.3734	 3.9151	 1.9427	 5.8578	55.4590	99.9590	
  1005	 2.6926	 1.5702	 4.2628	 3.3354	 1.8411	 5.1764	 3.6199	 1.7022	 5.3221	55.2587	99.9688	
  1006	 2.4749	 1.2761	 3.7509	 3.0991	 1.7709	 4.8700	 3.5961	 1.2137	 4.8098	56.4346	99.9716	
  1007	 2.3515	 1.1419	 3.4935	 2.8869	 1.4517	 4.3387	 3.1704	 1.0894	 4.2598	55.6750	99.9717	
  1008	 2.2869	 1.0876	 3.3745	 2.8484	 1.3651	 4.2135	 3.0643	 0.9457	 4.0100	55.8554	99.9748	
  1009	 2.1476	 0.9436	 3.0913	 2.6863	 1.3155	 4.0018	 3.0307	 0.9576	 3.9882	55.6466	99.9707	
  1010	 2.1078	 0.9191	 3.0270	 2.6640	 1.2767	 3.9406	 3.0188	 0.9501	 3.9689	55.6560	99.9700	
  1011	 2.0104	 0.8300	 2.8404	 2.5504	 1.1564	 3.7069	 2.8289	 0.8418	 3.6707	55.4892	99.9714	
  1012	 1.8512	 0.7320	 2.5832	 2.3668	 1.0810	 3.4478	 2.6874	 0.7749	 3.4623	55.4071	99.9695	
  1013	 1.8442	 0.7423	 2.5864	 2.3883	 1.1068	 3.4951	 2.7193	 0.8279	 3.5472	55.3572	99.9697	
  1014	 1.8442	 0.7423	 2.5864	 2.2652	 1.2572	 3.5224	 2.9250	 0.7260	 3.6510	56.1980	99.9617	
  1015	 1.8612	 0.6508	 2.5120	 2.1937	 0.9618	 3.1555	 2.3725	 0.5880	 2.9606	54.9815	99.9699	
  1016	 1.6860	 0.6594	 2.3454	 2.1175	 1.0154	 3.1330	 2.3602	 0.6684	 3.0286	55.0490	99.9707	
  1017	 1.6969	 0.7098	 2.4066	 2.1824	 0.9925	 3.1749	 2.4131	 0.6906	 3.1037	55.2150	99.9705	
  1018	 1.8182	 0.8136	 2.6318	 2.3697	 1.2336	 3.6034	 2.7759	 1.0067	 3.7826	55.1553	99.9672	
  1019	 2.0510	 0.9860	 3.0371	 2.6332	 1.4211	 4.0544	 3.0295	 1.2210	 4.2505	55.0952	99.9681	
  1020	 2.1803	 1.0948	 3.2751	 2.7727	 1.5322	 4.3049	 3.1797	 1.3375	 4.5172	55.1245	99.9679	
  1021	 2.2590	 1.1286	 3.3876	 2.8493	 1.5919	 4.4413	 3.2848	 1.3705	 4.6553	55.2183	99.9679	
  1022	 2.2689	 1.1638	 3.4327	 2.8380	 1.6227	 4.4607	 3.2406	 1.3978	 4.6384	55.0873	99.9685	
  1023	 2.2619	 1.1741	 3.4360	 2.8242	 1.6142	 4.4384	 3.1951	 1.4022	 4.5972	54.9964	99.9687	
  1024	 2.2549	 1.1843	 3.4393	 2.8198	 1.6491	 4.4689	 3.2143	 1.4363	 4.6506	54.9756	99.9685	
  1025	 2.2877	 1.2191	 3.5068	 2.8628	 1.7008	 4.5635	 3.2622	 1.5655	 4.8277	54.7149	99.9671	
  1026	 2.3842	 1.2931	 3.6773	 3.0059	 1.7638	 4.7696	 3.4651	 1.6049	 5.0700	55.0942	99.9667	
  1027	 2.3166	 1.1932	 3.5099	 2.8716	 1.6308	 4.5025	 3.3233	 1.4387	 4.7620	55.1472	99.9651	
  1028	 2.1992	 1.1500	 3.3492	 2.7967	 1.5972	 4.3938	 3.2592	 1.4204	 4.6796	55.1601	99.9658	
  1029	 2.2021	 1.1955	 3.3977	 2.8084	 1.6799	 4.4883	 3.2885	 1.5270	 4.8155	55.0040	99.9657	
  1030	 2.2101	 1.2004	 3.4105	 2.8198	 1.6491	 4.4689	 3.2633	 1.4891	 4.7524	55.0553	99.9665	
  1031	 2.2012	 1.1804	 3.3815	 2.7853	 1.6279	 4.4132	 3.2329	 1.4590	 4.6918	55.0423	99.9658	
  1032	 2.1155	 1.2731	 3.3886	 2.8851	 1.7396	 4.6247	 3.4278	 1.2732	 4.7010	56.4828	99.9729	
  1033	 2.0569	 1.0770	 3.1339	 2.6138	 1.5348	 4.1487	 2.9702	 1.2829	 4.2531	54.9567	99.9702	
  1034	 2.0101	 1.0627	 3.0729	 2.5648	 1.4921	 4.0568	 2.9919	 1.2635	 4.2554	55.1260	99.9668	
  1035	 2.1056	 1.1216	 3.2272	 2.7087	 1.5681	 4.2768	 3.1996	 1.3830	 4.5827	55.2344	99.9652	
  1036	 2.2489	 1.2098	 3.4587	 2.8473	 1.6661	 4.5135	 3.3380	 1.4920	 4.8299	55.1827	99.9650	
  1037	 2.3037	 1.2289	 3.5326	 2.8749	 1.6831	 4.5580	 3.3190	 1.5571	 4.8761	54.8765	99.9645	
  1038	 2.3215	 1.2690	 3.5906	 2.9033	 1.7132	 4.6165	 3.3519	 1.5338	 4.8857	55.0924	99.9659	
  1039	 2.1216	 1.1314	 3.2529	 2.6682	 1.5557	 4.2239	 3.0833	 1.3540	 4.4373	55.0271	99.9662	
  1040	 1.9643	 1.0637	 3.0280	 2.5174	 1.4754	 3.9928	 2.8724	 1.2765	 4.1489	54.8719	99.9683	
  1041	 1.8628	 1.0303	 2.8931	 2.4242	 1.4683	 3.8924	 2.7834	 1.3197	 4.1030	54.6234	99.9677	
  1042	 1.9145	 1.1203	 3.0348	 2.4972	 1.5761	 4.0732	 2.8965	 1.3907	 4.2873	54.8033	99.9681	
  1043	 1.9623	 1.1497	 3.1120	 2.5126	 1.6107	 4.1233	 2.9304	 1.4781	 4.4086	54.5965	99.9653	
  1044	 2.0190	 1.1992	 3.2181	 2.5600	 1.6274	 4.1874	 2.9329	 1.4246	 4.3576	54.7797	99.9677	
  1045	 1.8767	 1.1261	 3.0028	 2.3841	 1.5693	 3.9534	 2.7420	 1.3927	 4.1347	54.4905	99.9670	
  1046	 1.8478	 1.1520	 2.9998	 2.3687	 1.5346	 3.9033	 2.6818	 1.3439	 4.0256	54.6060	99.9681	
  1047	 1.8130	 1.0869	 2.8999	 2.3066	 1.4964	 3.8031	 2.6254	 1.2644	 3.8898	54.6230	99.9686	
  1048	 1.8269	 1.0664	 2.8933	 2.2860	 1.4837	 3.7697	 2.5949	 1.2343	 3.8292	54.5646	99.9685	
  1049	 1.7792	 1.0370	 2.8162	 2.2430	 1.4321	 3.6751	 2.5413	 1.2006	 3.7419	54.5542	99.9682	
  1050	 1.7563	 1.0375	 2.7937	 2.2231	 1.4324	 3.6555	 2.5533	 1.2081	 3.7613	54.6058	99.9670	
  1051	 1.7732	 1.0624	 2.8356	 2.2722	 1.4752	 3.7474	 2.6433	 1.2756	 3.9189	54.6505	99.9662	
  1052	 1.8149	 1.1172	 2.9322	 2.2815	 1.5187	 3.8002	 2.6176	 1.3256	 3.9433	54.4794	99.9661	
  1053	 1.7602	 1.0981	 2.8583	 2.2426	 1.5324	 3.7750	 2.5966	 1.3564	 3.9530	54.3876	99.9662	
  1054	 1.8089	 1.1427	 2.9516	 2.3168	 1.5530	 3.8698	 2.6818	 1.3439	 4.0256	54.6573	99.9669	
  1055	 1.7841	 1.1128	 2.8969	 2.2824	 1.5317	 3.8141	 2.6222	 1.3065	 3.9287	54.5992	99.9680	
  1056	 1.7602	 1.0981	 2.8583	 2.2211	 1.5066	 3.7277	 2.5462	 1.2807	 3.8269	54.4962	99.9673	
  1057	 1.7363	 1.0834	 2.8197	 2.1806	 1.4942	 3.6748	 2.5395	 1.2655	 3.8051	54.5373	99.9657	
  1058	 1.7214	 1.0888	 2.8101	 2.1676	 1.4988	 3.6664	 2.5125	 1.2926	 3.8051	54.4243	99.9657	
  1059	 1.7851	 1.1280	 2.9130	 2.2807	 1.5056	 3.7863	 2.6103	 1.2990	 3.9093	54.6265	99.9671	
  1060	 1.8039	 1.1832	 2.9872	 2.2649	 1.5713	 3.8362	 2.5854	 1.3604	 3.9458	54.4654	99.9667	
  1061	 1.7979	 1.2087	 3.0066	 2.2183	 1.5677	 3.7860	 2.4869	 1.3426	 3.8295	54.3407	99.9671	
  1062	 1.7740	 1.1939	 2.9680	 2.1657	 1.5730	 3.7386	 2.4452	 1.3164	 3.7616	54.3265	99.9670	
  1063	 1.7611	 1.2296	 2.9907	 2.1414	 1.6083	 3.7496	 2.4189	 1.3549	 3.7738	54.2472	99.9667	
  1064	 1.7710	 1.2648	 3.0358	 2.1629	 1.6341	 3.7969	 2.4270	 1.3930	 3.8199	54.2129	99.9671	
  1065	 1.8077	 1.3602	 3.1680	 2.1840	 1.7602	 3.9442	 2.4630	 1.5147	 3.9777	54.0796	99.9668	
  1066	 1.8317	 1.2586	 3.0903	 2.1798	 1.4811	 3.6609	 2.3515	 1.0923	 3.4438	54.8417	99.9696	
  1067	 1.2849	 0.4853	 1.7702	 1.5698	 0.6278	 2.1976	 1.7210	 0.2337	 1.9547	55.1416	99.9671	
  1068	 0.9168	 0.2295	 1.1463	 1.3091	 0.3792	 1.6883	 1.4602	-0.0073	 1.4528	55.3298	99.9702	
  1069	 0.7875	 0.1208	 0.9083	 1.1222	 0.2515	 1.3737	 1.1950	-0.1299	 1.0651	55.0168	99.9708	
  1070	 0.6621	 0.0727	 0.7348	 0.9998	 0.2012	 1.2010	 1.0787	-0.1590	 0.9197	54.9313	99.9702	
  1071	 0.6242	 0.0785	 0.7028	 0.9695	 0.2453	 1.2148	 1.0842	-0.0674	 1.0168	54.7346	99.9688	
  1072	 0.7406	 0.2229	 0.9635	 1.1094	 0.4698	 1.5792	 1.3009	 0.2009	 1.5018	54.5614	99.9673	
  1073	 1.0250	 0.4854	 1.5105	 1.4139	 0.7831	 2.1970	 1.6255	 0.5480	 2.1735	54.3805	99.9673	
  1074	 1.2081	 0.5981	 1.8062	 1.6441	 0.8621	 2.5062	 1.8844	 0.5676	 2.4520	54.9115	99.9684	
  1075	 1.3644	 0.6507	 2.0150	 1.7872	 0.9251	 2.7123	 2.0298	 0.6039	 2.6337	54.9985	99.9687	
  1076	 1.4092	 0.6346	 2.0438	 1.7994	 0.9074	 2.7068	 2.0028	 0.6310	 2.6338	54.7162	99.9681	
  1077	 1.4757	 0.8356	 2.3113	 1.9073	 1.1499	 3.0571	 2.1330	 0.8889	 3.0219	54.5876	99.9690	
  1078	 1.5930	 0.9952	 2.5882	 1.9937	 1.3665	 3.3602	 2.2968	 1.1350	 3.4318	54.3881	99.9657	
  1079	 1.7611	 1.2296	 2.9907	 2.1673	 1.5991	 3.7664	 2.4526	 1.3430	 3.7956	54.3715	99.9671	
  1080	 1.8236	 1.3700	 3.1937	 2.1970	 1.7556	 3.9526	 2.4616	 1.4918	 3.9534	54.1408	99.9673	
  1081	 1.8126	 1.4360	 3.2487	 2.1873	 1.8125	 3.9998	 2.4472	 1.5378	 3.9850	54.1371	99.9676	
  1082	 1.8703	 1.5007	 3.3710	 2.2509	 1.8768	 4.1278	 2.5603	 1.6089	 4.1692	54.2487	99.9659	
  1083	 1.8882	 1.5408	 3.4290	 2.2550	 1.9422	 4.1972	 2.6093	 1.6617	 4.2711	54.2700	99.9646	
  1084	 1.8971	 1.5608	 3.4580	 2.2809	 1.9330	 4.2140	 2.5631	 1.6547	 4.2178	54.2037	99.9671	
  1085	 1.7917	 1.4668	 3.2585	 2.1605	 1.8086	 3.9691	 2.4728	 1.4878	 3.9606	54.4745	99.9660	
  1086	 1.6993	 1.2207	 2.9201	 2.0785	 1.5570	 3.6355	 2.4530	 1.2552	 3.7082	54.7467	99.9634	
  1087	 1.6387	 1.1106	 2.7494	 2.0651	 1.4482	 3.5133	 2.3914	 1.1834	 3.5748	54.6675	99.9657	
  1088	 1.5880	 1.0358	 2.6238	 2.0343	 1.3789	 3.4131	 2.3907	 1.1720	 3.5627	54.6194	99.9638	
  1089	 1.6796	 1.0339	 2.7135	 2.1603	 1.3811	 3.5414	 2.5452	 1.1700	 3.7152	54.8422	99.9640	
  1090	 1.8080	 1.1275	 2.9355	 2.3066	 1.4964	 3.8031	 2.7298	 1.2860	 4.0158	54.9268	99.9636	
  1091	 1.8607	 1.1163	 2.9771	 2.3119	 1.4745	 3.7864	 2.7144	 1.2213	 3.9357	54.9653	99.9637	
  1092	 1.8309	 1.1270	 2.9579	 2.3066	 1.4964	 3.8031	 2.6927	 1.2406	 3.9333	54.9310	99.9654	
  1093	 1.8518	 1.0963	 2.9481	 2.2981	 1.4660	 3.7642	 2.6549	 1.1839	 3.8387	54.9008	99.9662	
  1094	 1.8607	 1.1163	 2.9771	 2.3196	 1.4918	 3.8115	 2.6622	 1.2105	 3.8727	54.8665	99.9672	
  1095	 1.8369	 1.1016	 2.9385	 2.2989	 1.4791	 3.7780	 2.6055	 1.2189	 3.8243	54.7053	99.9681	
  1096	 1.7313	 1.1240	 2.8553	 2.1952	 1.5158	 3.7110	 2.5647	 1.3034	 3.8681	54.5888	99.9651	
  1097	 1.7451	 1.2198	 2.9650	 2.2415	 1.6197	 3.8611	 2.6635	 1.4205	 4.0840	54.6744	99.9640	
  1098	 1.7172	 1.2609	 2.9781	 2.2042	 1.6595	 3.8637	 2.6649	 1.4434	 4.1082	54.7561	99.9626	
  1099	 1.6943	 1.2613	 2.9556	 2.1523	 1.6779	 3.8302	 2.5976	 1.4671	 4.0647	54.5551	99.9626	
  1100	 1.6346	 1.2827	 2.9173	 2.1203	 1.6959	 3.8162	 2.5857	 1.4597	 4.0453	54.7119	99.9633	
  1101	 1.7042	 1.2965	 3.0008	 2.2257	 1.6853	 3.9110	 2.6491	 1.4665	 4.1156	54.7527	99.9650	
  1102	 1.8885	 1.1917	 3.0802	 2.3342	 1.5134	 3.8476	 2.6615	 1.1990	 3.8606	55.0286	99.9671	
  1103	 1.6558	 0.9029	 2.5587	 2.0929	 1.1511	 3.2440	 2.3230	 0.8101	 3.1331	55.1469	99.9695	
  1104	 1.5415	 0.7888	 2.3302	 1.8999	 1.0322	 2.9321	 2.1233	 0.7287	 2.8520	54.8348	99.9665	
  1105	 1.5813	 0.8133	 2.3945	 1.9121	 1.0146	 2.9266	 2.1279	 0.7095	 2.8374	54.8910	99.9650	
  1106	 1.6300	 0.8578	 2.4879	 1.9085	 1.0626	 2.9711	 2.1247	 0.7516	 2.8763	54.7618	99.9635	
  1107	 1.5603	 0.8441	 2.4044	 1.8006	 1.0339	 2.8345	 1.9905	 0.7113	 2.7018	54.6426	99.9633	
  1108	 1.3683	 0.7113	 2.0796	 1.5663	 0.8895	 2.4559	 1.7503	 0.5273	 2.2776	54.6565	99.9631	
  1109	 1.1196	 0.5291	 1.6486	 1.3028	 0.7021	 2.0049	 1.4658	 0.3706	 1.8365	54.4542	99.9624	
  1110	 0.9056	 0.4119	 1.3176	 1.1054	 0.6182	 1.7236	 1.3454	 0.2729	 1.6183	54.5856	99.9611	
  1111	 0.8459	 0.4333	 1.2792	 1.1208	 0.6528	 1.7736	 1.3495	 0.3416	 1.6911	54.5435	99.9634	
  1112	 0.9921	 0.5670	 1.5591	 1.3049	 0.8416	 2.1465	 1.6486	 0.5515	 2.2002	54.6918	99.9608	
  1113	 1.3026	 0.7581	 2.0607	 1.6694	 1.0536	 2.7229	 2.0118	 0.7798	 2.7916	54.7681	99.9626	
  1114	 1.5722	 0.9096	 2.4818	 2.0123	 1.2397	 3.2520	 2.3698	 1.0157	 3.3855	54.7880	99.9637	
  1115	 1.7563	 1.0375	 2.7937	 2.2102	 1.4370	 3.6471	 2.5949	 1.2343	 3.8292	54.6299	99.9641	
  1116	 2.0575	 1.4413	 3.4988	 2.6425	 1.9924	 4.6348	 3.2056	 1.8602	 5.0658	54.6108	99.9629	
  1117	 2.4106	 1.8187	 4.2293	 2.8886	 2.2194	 5.1080	 3.4181	 2.0599	 5.4780	54.7517	99.9579	
  1118	 2.4205	 1.8539	 4.2745	 2.9299	 2.2449	 5.1748	 3.5477	 2.1193	 5.6670	54.9553	99.9538	
  1119	 2.4025	 1.9302	 4.3327	 3.1447	 2.2892	 5.4339	 3.7261	 2.1323	 5.8584	55.5658	99.9634	
  1120	 2.4029	 1.5811	 3.9840	 2.8272	 1.9805	 4.8078	 3.3665	 1.7742	 5.1406	54.9647	99.9570	
  1121	 2.3990	 1.5204	 3.9194	 2.9480	 2.0046	 4.9527	 3.5252	 1.8408	 5.3660	55.0192	99.9605	
  1122	 2.3960	 1.4750	 3.8710	 2.9723	 1.9693	 4.9417	 3.6184	 1.8664	 5.4847	55.0708	99.9570	
  1123	 2.4955	 1.5944	 4.0899	 3.0721	 2.0811	 5.1531	 3.7143	 1.9377	 5.6520	55.1839	99.9582	
  1124	 2.5433	 1.5074	 4.0508	 3.0647	 1.9634	 5.0281	 3.5970	 1.7979	 5.3950	55.0333	99.9607	
  1125	 2.4707	 1.4482	 3.9189	 3.0088	 1.9164	 4.9252	 3.5673	 1.7792	 5.3465	55.0127	99.9597	
  1126	 2.4827	 1.3973	 3.8801	 3.0047	 1.8510	 4.8557	 3.5162	 1.6920	 5.2082	55.0138	99.9613	
  1127	 2.4240	 1.3176	 3.7416	 2.9256	 1.7520	 4.6776	 3.4055	 1.5675	 4.9730	55.0455	99.9621	
  1128	 2.3872	 1.3385	 3.7257	 2.9443	 1.8390	 4.7833	 3.4601	 1.7119	 5.1720	54.8521	99.9624	
  1129	 2.4697	 1.4330	 3.9028	 3.0501	 1.9419	 4.9920	 3.6373	 1.8012	 5.4385	55.0850	99.9610	
  1130	 2.5633	 1.4615	 4.0248	 3.1579	 1.9706	 5.1285	 3.7109	 1.8805	 5.5913	54.9177	99.9613	
  1131	 2.5762	 1.5422	 4.1184	 3.1827	 2.0487	 5.2314	 3.7620	 1.9676	 5.7296	54.9405	99.9604	
  1132	 2.5323	 1.5734	 4.1058	 3.1110	 2.0673	 5.1783	 3.7441	 1.9564	 5.7005	55.0836	99.9579	
  1133	 2.4407	 1.5753	 4.0160	 3.0583	 2.0726	 5.1309	 3.7469	 2.0022	 5.7490	55.1219	99.9557	
  1134	 2.5203	 1.6243	 4.1446	 3.1997	 2.1094	 5.3092	 3.8421	 2.0620	 5.9042	55.1410	99.9587	
  1135	 2.7234	 1.6910	 4.4144	 3.3919	 2.2152	 5.6071	 4.0569	 2.1089	 6.1658	55.3085	99.9602	
  1136	 2.9563	 1.7471	 4.7034	 3.5868	 2.2599	 5.8468	 4.1897	 2.1263	 6.3160	55.2866	99.9618	
  1137	 3.0569	 1.6490	 4.7059	 3.6382	 2.1282	 5.7664	 4.1635	 1.9777	 6.1412	55.2667	99.9629	
  1138	 2.9624	 1.6053	 4.5677	 3.5685	 2.0727	 5.6412	 4.1191	 1.9057	 6.0248	55.4498	99.9629	
  1139	 2.8808	 1.5260	 4.4068	 3.4696	 1.9740	 5.4436	 3.9471	 1.8087	 5.7558	55.2896	99.9646	
  1140	 2.9047	 1.5407	 4.4454	 3.5109	 1.9995	 5.5104	 3.9940	 1.8272	 5.8212	55.3390	99.9654	
  1141	 3.0491	 1.5277	 4.5768	 3.6268	 1.9452	 5.5720	 4.0569	 1.6354	 5.6923	55.7936	99.9686	
  1142	 3.0870	 1.4055	 4.4925	 3.5704	 1.7848	 5.3551	 3.8304	 1.3940	 5.2243	55.6276	99.9723	
  1143	 3.0701	 1.3806	 4.4507	 3.5696	 1.7717	 5.3413	 3.8198	 1.4094	 5.2292	55.5246	99.9728	
  1144	 3.0930	 1.3801	 4.4731	 3.5955	 1.7625	 5.3580	 3.8388	 1.3442	 5.1830	55.7339	99.9736	
  1145	 3.0990	 1.3547	 4.4537	 3.5955	 1.7625	 5.3580	 3.8791	 1.3475	 5.2266	55.7523	99.9726	
  1146	 3.1409	 1.2931	 4.4340	 3.6064	 1.6184	 5.2248	 3.8380	 1.0464	 4.8844	56.3803	99.9740	
  1147	 3.1071	 1.2432	 4.3503	 3.5918	 1.5968	 5.1886	 3.8124	 1.0964	 4.9088	56.0989	99.9744	
  1148	 3.2145	 1.3675	 4.5821	 3.7171	 1.7997	 5.5168	 3.9961	 1.3880	 5.3841	55.7333	99.9730	
  1149	 3.2483	 1.4175	 4.6658	 3.7714	 1.8206	 5.5920	 4.0437	 1.4180	 5.4617	55.8141	99.9733	
  1150	 3.2244	 1.4028	 4.6272	 3.7414	 1.7644	 5.5058	 3.9846	 1.2927	 5.2773	56.0714	99.9743	
  1151	 3.1061	 1.2280	 4.3342	 3.5329	 1.3972	 4.9301	 3.5138	 0.6115	 4.1253	56.8793	99.9785	
  1152	 2.8167	 0.8898	 3.7065	 3.0763	 0.8771	 3.9534	 2.8118	-0.1049	 2.7068	57.1640	99.9792	
  1153	 2.6844	 0.8520	 3.5363	 3.0216	 0.9566	 3.9782	 2.9016	 0.1497	 3.0514	56.7001	99.9790	
  1154	 2.7292	 0.8359	 3.5651	 3.0735	 0.9382	 4.0117	 3.0040	 0.1370	 3.1409	56.8798	99.9782	
  1155	 2.6914	 0.7253	 3.4168	 3.0317	 0.7994	 3.8310	 2.9256	-0.0224	 2.9032	57.0026	99.9788	
  1156	 2.6934	 0.7556	 3.4491	 3.0893	 0.8725	 3.9618	 3.0033	 0.1255	 3.1288	56.7826	99.9795	
  1157	 2.6616	 0.7360	 3.3976	 3.0410	 0.8428	 3.8838	 2.9595	 0.0650	 3.0245	56.8827	99.9790	
  1158	 2.6367	 0.7062	 3.3429	 2.9725	 0.7000	 3.6725	 2.7488	-0.1996	 2.5492	57.1976	99.9804	
  1159	 2.3452	 0.4540	 2.7992	 2.5386	 0.3322	 2.8709	 2.1979	-0.6889	 1.5091	57.3422	99.9797	
  1160	 2.0726	 0.2570	 2.3297	 2.2090	 0.0412	 2.2502	 1.7861	-1.0577	 0.7284	57.5514	99.9799	
  1161	 1.8657	 0.1296	 1.9953	 2.0015	-0.0992	 1.9022	 1.5812	-1.1315	 0.4497	57.3347	99.9807	
  1162	 1.9711	 0.2237	 2.1948	 2.1657	 0.0899	 2.2556	 1.8817	-0.8986	 0.9831	57.3631	99.9793	
  1163	 2.1233	 0.3319	 2.4553	 2.3449	 0.2003	 2.5452	 2.0372	-0.7899	 1.2473	57.3827	99.9800	
  1164	 2.1612	 0.3261	 2.4873	 2.3700	 0.1781	 2.5480	 2.0298	-0.8165	 1.2133	57.3659	99.9804	
  1165	 2.1592	 0.2958	 2.4550	 2.3322	 0.1046	 2.4368	 1.9283	-0.9794	 0.9489	57.5873	99.9800	
  1166	 2.0946	 0.2414	 2.3360	 2.2633	 0.0621	 2.3254	 1.8516	-1.0166	 0.8350	57.4972	99.9800	
  1167	 2.0637	 0.2370	 2.3007	 2.2512	 0.0797	 2.3309	 1.8505	-0.9402	 0.9103	57.2773	99.9807	
  1168	 2.0975	 0.2869	 2.3844	 2.3019	 0.1487	 2.4506	 1.8950	-0.8682	 1.0267	57.2100	99.9808	
  1169	 2.0886	 0.2668	 2.3554	 2.2933	 0.1183	 2.4116	 1.9055	-0.8836	 1.0218	57.2564	99.9809	
  1170	 2.1184	 0.2561	 2.3746	 2.3408	 0.1349	 2.4757	 2.0284	-0.8394	 1.1890	57.3422	99.9801	
  1171	 2.1095	 0.2361	 2.3456	 2.3322	 0.1046	 2.4368	 1.9749	-0.8731	 1.1018	57.2820	99.9808	
  1172	 2.0379	 0.1920	 2.2298	 2.2633	 0.0621	 2.3254	 1.8817	-0.8986	 0.9831	57.1487	99.9814	
  1173	 2.0011	 0.0966	 2.0977	 2.1303	-0.1581	 1.9722	 1.6038	-1.3265	 0.2773	57.7246	99.9800	
  1174	 1.4032	-0.4025	 1.0008	 1.3437	-0.8689	 0.4748	 0.6365	-2.1655	-1.5290	57.9612	99.9801	
  1175	 0.9555	-0.7072	 0.2483	 0.8633	-1.2403	-0.3770	 0.1448	-2.5295	-2.3847	58.0104	99.9809	
  1176	 0.7197	-0.8088	-0.0891	 0.6521	-1.3327	-0.6805	-0.0443	-2.6264	-2.6707	58.0454	99.9807	
  1177	 0.6092	-0.8622	-0.2530	 0.5832	-1.3751	-0.7919	-0.0622	-2.6376	-2.6998	58.1162	99.9809	
  1178	 0.5993	-0.8974	-0.2981	 0.5771	-1.3663	-0.7892	 0.0219	-2.5738	-2.5519	58.0361	99.9802	
  1179	 0.6271	-0.8221	-0.1950	 0.6347	-1.2931	-0.6584	 0.0649	-2.5247	-2.4598	58.1274	99.9805	
  1180	 0.5972	-0.8114	-0.2142	 0.5983	-1.2401	-0.6419	 0.0284	-2.3715	-2.3431	57.5556	99.9813	
  1181	 0.7384	-0.6371	 0.1013	 0.8079	-0.9602	-0.1522	 0.3028	-2.0008	-1.6980	57.1607	99.9815	
  1182	 1.0239	-0.3595	 0.6644	 1.1339	-0.6211	 0.5128	 0.7146	-1.6320	-0.9173	57.1418	99.9807	
  1183	 1.2526	-0.1313	 1.1213	 1.4125	-0.2986	 1.1139	 1.0637	-1.2584	-0.1947	56.9206	99.9802	
  1184	 1.5949	 0.0794	 1.6743	 1.8078	-0.0174	 1.7903	 1.5183	-0.9397	 0.5786	56.9050	99.9800	
  1185	 1.7970	 0.1310	 1.9280	 2.0319	 0.0704	 2.1023	 1.7947	-0.8211	 0.9736	56.9666	99.9795	
  1186	 1.9313	 0.1992	 2.1305	 2.1957	 0.1461	 2.3418	 1.9481	-0.7467	 1.2014	57.0301	99.9800	
  1187	 1.9333	 0.2295	 2.1628	 2.1775	 0.1726	 2.3501	 1.9257	-0.7388	 1.1869	57.0185	99.9797	
  1188	 1.9014	 0.2099	 2.1113	 2.1163	 0.1475	 2.2637	 1.8490	-0.7760	 1.0730	56.9549	99.9795	
  1189	 1.8855	 0.2001	 2.0856	 2.1086	 0.1301	 2.2387	 1.8140	-0.7870	 1.0270	56.9057	99.9801	
  1190	 1.8607	 0.1702	 2.0309	 2.0871	 0.1043	 2.1914	 1.7737	-0.7903	 0.9834	56.7814	99.9806	
  1191	 1.8079	 0.1814	 1.9893	 2.0429	 0.1400	 2.1829	 1.7817	-0.7522	 1.0295	56.8052	99.9798	
  1192	 1.8885	 0.2455	 2.1340	 2.1463	 0.2037	 2.3499	 1.8955	-0.6697	 1.2258	56.8318	99.9801	
  1193	 1.9512	 0.2696	 2.2208	 2.2188	 0.1981	 2.4169	 1.9628	-0.6935	 1.2693	57.0301	99.9803	
  1194	 1.9253	 0.2246	 2.1499	 2.1527	 0.0945	 2.2472	 1.8592	-0.8907	 0.9686	57.3687	99.9799	
  1195	 1.8080	 0.0650	 1.8730	 1.9212	-0.1110	 1.8102	 1.5500	-1.1731	 0.3770	57.3404	99.9790	
  1196	 1.6896	 0.0067	 1.6962	 1.8118	-0.1658	 1.6459	 1.4456	-1.1946	 0.2510	57.2171	99.9794	
  1197	 1.6896	 0.0067	 1.6962	 1.8118	-0.1658	 1.6459	 1.4218	-1.2096	 0.2122	57.2056	99.9796	
  1198	 1.6428	-0.0076	 1.6352	 1.7773	-0.1870	 1.5903	 1.3657	-1.1898	 0.1759	57.0410	99.9806	
  1199	 1.6457	 0.0379	 1.6836	 1.7830	-0.0955	 1.6875	 1.4242	-1.0760	 0.3482	56.9154	99.9798	
  1200	 1.6786	 0.0727	 1.7512	 1.8839	-0.0711	 1.8129	 1.5664	-0.9976	 0.5687	57.0500	99.9805	
  1201	 1.7811	 0.1212	 1.9023	 2.0003	-0.0120	 1.9883	 1.7202	-1.0111	 0.7091	57.4304	99.9794	
  1202	 1.7294	 0.0312	 1.7606	 1.8876	-0.1191	 1.7684	 1.5720	-1.0932	 0.4789	57.1871	99.9795	
  1203	 1.6925	 0.0521	 1.7447	 1.8839	-0.0711	 1.8129	 1.5783	-0.9902	 0.5881	56.9745	99.9801	
  1204	 1.7094	 0.0771	 1.7865	 1.9245	-0.0587	 1.8658	 1.5856	-0.9635	 0.6221	56.9338	99.9811	
  1205	 1.7273	 0.1172	 1.8445	 1.9464	 0.0805	 2.0270	 1.7169	-0.7819	 0.9350	56.7275	99.9792	
  1206	 1.7869	 0.2122	 1.9991	 2.0478	 0.2184	 2.2662	 1.8639	-0.6235	 1.2405	56.7039	99.9790	
  1207	 1.8128	 0.2572	 2.0700	 2.0892	 0.2439	 2.3330	 1.9175	-0.5898	 1.3277	56.7958	99.9791	
  1208	 1.8586	 0.2563	 2.1149	 2.1410	 0.2256	 2.3666	 1.9862	-0.5907	 1.3955	56.8875	99.9789	
  1209	 1.8984	 0.2808	 2.1792	 2.1702	 0.2687	 2.4389	 2.0121	-0.5414	 1.4707	56.7735	99.9788	
  1210	 1.9003	 0.3111	 2.2114	 2.1796	 0.3121	 2.4917	 2.0208	-0.4918	 1.5290	56.7025	99.9789	
  1211	 1.8924	 0.3062	 2.1986	 2.1796	 0.3121	 2.4917	 2.0327	-0.4844	 1.5484	56.7114	99.9788	
  1212	 1.8934	 0.3213	 2.2147	 2.1873	 0.3295	 2.5167	 2.0348	-0.4500	 1.5848	56.6377	99.9791	
  1213	 1.9093	 0.3311	 2.2404	 2.1958	 0.3598	 2.5557	 2.0488	-0.4082	 1.6406	56.5272	99.9789	
  1214	 1.8953	 0.3517	 2.2470	 2.1837	 0.3775	 2.5612	 2.0278	-0.3774	 1.6504	56.4477	99.9791	
  1215	 1.9093	 0.3311	 2.2404	 2.1760	 0.3602	 2.5361	 2.0818	-0.4315	 1.6502	56.6923	99.9774	
  1216	 1.9471	 0.3253	 2.2725	 2.2355	 0.3592	 2.5947	 2.1525	-0.3981	 1.7544	56.6763	99.9775	
  1217	 1.9730	 0.3703	 2.3433	 2.2862	 0.4281	 2.7143	 2.2334	-0.2922	 1.9412	56.5961	99.9773	
  1218	 2.0316	 0.4501	 2.4818	 2.3385	 0.5232	 2.8617	 2.3069	-0.2130	 2.0939	56.6109	99.9768	
  1219	 2.0307	 0.4350	 2.4656	 2.3430	 0.4882	 2.8312	 2.2824	-0.2394	 2.0430	56.5990	99.9774	
  1220	 2.0157	 0.4403	 2.4560	 2.3308	 0.5059	 2.8367	 2.2614	-0.2086	 2.0528	56.4836	99.9777	
  1221	 2.0167	 0.4555	 2.4722	 2.3264	 0.5408	 2.8672	 2.2859	-0.1822	 2.1037	56.4956	99.9771	
  1222	 2.0346	 0.4956	 2.5302	 2.3487	 0.5797	 2.9284	 2.3177	-0.1291	 2.1886	56.4682	99.9769	
  1223	 2.1122	 0.5143	 2.6265	 2.4565	 0.6084	 3.0650	 2.4691	-0.0891	 2.3800	56.6246	99.9764	
  1224	 2.1580	 0.5134	 2.6714	 2.4772	 0.6212	 3.0984	 2.5034	-0.0895	 2.4139	56.6246	99.9757	
